timestamp,emg1,emg2,emg3,emg4,emg5,emg6,emg7,emg8
59637849910,-5,1,-4,-1,-1,0,-1,-1
59637849910,6,-1,-2,0,-1,0,0,1
59637858089,0,-1,-1,2,-1,1,-2,-1
59637858089,-6,-1,-1,-2,0,0,-2,1
59637859037,3,-1,3,2,0,0,0,0
59637859037,-1,-1,-1,-2,-1,-2,0,-2
59637881109,0,-1,-2,-1,-3,-1,0,0
59637881109,0,-4,-1,-4,-2,-1,0,-3
59637881584,-2,-1,-4,-1,-3,-1,-2,0
59637881584,-3,-3,-1,-8,-4,-2,-3,-3
59637894240,0,-1,0,13,2,0,-2,2
59637894240,-1,-2,-1,-20,-6,-2,0,0
59637903318,-1,0,-1,6,1,-1,-1,-1
59637903318,-1,-2,-3,-7,0,-1,1,0
59637918074,-3,-3,2,1,-2,-1,-1,-1
59637918074,-1,0,0,2,3,0,0,-1
59637919678,0,-3,-5,-23,-7,-2,0,-1
59637919678,-3,-1,0,2,-2,-2,0,-1
59637940389,-2,-2,-1,-4,3,-2,1,-2
59637940389,-1,0,-1,0,-2,-1,-3,-3
59637946704,0,-3,-1,3,-2,-1,-1,-1
59637946704,3,1,-1,1,0,-1,-3,7
59637954283,-2,-5,-2,-7,0,0,1,-2
59637954283,2,5,0,12,0,-3,1,1
59637963227,-4,-2,0,0,-2,-1,0,-3
59637963227,-1,0,-2,3,-1,-1,0,1
59637978095,-4,-3,-1,-3,-3,0,-2,-1
59637978095,5,-1,-3,-1,0,-1,-1,-2
59637979683,1,-1,0,2,-1,-1,-1,2
59637979683,-1,1,0,-3,0,1,-2,-5
59638000648,-2,3,0,0,0,-2,-1,-1
59638000648,-3,-2,-1,4,0,0,-1,-3
59638002230,-1,1,-1,1,0,0,0,-1
59638002230,-3,-2,-1,-1,0,0,0,-2
59638014203,0,1,-1,1,-3,0,0,-3
59638014203,-1,0,-1,6,1,0,-1,0
59638023312,1,1,0,-1,0,0,0,-2
59638023312,-3,-1,-2,-3,-1,-1,-1,-3
59638038423,0,1,-1,-3,2,1,-3,1
59638038423,0,0,-1,-3,-1,-1,-2,1
59638039815,-2,-1,1,6,0,-1,-1,-2
59638039815,-1,1,-1,2,0,-1,0,-3
59638060602,1,-1,-2,1,-1,-1,0,0
59638060602,-5,-3,0,-5,-2,-2,-1,-1
59638062225,1,1,-2,-1,0,-1,-1,-3
59638062225,-7,-1,-2,0,-2,1,-1,2
59638074249,5,3,-2,-2,-1,-1,0,1
59638074249,-2,-2,0,-1,-2,-3,-1,-1
59638083258,0,-2,-4,-2,-2,-2,-1,-2
59638083258,-5,-3,1,2,1,-2,-1,-2
59638098186,-1,0,-2,1,-2,-3,0,-3
59638098186,0,0,-1,-2,-1,-3,0,-2
59638099813,-5,-2,-1,3,-1,-1,-3,0
59638099813,0,-3,-1,-2,-1,-2,-1,-1
59638120655,-3,-2,-3,-7,-4,0,-2,2
59638120655,3,5,0,0,1,-2,0,-1
59638122227,-4,-16,0,-3,0,-2,1,-1
59638122227,-2,1,-1,0,0,0,-1,-3
59638143064,4,1,-2,-1,-1,0,-1,-1
59638143064,-4,-1,0,0,-2,0,-2,-3
59638144689,1,3,-1,-4,-2,0,-2,-1
59638144689,0,0,-1,-2,-1,0,-2,-2
59638158053,-4,-5,0,0,-1,-2,-1,-4
59638158053,-2,-3,-3,-5,-1,-1,-1,-2
59638159692,0,3,0,-1,-2,1,-2,-1
59638159692,1,-2,1,-1,-2,-1,-1,0
59638180586,-2,-1,-1,2,0,0,-2,-3
59638180586,0,-3,-1,-7,-2,-1,-1,-1
59638182225,-3,1,-1,-1,-1,-3,0,0
59638182225,6,5,-2,1,-1,-3,0,0
59638203060,-3,1,-1,-2,-2,-2,-1,-2
59638203060,-2,-2,-2,5,-2,-1,-1,2
59638204690,0,-4,-1,-5,-2,-3,1,-1
59638204690,-3,-3,-2,-1,-3,-1,-3,-2
59638218128,0,2,-1,-4,-1,0,1,-3
59638218128,1,-1,-2,-2,0,0,1,0
59638219726,-2,2,-1,-2,-1,-2,-3,-1
59638219726,0,-2,-1,3,-2,-1,-3,-2
59638240566,-2,-3,-1,-2,-2,-3,-3,0
59638240566,2,-1,0,-1,-3,0,-2,-2
59638242185,1,0,-1,0,0,0,-2,-1
59638242185,-2,-1,1,-3,-1,0,0,0
59638263164,0,-4,-2,-3,0,-1,-2,1
59638263164,-4,-1,1,1,0,-1,0,-3
59638264812,-1,-1,-1,-2,-3,-1,-2,-1
59638264812,0,-2,-1,-2,-1,-1,0,-1
59638278318,-4,0,-2,-2,-2,-2,-1,0
59638278318,-2,0,-1,-1,0,0,-3,0
59638279787,-2,1,1,2,1,-1,-2,0
59638279787,-2,-3,-2,-5,0,-1,-2,-2
59638300813,-2,1,-3,-3,-2,-1,-2,-1
59638300813,4,0,-1,0,-1,0,0,-2
59638302191,-1,-1,0,2,-2,-1,0,-1
59638302191,2,2,0,-3,0,-1,-1,1
59638323220,-3,-5,-3,-9,-1,-1,-2,-2
59638323220,-3,-2,-2,1,-1,0,0,0
59638324765,0,-1,-1,8,3,0,1,-1
59638324765,-2,-3,0,21,0,-3,0,-1
59638337536,0,-3,-5,6,-6,-2,-1,2
59638337536,-1,-1,-4,-10,-2,-2,-4,-2
59638351854,1,1,1,-16,-3,-1,0,-2
59638351854,-2,1,-1,12,3,0,-1,-1
59638360846,-1,-3,0,0,-1,-2,-1,-4
59638360846,-5,-2,-2,5,0,-1,-1,-1
59638362312,-2,-1,-2,9,0,-1,-4,0
59638362312,-3,-2,-4,-19,-5,0,-1,-1
59638383117,0,2,1,3,0,0,-1,-3
59638383117,-2,-2,0,-5,-4,-2,2,0
59638384704,0,0,0,-6,0,0,0,-1
59638384704,-2,-2,-1,-5,0,-1,-3,-2
59638397479,-1,0,-2,-7,-1,0,-2,1
59638397479,2,1,1,6,0,-2,-2,-1
59638404301,-1,-2,-3,-4,-4,1,0,0
59638404301,1,-1,-1,-4,-2,-3,-1,0
59638420616,-3,-2,0,4,1,-2,-2,-2
59638420616,1,-2,1,-4,0,-1,-1,-1
59638422222,1,1,-2,2,0,-2,-2,-1
59638422222,-2,-1,-1,-4,-1,-1,0,-2
59638443290,-1,-2,0,-4,1,-2,0,0
59638443290,-2,-1,-2,0,-2,-1,1,0
59638444761,-1,-2,-2,-2,-1,-1,-2,-1
59638444761,-3,-2,1,-1,-1,0,0,-3
59638457645,2,0,1,-25,-2,-2,-1,0
59638457645,0,-14,-2,8,0,-1,-2,-1
59638464473,-2,1,-1,-1,1,-2,-1,-2
59638464473,-2,-2,-1,-7,-1,0,-1,-1
59638480849,-4,1,-1,14,0,1,0,-1
59638480849,0,1,-1,-14,-1,-1,-1,-2
59638482280,-1,-1,0,-2,-1,-2,-1,-1
59638482280,2,-1,0,10,-2,-2,-1,0
59638503103,-1,-1,-2,-8,0,-1,0,-1
59638503103,-1,4,-1,4,-1,-2,0,1
59638504658,-4,-4,0,-1,-2,-1,-1,0
59638504658,4,3,-2,-8,-1,-1,0,0
59638517627,-1,-3,0,4,-2,-1,-3,-2
59638517627,-2,0,1,-1,-1,0,-2,0
59638524467,1,-2,0,0,-2,0,0,-2
59638524467,-3,1,-1,-2,-2,0,-1,0
59638540746,0,1,-1,7,-1,0,-1,0
59638540746,-1,1,-2,-6,0,-1,-3,-1
59638542219,-1,1,-1,-9,-2,0,-1,0
59638542219,-1,-2,-1,0,-2,-2,-1,-1
59638563351,0,0,0,1,1,-1,0,-1
59638563351,-2,0,-1,3,1,-1,-2,-3
59638564783,-1,-1,-3,2,-1,-1,0,-2
59638564783,-1,-2,0,-3,-1,-2,0,-3
59638577533,0,0,-3,-1,-2,0,-3,0
59638577533,-2,0,-1,1,-1,-1,1,0
59638584508,1,3,0,-4,-2,-1,-3,-2
59638584508,-1,-2,-1,-1,-1,0,-2,-1
59638600824,0,0,-1,0,-2,-2,0,-1
59638600824,-1,-2,-1,-1,-2,-3,-2,0
59638602237,-2,-3,-2,-1,0,-1,-1,-2
59638602237,3,-1,0,1,0,-1,-2,-1
59638623163,-2,0,-2,-5,0,-1,0,-3
59638623163,-6,-5,-2,-3,-1,0,-1,0
59638624804,2,4,0,1,0,-1,-1,0
59638624804,0,1,-1,6,-1,-1,-2,-4
59638636783,-3,-4,1,-6,-1,-2,-2,-2
59638636783,-1,-1,-3,-6,-3,-1,-2,-1
59638645763,-3,-2,-2,1,0,-1,-1,0
59638645763,-1,-2,-4,-1,-2,1,0,0
59638660654,-2,-1,0,8,1,-1,0,1
59638660654,0,1,0,0,-4,-1,0,0
59638662259,-2,0,0,-2,-2,0,-1,-1
59638662259,-1,-1,-4,-2,0,-2,-2,0
59638683220,-1,-2,-1,3,0,-2,-1,0
59638683220,0,-1,0,-7,-2,-1,-2,0
59638684748,-1,-1,-2,1,-1,0,-1,0
59638684748,-2,-4,-1,-1,0,-2,0,-1
59638696723,-2,-2,-1,-4,-1,-1,-2,-3
59638696723,-1,0,-1,3,0,-1,-1,-3
59638705817,-1,-3,-1,3,-2,-1,0,0
59638705817,-3,-1,-1,-4,-1,-1,-3,-3
59638720712,1,-1,-2,-3,-1,1,-3,0
59638720712,-1,0,0,0,-2,-2,1,0
59638722252,-2,-1,-2,-2,0,-1,-2,0
59638722252,-3,0,-2,3,-1,-1,1,0
59638743360,3,-5,-5,-5,-2,-2,1,-1
59638743360,6,4,1,6,0,1,2,-2
59638744748,-2,-1,1,-3,-3,1,0,-3
59638744748,2,1,2,-4,-1,-1,1,2
59638757016,-2,-1,-5,3,0,-1,-1,0
59638757016,0,-1,-2,3,-2,-1,-1,-4
59638765708,0,-1,-3,1,0,-3,-2,-1
59638765708,-1,-1,-2,-1,-3,-1,-2,-2
59638780588,0,1,1,-4,-2,-2,-1,-2
59638780588,-2,-1,-1,-1,0,0,-1,0
59638782210,-2,0,-3,-1,-1,-2,-1,-2
59638782210,-2,-1,-1,-3,0,0,-1,-2
59638803362,-2,0,0,-3,-1,-1,-2,0
59638803362,-1,-1,-3,-2,-1,0,-2,-1
59638804744,0,-3,-1,-2,0,-3,-1,-1
59638804744,-1,-1,-2,-2,-2,-1,-1,0
59638817034,0,-1,-1,3,-1,-1,-1,-1
59638817034,-2,-2,-2,-2,0,-2,-1,0
59638825748,0,-2,-2,-1,-1,-1,0,0
59638825748,-1,-1,-1,-1,-1,-2,-2,-1
59638840818,0,0,-1,-4,-1,-1,-2,-3
59638840818,-3,-3,-3,0,-1,-2,0,0
59638842251,1,-1,-2,-3,-2,-1,-2,0
59638842251,2,0,0,-1,-1,0,0,-1
59638863338,-2,-3,0,0,0,0,0,-2
59638863338,-4,-1,1,-2,0,0,-1,0
59638864776,1,0,0,-4,-1,-1,-1,-2
59638864776,-3,-2,-1,-4,-4,1,-1,0
59638876943,0,-1,0,0,0,-2,0,-1
59638876943,-2,-1,-1,-2,-1,1,-2,-2
59638885800,-3,-2,-1,4,-1,1,0,0
59638885800,2,2,0,-5,-2,-1,-1,-1
59638900554,-3,0,0,-1,0,-1,-2,-2
59638900554,0,-1,-2,-1,-2,-2,0,-3
59638902158,-1,-3,1,-1,0,0,0,-2
59638902158,-7,-2,-2,-2,0,-1,-1,-3
59638923373,-1,0,-1,3,-3,-1,-1,1
59638923373,-2,1,-1,1,-2,0,0,0
59638924771,0,-2,-3,-1,-1,-2,-3,-2
59638924771,-3,-1,0,-3,0,-1,0,0
59638936724,-1,-1,-1,2,1,0,1,0
59638936724,-3,-2,-2,-7,-2,-1,-2,-2
59638945717,0,-2,-1,-2,-2,-1,-2,-1
59638945717,-1,-4,-2,1,0,-2,-3,-1
59638960543,-1,0,-1,-5,-1,1,0,1
59638960543,0,-1,0,5,-2,-3,0,-2
59638962199,-1,0,-1,3,0,-1,-1,-2
59638962199,2,-1,-2,-4,-1,-1,-2,-2
59638983073,-3,0,-1,-1,0,0,1,-2
59638983073,-1,2,-1,-25,-1,0,-1,0
59638984746,-6,-18,-3,17,-2,-1,1,-1
59638984746,1,1,-2,-4,-4,-4,0,0
59638996855,-2,-1,1,16,2,1,-1,-2
59638996855,-4,-1,-2,-11,1,0,0,0
59639005852,2,2,-5,-51,-14,-5,-4,0
59639005852,-3,-1,1,18,9,1,-2,-1
59639020556,0,-2,-3,-26,-8,-2,-4,-3
59639020556,5,-1,4,32,11,0,-1,-2
59639022184,-2,2,-4,-19,0,1,0,2
59639022184,-2,-4,-1,13,-1,-1,0,-2
59639043138,2,13,1,24,4,-1,2,0
59639043138,2,-7,-8,-36,-7,-3,-2,-1
59639044718,5,6,6,19,2,0,2,7
59639044718,-4,-4,-8,-29,-5,-1,0,-9
59639056926,3,2,2,12,2,1,-1,4
59639056926,0,-1,-3,-13,-5,-1,0,0
59639065726,-1,-1,0,12,1,1,-2,-1
59639065726,-1,2,1,1,0,2,-1,3
59639080580,-3,-8,-2,13,0,-13,-4,-3
59639080580,-3,-2,-4,-28,-11,2,1,-3
59639082173,-3,-1,1,15,-1,-8,-3,-6
59639082173,-1,0,0,13,0,4,1,2
59639103366,-2,-5,-5,-14,0,4,0,-3
59639103366,-2,0,3,14,3,-4,-3,1
59639104836,-5,-12,-4,4,-1,2,0,-3
59639104836,2,1,-2,-6,-2,-3,-2,-1
59639125813,-2,-2,0,0,-3,-4,-1,-1
59639125813,0,-2,-4,0,0,-2,-2,-4
59639127259,-2,3,1,-17,-1,0,0,-2
59639127259,-2,-4,-6,12,-3,-2,-2,-1
59639140819,-2,-2,3,13,1,-5,-4,-1
59639140819,-4,0,2,-52,-2,6,1,-1
59639142231,2,3,-3,29,-1,4,0,-1
59639142231,1,-3,1,-23,-7,-12,-1,0
59639163374,-4,1,-3,-4,-2,6,-1,-2
59639163374,-1,0,2,27,3,-5,-4,4
59639164784,-4,0,-7,11,3,-3,-3,-11
59639164784,4,16,2,-3,-2,4,1,-3
59639185768,-8,-11,-5,-19,-5,-3,4,3
59639185768,0,1,-2,24,2,1,-4,-5
59639187275,-8,-4,-2,-29,-1,0,3,6
59639187275,-2,-1,1,20,-1,-4,-2,-3
59639200035,4,1,1,-3,0,-3,-4,-2
59639200035,-11,-3,-4,-12,-3,5,1,-2
59639207078,2,0,-3,7,-1,-9,-3,-4
59639207078,-2,-4,1,-5,4,3,-3,-1
59639223103,-1,-1,-2,37,0,-6,1,-2
59639223103,-1,-6,-2,-79,-13,12,-2,2
59639224809,2,0,-2,10,2,-11,-1,-2
59639224809,0,-5,-2,-10,-4,-1,0,0
59639245875,-1,0,0,-1,-4,-5,-3,-1
59639245875,0,3,0,29,3,-3,-1,-2
59639247198,1,3,0,-14,1,10,0,2
59639247198,-10,-21,-2,-9,1,-5,-5,-1
59639259453,5,1,-1,-19,-5,6,-4,-7
59639259453,1,3,1,28,1,0,5,11
59639268349,-5,0,3,-4,-4,-11,-2,-5
59639268349,2,-3,-2,2,4,-5,2,-2
59639283144,0,0,-3,-28,-8,-2,-3,5
59639283144,-2,-5,-1,9,1,2,-1,-5
59639284671,-4,4,1,11,6,22,3,4
59639284671,1,2,3,-2,-5,-22,-5,-2
59639305714,-5,-2,-1,0,0,1,2,-2
59639305714,-5,7,-1,8,-5,-2,-5,-7
59639307266,-4,-18,-2,-8,-1,-6,-1,1
59639307266,1,0,0,-3,1,10,2,1
59639319311,-7,1,-1,-3,0,3,-3,-8
59639319311,8,1,0,18,0,-5,-3,7
59639328300,1,3,-1,-5,-5,-7,-9,-1
59639328300,-5,-1,-4,-1,2,23,3,-9
59639343401,3,-4,3,-5,-2,-25,1,13
59639343401,1,-1,-2,10,-1,-12,-3,0
59639344728,1,0,2,10,1,11,5,-6
59639344728,-1,1,0,1,-1,0,-3,-1
59639365882,2,2,-1,-4,6,18,5,-6
59639365882,-4,-2,1,16,3,-13,-6,-3
59639367295,3,2,-2,-15,-14,-11,0,3
59639367295,2,7,-3,-2,-2,-6,0,2
59639379445,-9,-13,-4,2,2,9,-3,-4
59639379445,-5,-3,-2,-15,3,-7,-10,0
59639388369,-2,0,3,1,-2,11,7,-4
59639388369,0,3,-5,-18,-6,-9,-1,-3
59639403335,0,2,-5,-3,2,13,-2,0
59639403335,-4,0,-1,0,0,-11,3,-1
59639404742,9,-2,-1,24,2,9,-1,-1
59639404742,-8,-5,-4,-8,-13,-30,-5,-3
59639425562,2,0,2,1,2,3,-1,-5
59639425562,5,-6,-1,-3,5,21,4,7
59639427156,0,1,-1,-1,2,-5,-1,-10
59639427156,2,4,2,7,-6,-8,-4,2
59639439469,-1,0,-2,0,5,-3,-5,2
59639439469,1,1,1,13,-7,9,3,-3
59639448367,-5,-5,-3,-13,-1,-7,-4,1
59639448367,-3,-1,0,2,0,9,-6,-2
59639463226,6,-2,-1,-21,-9,-10,9,7
59639463226,5,2,0,15,3,6,8,-3
59639464813,-1,3,-2,7,2,8,-4,2
59639464813,-2,-5,1,18,2,-20,-9,-2
59639485786,-3,1,0,5,-3,6,-4,-5
59639485786,0,-1,-2,-13,-8,1,4,-2
59639487242,-3,2,2,18,-1,-21,-5,-1
59639487242,-4,-18,-3,-24,1,18,2,2
59639499500,-1,-3,-3,-17,-4,-14,-4,-3
59639499500,-1,3,0,-21,-1,1,-5,-1
59639508267,-6,-2,-4,-14,0,15,2,2
59639508267,-3,-1,-2,6,0,-10,4,11
59639523303,5,6,1,3,0,-8,1,-5
59639523303,-13,-7,-3,9,-4,-2,-1,-3
59639524712,-2,1,1,-9,3,-6,-3,7
59639524712,0,1,0,-3,1,3,-8,0
59639545867,-4,-2,-2,-4,-7,8,12,-5
59639545867,-1,1,-1,9,7,3,-9,-5
59639547197,-7,-18,-5,-3,-1,-11,-2,-5
59639547197,5,5,3,3,5,16,3,-1
59639559228,-4,0,-1,10,-7,-5,-3,-2
59639559228,1,-4,3,23,-4,-23,-5,-6
59639574465,0,1,0,-53,-4,-1,5,4
59639574465,1,0,-1,2,3,1,-6,-17
59639583397,-4,-4,2,7,6,17,-6,7
59639583397,0,-1,-4,20,2,4,5,1
59639584813,-1,3,6,21,-2,-14,-11,-8
59639584813,0,1,-4,-36,-8,-10,9,9
59639605802,1,2,-1,9,3,13,3,-5
59639605802,-1,-3,-3,-11,5,8,-3,17
59639607217,-3,-12,-8,8,2,-9,-3,-34
59639607217,-15,1,2,15,4,10,-3,1
59639619227,-6,-3,-2,-25,-12,-15,1,-3
59639619227,1,-6,0,-4,0,-15,-3,6
59639628295,8,4,-3,7,-1,24,1,7
59639628295,2,-1,0,16,1,-9,0,-3
59639643293,-4,-1,-5,-14,1,0,-1,-1
59639643293,-3,4,1,-1,-7,-7,3,-9
59639644779,2,-1,-2,-1,1,8,-2,4
59639644779,5,1,0,1,-1,-10,-3,-2
59639665806,5,8,0,3,-1,12,-3,5
59639665806,0,-3,-1,-11,0,2,-3,-8
59639667221,0,4,-1,19,4,22,10,9
59639667221,0,-2,1,4,-2,-6,-2,-9
59639679485,-5,-1,-2,-3,0,0,-7,0
59639679485,3,2,-1,-21,0,-3,5,0
59639688339,-2,0,11,63,10,-2,-6,-7
59639688339,-1,-2,-19,-60,-11,4,0,5
59639703371,4,-4,6,14,2,-15,-2,-5
59639703371,6,-2,-2,17,7,10,-3,-3
59639704799,-3,8,6,-30,-2,-10,-9,-1
59639704799,1,-3,5,17,-6,5,15,8
59639725807,5,8,-4,-4,-3,-7,-8,-5
59639725807,-9,-4,-1,-13,-7,-20,-13,-49
59639727260,1,1,-4,6,11,10,10,27
59639727260,4,1,4,3,-1,14,0,-8
59639739256,-6,-1,0,-24,-7,9,7,2
59639739256,-5,-1,-2,-5,-7,-20,-9,1
59639748198,-5,-3,-3,-21,-14,-13,-17,-20
59639748198,0,-3,-8,13,8,8,13,18
59639763355,1,-4,3,10,4,9,6,7
59639763355,-3,-2,4,13,-9,-7,-2,3
59639764713,-1,-2,-2,-8,-1,-7,-1,7
59639764713,-5,-4,-8,-35,-9,1,-12,-5
59639793094,1,3,1,41,7,-6,-2,2
59639793094,1,4,4,-7,2,-9,6,14
59639794673,0,0,-5,-6,0,-1,1,15
59639794673,0,0,8,18,9,12,2,-1
59639799179,-6,-6,-6,-7,-3,4,1,-6
59639799179,-2,2,-1,0,-4,-17,-14,-11
59639808310,6,0,0,23,1,22,17,24
59639808310,-7,-2,-5,-2,-4,-26,-16,-37
59639822484,-2,-3,1,-18,1,-8,3,2
59639822484,-3,-5,-12,-10,-4,14,12,25
59639829202,0,1,6,26,2,-3,-4,-11
59639829202,-3,-5,-10,-64,-16,-5,3,10
59639845790,3,-5,-7,4,0,-8,-16,-7
59639845790,4,-2,-4,7,-4,3,3,-3
59639847241,-9,-4,-8,-58,-14,-5,2,-16
59639847241,-1,4,8,62,11,7,-11,-1
59639859513,-1,-2,-1,-6,-6,-4,2,1
59639859513,2,-1,1,-10,5,3,-2,5
59639868252,-2,-1,-2,-27,-2,-10,-8,-9
59639868252,2,0,2,17,-1,2,-2,-1
59639882701,-4,-5,-5,5,-5,-11,-3,-2
59639882701,-1,-1,1,38,7,-7,-5,5
59639889322,-4,-1,-7,-33,-9,16,5,-10
59639889322,-7,2,8,10,0,-20,-9,-28
59639905745,1,-2,0,19,4,-7,2,16
59639905745,0,-3,-5,-50,-5,11,-3,-2
59639907226,0,-4,1,21,0,-6,-4,-5
59639907226,3,-1,-4,-22,-3,14,3,-2
59639919432,4,-5,1,-4,-4,-4,0,-12
59639919432,-2,3,4,26,4,1,-1,-1
59639928305,-3,-2,-10,-37,-3,-11,-7,-11
59639928305,12,6,-1,21,3,8,12,22
59639941759,-5,3,6,-20,-2,1,6,-3
59639941759,-3,-5,-3,2,-1,2,3,10
59639950720,-4,-2,-3,-15,-15,-15,-12,7
59639950720,1,0,4,22,15,5,10,-26
59639965558,2,0,-1,1,9,2,-1,13
59639965558,-4,-1,1,-12,-6,10,5,-14
59639967148,-1,0,4,9,-4,-5,5,10
59639967148,-4,-3,1,3,4,-16,-6,14
59639979505,-1,-2,-8,-4,2,18,5,-9
59639979505,1,-1,3,-10,-1,20,-2,-33
59639988245,6,-1,1,16,-2,-43,-6,44
59639988245,16,-1,-2,-2,2,23,10,29
59640002438,-10,2,4,0,-4,-22,-16,-1
59640002438,10,9,-3,-2,2,11,3,7
59640009260,8,1,-3,6,6,16,15,-3
59640009260,3,4,6,2,-4,-10,4,7
59640025797,-5,-2,-2,1,1,11,-7,-7
59640025797,-5,-2,-2,-3,-12,-22,-4,-18
59640027189,-6,-3,-3,3,-8,-16,-15,-30
59640027189,-9,-3,-7,-9,15,13,-7,5
59640048220,0,-2,-5,-8,-6,5,-7,-39
59640048220,-14,-4,-5,9,3,-18,-25,-54
59640049704,13,2,7,-1,5,28,30,20
59640049704,-5,-1,-2,-11,-21,-16,-16,27
59640062622,-11,-18,0,6,7,-18,-9,-5
59640062622,-7,1,4,1,3,16,-6,0
59640069453,-4,-3,-2,1,0,1,-12,-26
59640069453,10,-1,-2,3,-1,14,-23,-59
59640093067,26,7,0,2,1,-18,-2,42
59640093067,11,-16,2,4,-2,4,25,105
59640094718,-1,-2,-4,1,4,4,-10,25
59640094718,-10,-6,-2,-6,-7,-2,12,-36
59640108350,-3,3,-2,-3,-5,5,-19,-15
59640108350,-9,1,2,3,6,-16,-3,4
59640109786,0,1,1,-6,-4,3,-8,-5
59640109786,-14,0,3,24,11,3,-6,13
59640122575,8,-3,-10,-14,-8,8,22,28
59640122575,3,6,-6,-4,-5,-11,-3,-11
59640129352,-4,-8,-3,-8,-4,11,4,-8
59640129352,-6,0,-3,-7,2,-25,23,28
59640145826,-21,4,1,4,1,-6,-34,-80
59640145826,4,12,4,-6,-11,-4,2,-40
59640147256,2,3,3,-1,2,14,4,-19
59640147256,-1,-6,-4,0,1,1,1,-12
59640168318,-15,-9,-5,-6,-2,7,-11,35
59640168318,-1,3,-4,-4,-1,-12,-8,-26
59640169734,10,0,-4,3,-3,-11,-2,22
59640169734,1,1,-5,-4,-6,2,20,66
59640181854,5,2,3,2,5,6,29,4
59640181854,-6,-4,-3,-11,-9,-14,-24,-39
59640198310,7,-6,-7,1,4,18,25,-16
59640198310,17,0,2,1,5,-9,-10,39
59640205652,3,-2,3,-3,-6,-7,12,12
59640205652,-2,-2,-5,-1,1,18,8,1
59640207281,-10,2,0,0,-6,-20,-17,-17
59640207281,4,-9,-7,-5,-6,-8,-10,-3
59640228122,-3,1,0,-3,5,29,11,4
59640228122,31,-8,-3,8,-1,-20,60,99
59640229732,11,11,10,2,8,0,-4,-28
59640229732,-7,-3,-3,-3,-9,5,-17,-52
59640241982,15,2,-2,0,-2,-10,22,73
59640241982,-14,-3,4,4,8,25,-23,-34
59640250783,-10,-10,-9,0,-8,-12,11,18
59640250783,9,4,6,-4,5,-16,8,15
59640265567,-12,0,-4,-2,-9,-3,-21,-38
59640265567,-7,0,-2,-2,0,10,4,-20
59640267155,-12,-4,0,1,3,-9,-15,27
59640267155,6,3,-2,-8,-13,5,-10,-32
59640297099,13,20,2,3,0,-18,-8,-19
59640297099,-10,-16,-4,-10,-7,2,0,6
59640298714,-9,-1,1,1,3,2,-20,-24
59640298714,1,-2,-5,1,-1,6,45,15
59640302581,-3,0,0,0,-2,4,-8,-24
59640302581,3,2,5,3,2,2,-6,8
59640309311,-5,-5,-11,-7,1,-5,17,1
59640309311,-14,1,1,1,0,-3,-20,-37
59640325617,-2,-6,-2,5,2,19,-3,7
59640325617,4,1,2,0,-2,-16,-5,25
59640327200,-2,-1,1,3,-6,-8,-7,-7
59640327200,-2,0,-1,0,-1,6,-16,-15
59640348085,-4,-3,0,-3,3,-1,2,-27
59640348085,-5,-3,-5,-5,-9,-6,-21,-15
59640349673,1,3,-1,3,2,-6,-8,5
59640349673,-6,-3,0,0,6,-1,0,-19
59640362438,-3,-3,2,-2,-4,-5,-5,-24
59640362438,-8,-13,-5,-3,0,-3,-1,-6
59640369194,11,-4,-2,-3,0,4,9,33
59640369194,-8,0,2,-4,-7,-1,-10,-23
59640385581,0,-6,-3,0,-1,-10,7,18
59640385581,2,3,-2,-3,4,1,-6,-20
59640387145,-5,1,3,3,2,5,5,-12
59640387145,11,-2,-3,-1,-1,7,4,59
59640408128,-2,-1,-4,-3,-7,-10,3,-24
59640408128,3,3,-3,-10,0,-5,-2,-5
59640409750,-1,2,4,3,-3,-5,-17,-17
59640409750,0,1,-3,-2,2,5,22,13
59640422453,-8,-3,3,6,1,-4,-11,-24
59640422453,2,2,-6,-2,-3,0,-6,-10
59640429249,-5,-2,-3,0,1,-3,-1,5
59640429249,-4,-15,-3,-5,-4,-5,-13,-6
59640445691,0,-1,-4,-6,2,9,5,19
59640445691,-2,2,1,11,1,-5,0,-4
59640447234,1,0,-2,-5,-2,-3,2,13
59640447234,-4,3,4,14,-1,-1,-8,-7
59640468072,0,-5,-9,-12,-2,1,8,16
59640468072,2,1,-1,-2,7,12,14,13
59640469658,-3,-2,-3,7,-6,-8,-3,-18
59640469658,-4,1,0,1,-3,-4,-4,-12
59640482335,-2,-4,-6,-22,-9,-6,-6,2
59640482335,2,1,-2,24,0,-6,-7,6
59640496873,-1,0,2,-13,1,-2,7,-2
59640496873,-1,1,0,13,3,2,-1,-4
59640505797,2,1,4,24,4,4,2,10
59640505797,-5,-1,-3,-31,-11,-4,-11,-10
59640507257,-3,-4,-4,5,1,-2,-4,-7
59640507257,-1,-2,1,-14,-6,-8,0,25
59640528074,0,-1,2,13,7,1,0,3
59640528074,-3,-2,-5,0,-1,11,3,-3
59640529664,-1,-1,4,7,-10,-7,0,-5
59640529664,-2,-1,-1,1,6,10,-4,4
59640541722,-2,1,0,-19,-16,-14,-5,-5
59640541722,0,-3,-6,10,4,7,7,9
59640550765,-2,1,0,16,4,-2,-2,3
59640550765,-3,-2,-8,-25,-15,-11,-8,-10
59640565805,0,0,-4,-17,-4,-2,1,-1
59640565805,-1,-1,6,12,7,1,2,-2
59640567237,-2,-1,-4,-9,-5,5,-3,-6
59640567237,-4,-1,-4,6,2,-11,0,-9
59640588340,-2,-1,-4,1,2,-3,-5,1
59640588340,-1,-1,3,-8,-4,-2,13,9
59640589760,-3,-3,-6,-11,-3,0,-6,-8
59640589760,-2,3,1,-2,0,11,9,0
59640601758,-1,-4,-2,12,2,-7,-3,1
59640601758,1,0,2,2,3,3,-3,-4
59640610670,0,0,-1,-29,-11,-11,-5,-4
59640610670,-2,-3,-1,7,9,12,0,-4
59640625640,2,2,3,-1,-9,-16,-4,4
59640625640,1,0,0,-6,0,3,3,-1
59640627202,-3,-2,-3,2,-1,-2,-3,-8
59640627202,-2,0,0,0,1,8,1,-2
59640648324,0,-1,1,4,4,-6,-2,0
59640648324,-3,-1,1,-21,-7,-7,-3,-5
59640649726,1,1,3,0,1,2,1,4
59640649726,-2,0,-1,1,4,19,-1,-5
59640661956,-2,6,0,1,1,-9,0,-2
59640661956,0,0,-5,-4,-3,-3,-1,2
59640670828,-3,-2,-2,-2,-3,-5,3,-17
59640670828,0,-1,2,10,3,-5,-4,-4
59640685748,1,-1,-2,-4,-3,6,0,-1
59640685748,3,-1,-3,4,0,9,-8,0
59640687206,-2,-1,3,6,2,-11,4,-7
59640687206,3,3,-3,-4,-7,-12,2,0
59640708194,-3,-4,0,-9,7,12,1,-1
59640708194,-2,-1,1,1,-6,-5,-3,-3
59640709705,-4,-4,2,3,-2,-2,-12,-28
59640709705,4,0,-3,-4,-2,-13,2,20
59640721768,-3,-4,-7,5,1,10,-1,-11
59640721768,-2,-4,-2,5,1,2,7,6
59640730791,-4,-9,0,-2,1,6,0,1
59640730791,-4,-1,1,-10,-9,-20,-11,-4
59640745715,-7,-3,-1,3,-9,3,-3,-1
59640745715,-2,-1,-3,-1,4,-13,1,-2
59640747193,6,3,-2,11,6,16,1,8
59640747193,-2,-2,-6,-9,-5,-7,0,1
59640768132,-3,-3,-1,-5,3,8,-1,6
59640768132,-2,0,-4,-8,-6,-5,5,-5
59640774419,-2,0,-2,6,0,-10,-6,13
59640774419,-2,-4,-2,0,6,17,2,-11
59640781769,2,2,0,-3,0,-3,7,0
59640781769,-3,-1,4,-1,-4,-13,-5,-3
59640790682,-1,0,-2,-8,-3,0,-1,12
59640790682,-2,-2,2,17,1,3,-7,-5
59640805052,-1,-1,-1,-7,-3,-6,3,5
59640805052,0,-1,1,7,0,5,-2,-1
59640812002,-4,-1,-3,-23,-2,0,0,0
59640812002,-4,0,-2,-1,-2,-8,-1,-1
59640828061,2,-1,0,-1,3,-1,1,1
59640828061,1,7,0,3,-2,0,-2,-1
59640829686,-3,0,-4,-6,-1,5,0,-1
59640829686,-2,2,-1,1,-3,-6,7,15
59640841757,7,-1,3,-1,7,1,3,-20
59640841757,0,-1,-3,-6,1,12,-1,5
59640850772,-5,-2,-1,5,-4,-5,0,-7
59640850772,-2,-3,-3,-12,-2,5,-6,-8
59640864911,4,2,0,9,-4,-36,2,13
59640864911,-4,-2,-1,15,5,23,-3,-5
59640871724,2,-2,-2,-35,-1,-5,2,6
59640871724,1,-3,1,8,-2,2,1,-7
59640888253,-3,-2,-3,0,-8,-2,-7,3
59640888253,-2,-4,0,1,5,-2,-3,-2
59640889716,3,3,2,8,2,6,4,14
59640889716,0,0,0,-5,-1,-1,-7,-7
59640901808,-2,-4,-2,-6,-6,2,-1,-1
59640901808,-5,-4,-1,3,-3,-12,-7,-6
59640910763,0,1,2,9,3,-2,3,3
59640910763,-2,-3,-5,-1,3,18,0,-6
59640925156,0,3,0,5,0,-3,-3,-3
59640925156,-3,-16,-3,-11,-5,-12,-7,0
59640931956,-2,-1,-2,12,3,10,10,-1
59640931956,4,1,-5,-8,-5,-24,-7,-6
59640948107,-6,-3,-2,-1,2,30,-2,0
59640948107,1,4,-1,-9,-4,-34,2,0
59640949691,-1,0,-1,3,3,4,-4,-2
59640949691,-3,-3,2,-1,-4,9,1,-8
59640961742,-2,-2,-1,0,-6,-11,-8,-7
59640961742,0,1,-3,-7,-2,5,0,26
59640970763,0,-1,1,8,2,5,1,-8
59640970763,-2,3,1,0,-1,-10,0,-2
59640984932,4,-2,-1,-1,1,3,2,10
59640984932,-3,0,-1,-7,-4,3,-2,-17
59640991720,0,-1,-3,-9,-1,-5,-4,-1
59640991720,-1,-3,-3,-6,-4,-1,-5,1
59641008064,-9,-13,-4,-6,-3,-10,-3,5
59641008064,1,0,1,9,4,5,-1,-8
59641009700,-3,-2,-6,-5,-2,8,2,-1
59641009700,0,-1,1,5,-1,-2,-1,-1
59641030545,-2,1,2,0,-5,-22,-5,-9
59641030545,0,-1,-3,0,1,17,2,0
59641032189,-1,-3,-1,3,-2,-11,-9,-6
59641032189,2,0,0,-13,-1,-2,5,10
59641044650,0,1,-1,5,6,12,2,1
59641044650,9,4,2,1,2,2,0,-3
59641053176,-1,2,0,-2,-6,-4,-1,6
59641053176,-2,-2,0,7,-2,0,-3,-2
59641068056,-5,-1,-2,-9,-3,-1,-6,-8
59641068056,-3,0,-1,-2,-4,-21,5,-1
59641069637,6,12,3,5,7,12,-3,-3
59641069637,0,-3,-2,-4,1,-4,1,-1
59641090646,-2,0,0,-1,1,10,3,-1
59641090646,-4,0,1,10,-4,-1,-5,-3
59641092176,4,-2,-4,-7,-3,-12,-1,41
59641092176,-1,-2,1,21,-3,-3,0,-10
59641104322,10,0,-4,-13,-1,0,-7,-3
59641104322,-10,6,2,5,1,5,6,5
59641113267,-2,-4,-1,2,2,-5,-3,-1
59641113267,0,-4,-3,-14,0,0,-3,-2
59641128348,-4,-3,-2,7,-2,-3,-2,-4
59641128348,2,-3,-3,-7,-4,-1,-3,5
59641129742,-1,-4,-1,3,-6,-1,-4,-15
59641129742,-4,6,-1,-5,0,-7,-2,1
59641150645,-7,-9,3,1,0,-1,1,-8
59641150645,-6,-4,-6,-9,-2,3,-2,-9
59641152220,-1,-1,1,-2,-1,-4,0,3
59641152220,4,2,-1,2,-1,-1,0,0
59641164246,-12,1,-1,2,-2,1,0,6
59641164246,9,-4,-1,-6,0,0,0,3
59641173220,11,2,1,4,2,-1,1,-5
59641173220,-3,-2,1,-9,-6,-1,-3,1
59641189548,2,2,-1,-2,-5,-1,-1,-1
59641189548,-1,-4,1,-2,0,-2,-3,0
59641191217,-2,3,-5,-2,-5,-5,-4,-9
59641191217,-1,-4,-1,4,7,2,2,2
59641210793,1,2,-2,-4,-1,-2,1,0
59641210793,-7,-20,-1,1,5,0,-2,-5
59641212224,-6,-5,-2,-2,-1,1,-2,-3
59641212224,1,1,-1,-5,-6,-1,-1,2
59641224482,0,-2,0,1,0,1,-2,-1
59641224482,13,6,-1,0,-1,-1,1,2
59641233223,-10,-3,3,2,2,1,-1,-2
59641233223,1,-10,-5,-5,-1,-3,-3,9
59641248267,14,9,2,4,1,2,5,-13
59641248267,3,6,-2,-6,-2,-1,-4,-6
59641249688,-5,-4,-2,5,-5,-3,-2,-2
59641249688,5,10,0,-3,0,0,0,-3
59641270696,2,-2,-2,-4,0,-1,-1,7
59641270696,-6,3,-1,5,-1,-1,-4,-5
59641272243,-3,-3,-2,0,-2,-4,-1,-5
59641272243,0,1,0,-3,2,-1,-1,-6
59641284307,-5,-1,-3,0,0,1,0,-1
59641284307,-5,-1,-1,-5,-2,-2,2,0
59641293276,4,1,0,-4,-4,-3,-5,-6
59641293276,-2,-6,-1,1,0,-1,-3,2
59641308294,-21,-5,-4,-2,0,-3,-3,-3
59641308294,-1,5,2,-7,-3,-1,-1,5
59641309722,-5,-28,-3,0,0,0,-1,-2
59641309722,-10,-18,-3,0,-1,-2,-2,-6
59641330704,5,-2,-3,-4,1,0,0,2
59641330704,-4,-2,-2,-2,-3,-1,-3,2
59641332234,-1,6,0,-2,0,-2,-3,-7
59641332234,-1,1,0,1,-2,-2,1,-4
59641344353,0,2,0,4,-2,-1,-2,3
59641344353,6,1,-1,6,-1,0,0,8
59641353226,-5,4,1,-5,-3,1,1,-15
59641353226,0,1,-2,3,0,-1,0,0
59641368330,-10,8,-2,-1,-2,0,-3,0
59641368330,-1,-6,-1,-7,-3,-3,-3,-4
59641369751,7,-1,-3,-5,0,0,-3,8
59641369751,-10,-1,0,-1,0,-2,-1,1
59641390630,4,-2,2,1,2,1,0,-2
59641390630,-10,1,2,23,3,-1,2,0
59641392275,8,9,0,-21,-9,-1,1,5
59641392275,-14,-10,-4,-25,-3,-1,-1,-3
59641404315,5,2,-1,1,1,-2,-2,3
59641404315,-3,-5,0,6,-1,-1,0,-11
59641413301,4,4,0,5,2,0,-2,-2
59641413301,9,18,0,4,-1,-2,-1,2
59641428246,2,-6,-1,-1,-3,-3,-1,-1
59641428246,-7,0,-2,-7,-2,-1,-1,-9
59641429751,-17,-2,-1,6,-1,-2,0,2
59641429751,7,6,-2,3,-4,-2,-2,-5
59641450631,4,-13,-3,-10,0,-2,-2,5
59641450631,3,5,-1,26,1,0,-4,2
59641452231,-4,0,-1,-25,-6,-1,-1,4
59641452231,-3,-9,0,16,1,-2,-1,1
59641464436,3,7,2,10,2,0,-2,-7
59641464436,3,-6,-3,-22,-3,-1,-3,2
59641473281,11,-6,-2,16,4,0,0,0
59641473281,2,10,3,7,-1,1,1,-1
59641488184,-13,-20,-1,6,-3,1,2,-9
59641488184,9,0,-2,5,-2,-1,0,-6
59641489867,-4,1,0,-1,1,0,-2,0
59641489867,-14,-7,-4,7,-4,-3,-1,-5
59641510588,0,4,0,7,-1,-1,0,-3
59641510588,6,-2,-4,-31,-6,0,0,12
59641512183,8,-4,-2,14,1,-2,-2,-6
59641512183,-2,-3,-3,-15,-1,0,-3,0
59641533111,-3,-13,-1,10,1,0,-1,-2
59641533111,-4,0,1,14,4,-1,-1,-3
59641534724,1,1,-3,-24,-11,-1,-1,2
59641534724,2,-3,0,-8,2,-1,-2,8
59641548144,-1,-3,-2,0,-5,-3,-3,1
59641548144,17,-1,-3,1,0,-3,-1,5
59641549891,-7,-3,0,9,2,1,3,-1
59641549891,-5,4,-15,-2,-3,-1,-2,-8
59641570590,4,4,18,0,-2,1,1,2
59641570590,-7,-25,1,-11,-3,-4,-1,37
59641572192,-23,-1,-1,-2,0,-2,-2,-18
59641572192,8,9,-1,4,1,1,2,-39
59641584298,8,2,-3,-12,-1,-1,-1,15
59641584298,-34,-11,-4,4,-1,0,-2,-10
59641593294,14,-10,0,-18,-5,-6,-3,1
59641593294,2,1,5,-2,3,-1,-2,11
59641608247,-7,3,-6,-8,-1,-1,-2,0
59641608247,28,9,0,-4,-2,0,0,26
59641609721,-18,-9,-4,6,-1,-1,-1,-12
59641609721,-1,-4,1,-1,0,1,-1,1
59641630764,-13,0,-3,-2,-2,-2,0,21
59641630764,-12,10,0,-3,-2,0,-3,-9
59641632243,-5,4,-3,5,2,-1,-2,-2
59641632243,7,-5,1,2,-1,-1,0,-5
59641644280,3,3,0,-12,0,1,-1,2
59641644280,4,4,-5,-10,-6,-3,-1,15
59641653172,-10,5,3,19,1,2,1,-26
59641653172,-14,-2,3,0,-1,-3,-2,1
59641668109,0,1,-4,3,0,-3,-2,-8
59641668109,-4,-4,-2,-2,0,-1,-2,-11
59641669708,-3,-6,-3,-7,-4,-2,-5,7
59641669708,-11,-7,0,3,-2,-1,-1,-11
59641690839,7,10,2,4,3,0,2,-4
59641690839,-17,-9,4,-31,-7,0,-1,-16
59641692269,18,1,-2,18,2,0,-1,12
59641692269,16,-8,-3,3,-3,-1,2,-6
59641704439,6,4,-1,-5,-5,-3,-2,-13
59641704439,-5,-6,-1,11,3,0,-2,-30
59641713219,-2,3,0,2,3,0,1,8
59641713219,4,-1,-4,-8,-2,0,-2,0
59641727473,28,-1,-4,2,-1,0,-1,11
59641727473,6,-1,-4,6,0,0,3,6
59641734396,-7,1,3,-5,-1,-1,-1,-8
59641734396,-6,-4,-2,3,-1,-1,-2,11
59641750637,5,-3,-2,-8,-1,0,-1,10
59641750637,-1,8,2,-2,0,-1,1,-17
59641752135,-13,-16,-1,0,0,0,0,-7
59641752135,-3,-2,1,-6,-3,-2,0,14
59641764524,-11,-1,-3,-2,-2,-2,-2,-11
59641764524,8,1,-1,-2,0,-2,-3,-2
59641773328,13,8,0,3,1,-2,0,8
59641773328,-26,-8,2,0,-1,-2,-1,-30
59641787537,-5,-18,-8,-4,-3,-1,-2,6
59641787537,16,6,-1,5,0,-1,2,0
59641794474,3,9,-2,-4,-2,0,-1,0
59641794474,11,4,-1,-4,0,-2,0,25
59641810727,-15,3,2,1,-1,-1,3,-8
59641810727,-8,-1,-3,0,-1,-2,-2,-9
59641812240,-11,-10,-4,-4,0,-1,-1,-4
59641812240,26,10,-2,-2,-2,-3,-3,4
59641833178,-6,-1,1,-2,-1,-2,-3,-2
59641833178,-6,14,0,0,-2,-1,-1,-11
59641834697,-5,-3,-1,-3,-3,-1,0,25
59641834697,-14,2,-3,-3,0,1,-1,-3
59641847411,-9,-3,-2,-2,-2,0,0,-15
59641847411,-3,6,0,5,1,-2,-1,3
59641854285,7,0,-2,-11,-4,-1,-3,-9
59641854285,2,-7,-3,3,-4,-1,-2,1
59641870643,-1,4,-2,-3,0,-1,-1,6
59641870643,-3,-3,-2,-3,-1,-1,-2,-17
59641872430,0,-1,-2,3,0,-1,-1,-3
59641872430,2,-4,1,-4,0,-1,0,7
59641884235,-9,-1,-1,1,-1,-1,1,-19
59641884235,-14,-3,-3,-5,-2,-2,-1,10
59641893295,0,1,1,-1,-1,-2,0,3
59641893295,10,-2,-1,-4,-4,0,-1,0
59641908106,-5,-21,-2,0,-2,-1,-3,-2
59641908106,14,0,-1,-2,-1,-2,-4,3
59641909722,-3,1,-2,-3,-3,0,0,-9
59641909722,-7,-7,0,0,1,0,0,6
59641938175,2,6,0,-2,1,0,1,-4
59641938175,-11,-11,-4,-2,-1,-1,-3,-23
59641939764,4,1,1,1,-1,-1,-1,-24
59641939764,0,-11,-3,-3,-1,-2,-2,16
59641953289,9,9,1,0,-2,0,-1,-1
59641953289,-6,0,-1,-2,-2,0,-1,4
59641954744,12,-16,-5,-1,0,-3,0,-18
59641954744,5,10,-2,-2,-3,-1,-2,-9
59641968281,-5,-11,-1,-4,0,-1,-1,3
59641968281,2,-3,0,2,0,-1,0,13
59641969740,4,8,0,2,0,0,1,22
59641969740,5,6,-2,0,0,0,0,10
59641990666,-3,-5,-3,-2,-3,-1,-3,-9
59641990666,6,0,1,1,-2,0,-1,6
59641992215,-5,-4,-1,-1,-3,-3,-1,8
59641992215,-6,-3,-1,-3,-2,-1,-2,6
59642013194,-5,9,1,1,0,-1,-1,-24
59642013194,-5,-4,0,-2,0,-1,-2,-6
59642015678,10,13,0,0,-1,-1,0,8
59642015678,-4,5,2,1,1,0,-2,19
59642035814,11,-18,-2,-2,-1,-1,0,-3
59642035814,3,3,0,-2,-2,-2,2,6
59642037212,-10,-8,-5,-3,-3,-5,-2,6
59642037212,-13,5,4,-3,0,-2,-2,-20
59642050557,2,2,-2,1,0,-4,-4,12
59642050557,-1,0,-3,-2,-3,0,-2,-28
59642052158,2,0,-2,-3,-1,1,-2,24
59642052158,-2,-3,0,-1,0,-1,1,-16
59642073332,-5,3,-3,-2,-2,-2,-2,4
59642073332,5,0,-2,-1,-1,-2,-2,12
59642074751,-3,1,0,-2,-2,-1,-2,-9
59642074751,-13,-8,-6,0,-1,0,-3,-6
59642087460,-7,-2,0,-2,0,0,0,-14
59642087460,3,-2,-1,-1,-2,-4,0,12
59642094497,-2,9,0,1,2,-1,0,-6
59642094497,25,1,0,-2,0,-1,0,20
59642110788,-2,7,0,-1,-1,1,2,-21
59642110788,-6,-6,-4,-1,-1,0,-2,18
59642112253,-11,-5,-1,1,0,0,0,-1
59642112253,6,-1,-2,0,-2,0,-4,-24
59642140811,3,6,-2,1,0,-1,-1,7
59642140811,4,0,1,-1,-1,1,-1,1
59642142258,1,0,0,-2,-3,-1,0,-3
59642142258,-7,-2,-1,1,1,0,-1,-1
59642147493,3,13,2,3,-2,-1,1,22
59642147493,-8,-25,-5,-4,-3,0,2,-2
59642154350,-6,-4,-3,0,-1,1,-1,-13
59642154350,9,10,3,1,-1,0,1,-11
59642170807,-3,-15,-6,-5,-2,0,-2,8
59642170807,14,8,1,0,-1,-1,-2,9
59642172213,0,7,1,3,1,-1,-2,0
59642172213,6,-2,-4,-5,-2,-4,-1,5
59642193046,-3,2,-1,-2,-1,-1,-1,-6
59642193046,-3,0,-1,2,2,-1,-1,0
59642194726,19,-6,-5,-3,-2,-2,-2,26
59642194726,-4,-3,3,0,0,-1,0,-6
59642207545,3,3,0,-1,-3,0,-3,4
59642207545,-15,-3,-1,-3,-2,-2,-1,-5
59642214444,4,1,-4,-4,-1,0,0,-1
59642214444,-7,-5,-2,-1,-2,0,-2,3
59642238124,-10,-2,-2,0,-3,1,0,-17
59642238124,-4,1,2,3,1,0,-2,-6
59642239691,-2,-3,-2,-2,-1,-2,-1,2
59642239691,-5,-3,-2,0,0,-1,0,-9
59642253065,3,-3,-2,-2,-3,-2,-2,1
59642253065,4,3,-3,-3,0,1,-2,-9
59642254655,-14,1,1,-1,-1,-2,-1,-11
59642254655,-8,-9,-2,-4,-3,-1,-2,1
59642267487,17,5,-2,-1,-2,-2,-2,18
59642267487,-7,2,1,0,-3,-3,-1,-14
59642274468,-1,-3,1,-2,-2,-1,-1,2
59642274468,-4,-10,-4,-1,-1,-1,-2,18
59642290734,-15,-1,0,0,0,-1,0,-20
59642290734,-2,0,0,-2,0,-2,-2,6
59642292240,16,1,-2,-1,0,1,-2,-3
59642292240,6,6,0,0,-1,-1,-1,-4
59642313296,0,-2,-1,0,-1,-2,-2,4
59642313296,6,1,-1,-4,-1,-1,-2,0
59642314740,-4,1,-3,-1,-1,-2,0,-12
59642314740,9,-12,-1,-1,-1,0,0,25
59642327426,-4,0,1,0,0,0,-2,-3
59642327426,0,1,-3,-2,-3,-1,-2,-7
59642342003,5,5,4,2,0,1,-1,6
59642342003,-5,5,-2,1,0,-1,0,-7
59642350554,-5,-6,-4,-6,-3,-2,-3,-14
59642350554,-2,-1,2,-2,0,0,1,2
59642352182,-4,-9,-2,-3,-2,-2,-1,-1
59642352182,-6,5,-1,-1,-2,0,-1,-5
59642373108,2,1,-2,-1,0,0,-1,5
59642373108,-7,0,-3,1,-1,-1,-3,-14
59642374667,3,-4,-2,-2,-2,-1,-2,-1
59642374667,1,2,1,-2,-1,-2,-2,-3
59642387403,0,-1,0,0,0,-2,1,5
59642387403,-3,-2,-3,1,1,-2,-2,-1
59642394196,-6,-5,-1,-2,-4,-1,-3,-1
59642394196,-7,-3,-3,-2,-3,-3,-2,-11
59642410519,1,-15,-1,0,-3,0,-2,6
59642410519,-1,-1,0,-1,-2,-2,0,-16
59642412153,-3,-3,-2,-2,0,-2,-3,16
59642412153,5,-2,-4,-5,-3,0,-4,-6
59642440556,-9,8,4,2,-2,-2,-1,-4
59642440556,7,2,-2,-1,-5,0,-1,17
59642442159,-8,-6,-2,0,-1,-3,-1,-4
59642442159,-2,2,2,-2,-1,0,-2,-6
59642446683,0,2,-4,-1,-1,-3,-1,3
59642446683,3,-3,0,-2,-1,-3,-2,6
59642456336,-1,3,1,1,-1,2,-1,-6
59642456336,4,12,0,1,-1,-1,0,3
59642469845,-5,-3,-2,-2,-2,0,0,-6
59642469845,-10,1,0,0,-1,-2,1,0
59642470658,8,0,0,-3,-3,-2,-1,14
59642470658,-3,1,-3,-2,-3,-1,0,-17
59642492371,-7,-6,-3,-2,0,0,-3,-26
59642492371,1,3,1,-2,-1,0,-2,2
59642493144,-1,-4,-1,0,1,1,1,-1
59642493144,-19,-1,-3,0,0,0,-1,1
59642515565,1,-1,-1,-3,-1,-1,0,4
59642515565,-4,-4,-2,-1,0,0,0,-1
59642516372,3,14,0,0,-2,-3,0,-8
59642516372,-4,-7,2,3,0,1,0,-4
59642529942,1,2,1,-2,-2,-2,-1,8
59642529942,5,-1,-1,-2,-1,0,-1,0
59642530674,-6,-4,-3,-2,-1,-2,-1,-2
59642530674,-1,-6,-3,-1,-1,0,-1,0
59642552524,17,1,0,0,0,-1,-1,14
59642552524,0,-2,0,0,-1,-2,-2,11
59642553251,-5,0,-4,-3,0,0,-2,-19
59642553251,-1,-2,0,0,0,-2,2,-3
59642575473,3,-5,-3,-2,0,1,0,13
59642575473,2,9,0,-1,-1,-1,-1,17
59642576363,3,-2,-1,1,-2,-1,-1,-1
59642576363,-1,-3,-1,0,-1,-2,-1,14
59642589934,-4,3,0,0,0,0,-1,-12
59642589934,-2,-4,-2,-2,-3,-1,-1,-3
59642590597,2,16,0,1,0,-1,-1,0
59642590597,13,4,0,-3,-1,-1,1,0
59642612465,-3,0,-1,-2,-2,-2,-2,5
59642612465,0,0,-1,0,1,-2,-2,-7
59642613184,-2,-2,-2,-4,-2,-2,-1,1
59642613184,-13,-5,-1,-2,0,-1,0,-21
59642635584,-1,0,-4,-2,-1,-1,-2,1
59642635584,-6,-1,-1,2,1,-1,-1,-3
59642636351,-7,-11,0,-3,-3,-1,-3,-6
59642636351,2,-1,-2,0,-1,-2,-2,3
59642650016,-4,-2,-1,-1,0,0,0,-4
59642650016,-4,-5,-4,-1,-1,-2,-2,-5
59642650669,-1,-3,2,-2,-1,-1,0,5
59642650669,-5,-5,-2,-2,-3,-1,-3,-26
59642672335,6,7,-2,-1,0,-2,-1,6
59642672335,4,-3,0,0,-1,1,0,-20
59642673179,24,6,2,3,1,-2,-1,15
59642673179,-6,-1,1,-1,1,0,-1,2
59642695533,8,-2,-2,-3,-1,-2,-3,4
59642695533,-19,3,-1,-2,0,-2,-3,-16
59642696340,-9,-12,-2,-3,-1,-2,-2,-2
59642696340,6,3,-1,0,-1,-3,0,7
59642709855,2,1,1,-1,-1,0,0,-1
59642709855,-3,-20,-2,-3,-2,-2,2,8
59642710644,-4,0,-1,0,0,2,1,-4
59642710644,-3,-1,-1,-1,-1,-2,-1,4
59642732348,-6,-6,-1,0,0,-2,0,-5
59642732348,-3,-15,-1,-2,0,-2,0,-2
59642733110,-4,-4,-2,-3,-3,-3,0,-6
59642733110,16,6,1,0,0,-1,0,9
59642755536,3,-4,-1,1,-2,0,-3,31
59642755536,-2,5,2,-2,-2,1,1,-10
59642756334,-7,-6,-3,0,-1,-1,-1,-5
59642756334,-7,-2,0,1,0,1,-1,1
59642769938,6,2,-3,-5,-1,-1,-3,-4
59642769938,13,5,-1,0,-1,-2,-1,13
59642770716,-6,-6,-3,-2,-3,-2,-2,-12
59642770716,-2,-2,-2,-3,-1,-1,-2,1
59642792414,-2,11,-2,0,0,-2,0,5
59642792414,-4,10,0,-2,-2,0,-4,-2
59642793186,-2,-7,-3,1,0,1,-1,-5
59642793186,-2,0,-1,-2,-3,-2,-2,0
59642815501,0,9,0,0,0,-1,-1,-12
59642815501,5,6,1,-2,-2,0,-1,8
59642816358,-3,2,-2,1,3,-1,-2,3
59642816358,-5,-5,-4,-3,-3,-1,-2,-6
59642829831,-6,-6,-1,-4,-3,0,-2,-9
59642829831,-5,-3,-4,-1,0,0,0,-6
59642830656,-6,-2,0,0,0,-1,0,0
59642830656,-2,-3,-1,-1,0,-3,1,2
59642852760,0,2,1,-1,1,-2,0,-10
59642852760,-1,-4,-3,-2,0,-1,-1,-8
59642859688,11,-1,-3,-4,-1,-1,-1,4
59642859688,-1,-10,-1,0,-1,0,1,0
59642875532,-2,-2,0,-2,-2,-4,0,7
59642875532,-4,-3,-2,0,-1,-1,0,-12
59642876312,-4,-1,-2,-1,-1,-1,-2,3
59642876312,-2,9,0,-1,0,-1,-1,-3
59642889842,-3,-7,-2,0,-3,0,-1,-12
59642889842,4,-3,-3,0,-1,-1,-1,29
59642890650,-2,0,-3,-1,1,1,0,4
59642890650,-2,1,0,-1,0,-2,-1,-2
59642912343,-1,-4,1,0,0,-2,-1,-3
59642912343,-9,4,-2,-3,-1,-1,-2,-10
59642913139,0,0,2,1,0,-3,-1,2
59642913139,-6,4,-3,-5,-2,-1,-4,-11
59642935555,-4,-4,-1,-2,0,0,1,0
59642935555,-1,-4,-3,-1,-2,-1,0,-2
59642936326,-4,2,1,2,-1,-1,-3,-16
59642936326,-7,0,-1,0,-3,-1,4,9
59642949908,10,-3,0,-4,-2,-2,1,-6
59642949908,-7,-3,0,-2,-1,0,-8,-10
59642950670,8,5,1,-1,0,-1,4,19
59642950670,8,0,2,1,0,-1,-2,0
59642972356,4,2,-1,-1,0,0,-3,8
59642972356,2,-5,-2,2,0,-4,-1,7
59642973197,-13,-2,-1,-2,0,0,0,-34
59642973197,5,-4,1,0,0,-2,-3,13
59642995529,-6,-3,-4,2,0,-1,1,-12
59642995529,4,3,-1,-1,-3,1,-1,-2
59642996356,-3,1,-1,0,-2,-2,-1,1
59642996356,-1,-3,-1,-1,0,-1,0,-1
59643009860,0,0,-2,1,1,2,-2,-9
59643009860,-12,0,-2,-1,-2,-2,-1,-14
59643010720,2,-7,-5,-3,-2,0,-2,3
59643010720,4,5,1,-2,-2,0,0,-5
59643032377,-8,-23,-4,-4,-4,-3,-2,13
59643032377,15,8,5,3,0,-1,5,6
59643033196,-2,-2,-3,-1,-3,-2,-2,0
59643033196,1,2,-1,-2,1,-3,-3,-6
59643055970,-2,4,-1,2,1,-1,-2,10
59643055970,2,-1,1,-4,-1,-1,-1,13
59643056769,-1,-1,0,-1,0,1,-1,-3
59643056769,-1,-5,-2,0,-2,-1,-1,-3
59643071357,-4,0,-4,-2,-2,-2,-4,-6
59643071357,-1,-9,-4,0,0,-2,0,-6
59643072135,-2,4,1,-1,0,0,-1,3
59643072135,2,-1,0,-1,0,-1,-2,-2
59643092362,-6,4,2,-1,-4,1,0,-4
59643092362,9,0,0,-3,-3,-2,-2,3
59643093131,1,7,-1,-3,-3,-2,-1,-4
59643093131,-2,3,0,0,-2,1,0,1
59643115555,-6,0,1,-2,1,-1,-1,-7
59643115555,1,0,-2,1,0,0,-1,5
59643116408,3,1,0,-2,-3,-2,-1,-19
59643116408,-4,4,-2,0,-2,1,-1,-17
59643129889,-5,-3,1,1,-1,0,-1,-9
59643129889,5,-4,-5,-5,-2,-2,-1,2
59643130688,-8,-5,0,-1,1,-1,-1,1
59643130688,-6,-6,-4,-1,0,-2,-1,2
59643152369,0,6,4,2,1,0,-1,-12
59643152369,-9,-10,-1,0,-3,-3,-2,-10
59643153159,-1,-6,-3,-3,1,0,-3,4
59643153159,-1,-6,1,-1,-2,-2,-1,-2
59643183045,2,0,-2,0,-2,-2,0,4
59643183045,4,-1,2,-1,-1,0,0,2
59643183847,9,5,1,2,0,0,0,5
59643183847,2,0,-5,-1,-2,-2,-1,11
59643189867,-1,-1,-3,-3,-1,-1,-2,1
59643189867,-1,-2,-1,0,1,-2,-2,-14
59643190647,6,5,1,0,-1,-2,0,-5
59643190647,-5,-3,2,1,0,-1,-2,-1
59643212405,-1,-1,-2,-1,-3,-2,-1,21
59643212405,-1,5,1,0,-1,-1,0,-7
59643213138,-2,-10,-3,-4,-3,-2,-1,5
59643213138,14,22,0,-1,0,0,0,11
59643235545,-6,-3,0,-2,-1,-2,-1,-2
59643235545,-8,1,-1,-2,-1,0,-1,-1
59643236341,-6,-3,-1,-1,-2,-1,0,2
59643236341,-3,-10,1,-1,0,1,2,-7
59643249917,15,1,-1,-2,-2,-2,-3,8
59643249917,-4,1,-1,-1,-1,1,3,-5
59643250705,2,1,0,2,0,-1,-1,-4
59643250705,-17,-6,-2,-3,0,0,-2,-26
59643272405,1,0,-3,0,0,0,-1,-4
59643272405,-9,-12,0,-1,1,-2,1,-7
59643273136,-8,0,-1,-1,-2,-1,0,4
59643273136,-2,-4,-2,-1,-3,-2,-3,0
59643295532,-10,-3,2,-2,0,-1,-2,-8
59643295532,-2,6,-4,-2,-2,-1,-4,-26
59643296405,-8,-2,0,1,2,-2,-1,-1
59643296405,0,-6,-4,-4,-3,-1,-1,5
59643309886,-1,1,-5,0,0,0,0,-6
59643309886,4,3,0,-2,-2,0,0,16
59643310662,-1,-6,0,-2,-2,-2,0,-3
59643310662,-2,-22,-2,-5,-2,-2,-3,5
59643332374,-2,1,1,1,-1,0,-1,12
59643332374,-8,0,-3,0,-2,0,-1,-9
59643333147,-1,-2,-1,-1,-3,0,-2,3
59643333147,-2,5,1,2,-1,-2,-2,2
59643355566,0,-1,1,-1,-1,0,1,-2
59643355566,0,-3,-2,-1,-1,-3,-2,7
59643356352,1,2,-2,-2,-1,-1,-3,-5
59643356352,4,8,0,-1,-1,-2,0,-1
59643369947,-4,-9,-2,-3,0,-1,-2,-11
59643369947,2,5,0,-1,-1,-1,1,1
59643370690,0,0,-3,-4,-2,-1,0,9
59643370690,0,2,1,0,-2,1,-1,2
59643392458,-5,-2,-4,2,-1,-1,-1,-1
59643392458,1,-19,-3,-4,-1,-2,-4,21
59643393186,-19,-4,-1,2,0,-1,-2,-20
59643393186,-2,-4,1,-5,0,-1,-2,-4
59643415493,-1,0,-2,-3,-1,-1,-1,-3
59643415493,8,-2,-1,-1,-3,0,-1,-1
59643416357,-1,-1,-1,-1,-3,-2,0,6
59643416357,-2,-2,-3,-1,-1,-2,1,-2
59643429878,-2,0,-1,-1,1,0,0,-2
59643429878,-3,5,-1,-1,-1,-2,-3,-5
59643430678,-2,2,-1,-2,0,0,-2,-7
59643430678,-1,1,-1,-1,-2,0,1,-2
59643452416,-2,3,2,-1,-2,0,-1,-2
59643452416,11,0,-3,1,0,-1,0,1
59643453159,-1,-1,-3,-3,-2,-1,-1,-1
59643453159,0,-1,-2,2,-1,-1,-3,2
59643475515,-1,5,1,0,-2,-2,-1,3
59643475515,-15,-17,-1,-1,-1,-1,-1,-13
59643476317,19,-1,-3,-1,-1,-1,1,15
59643476317,0,1,-3,-1,-1,0,0,-2
59643489240,-2,-11,-5,-1,-2,-1,-1,-4
59643489240,-7,5,-1,-3,-3,-1,-2,1
59643497437,-4,-3,1,0,-1,0,-3,-6
59643497437,4,-3,-2,0,-2,-1,-1,-5
59643512391,-3,1,0,-1,0,1,-2,1
59643512391,4,3,-2,0,-2,-1,-1,-4
59643513188,0,0,0,0,-1,0,-1,-13
59643513188,-3,-2,-3,-2,-3,0,-1,1
59643535532,-2,-1,0,-1,-3,-2,-2,-6
59643535532,-1,3,0,-2,0,1,0,-5
59643536359,0,-3,-4,-3,-3,-3,-2,2
59643536359,-1,3,2,3,0,-1,1,-2
59643549217,4,0,1,-3,-3,-2,-1,0
59643549217,1,0,0,1,0,-2,-2,15
59643557432,-2,-2,-1,-1,-1,1,1,-9
59643557432,-3,10,1,-3,-1,-1,-1,9
59643572332,0,2,-1,0,1,0,-1,0
59643572332,-1,3,0,-1,2,0,1,1
59643573169,-3,1,-3,0,0,0,-2,3
59643573169,2,-5,-3,1,-2,-2,-3,-9
59643595601,-1,8,-3,-1,1,0,0,-1
59643595601,0,2,0,-2,1,-1,0,2
59643596319,-7,-2,-1,-2,-2,-1,0,0
59643596319,-1,-8,0,-2,-1,-3,-2,-8
59643609173,-2,1,-2,-1,-2,-1,-1,4
59643609173,-4,-3,-1,1,-2,0,0,-4
59643617364,-1,-4,-1,-2,-1,-2,0,-1
59643617364,-2,-6,0,-2,-1,-1,0,-1
