timestamp,emg1,emg2,emg3,emg4,emg5,emg6,emg7,emg8
89301711334,-4,1,3,7,0,-2,-2,1
89301711334,-4,-1,-6,9,-1,0,0,0
89301712278,-3,-1,2,-7,1,1,-2,1
89301712278,1,2,-2,1,0,-1,0,-4
89301714047,1,1,-2,-3,-1,-3,-1,-5
89301714047,1,3,6,2,0,2,-2,2
89301714801,-10,-5,0,5,-5,0,1,-3
89301714801,10,1,4,5,1,-2,4,16
89301715643,-2,3,3,2,1,2,-4,-8
89301715643,-6,-8,-8,-10,-2,-3,2,4
89301727698,6,-2,-4,-2,1,-2,-6,-5
89301727698,-8,0,3,-3,-2,1,8,4
89301736370,3,0,-1,-1,-3,0,2,-6
89301736370,2,-1,-3,-3,0,-4,-5,-5
89301744215,-11,-3,-5,-1,-1,-2,1,9
89301744215,-4,-3,-2,2,-2,-1,-4,-7
89301758465,8,0,-4,-3,0,-2,2,6
89301758465,-16,-1,-2,-3,-2,0,-2,-11
89301773531,5,2,7,7,0,-1,-1,0
89301773531,-13,-4,-10,-1,-1,0,-6,-9
89301774277,-9,-2,-8,-12,-2,-1,4,-1
89301774277,8,1,6,1,-1,-2,0,3
89301820193,21,1,-3,0,1,0,-2,9
89301820193,1,-1,1,3,-4,-3,-2,-29
89301821012,0,-2,-2,-2,0,1,-2,-3
89301821012,5,4,3,-1,0,1,-3,-6
89301821797,-8,-1,-5,2,-2,-4,1,-3
89301821797,-1,0,1,-2,1,2,-1,5
89301825007,-1,-1,-3,3,-1,0,-3,-5
89301825007,0,-1,-4,-3,-2,-4,-1,-2
89301832553,-15,-4,1,-1,0,1,-2,-4
89301832553,23,2,2,1,0,1,-2,10
89301841562,-5,-1,-2,-2,-1,-1,15,-1
89301841562,-15,-4,-4,-1,-1,1,-6,-3
89301847513,7,-3,1,-2,-3,-2,-10,-2
89301847513,-4,-3,-6,-3,-1,-4,4,16
89301863982,-14,0,-3,-4,-3,-3,-7,-43
89301863982,9,-2,1,0,-1,0,3,3
89301870023,-24,-3,0,5,0,-1,0,-2
89301870023,3,-4,1,3,-2,-1,3,-9
89301893183,12,-2,-8,-30,-2,-2,-15,14
89301893183,-8,-2,-3,-3,-4,0,7,-3
89301893927,8,5,1,1,0,1,-7,-4
89301893927,-9,1,6,4,1,2,0,3
89301908210,-9,-3,-1,3,-3,-1,-1,2
89301908210,10,-3,-7,-5,-3,-2,-2,-2
89301909042,5,2,-2,-5,-1,-1,3,4
89301909042,-6,-3,-6,-7,-2,-2,-3,-3
89301930680,-1,-3,2,8,0,-1,-1,19
89301930680,10,0,-2,-3,1,-2,-4,-13
89301931485,-21,-5,-1,0,-2,0,8,-8
89301931485,43,1,-3,-2,-1,-3,-1,44
89301953169,-2,0,1,4,0,-3,-3,-27
89301953169,-4,0,2,3,0,1,3,8
89301953920,6,1,-1,-4,2,0,-1,2
89301953920,-16,-1,-1,-3,-1,-1,-1,-12
89301968212,45,2,2,1,-1,-1,0,14
89301968212,-9,-1,-5,1,0,0,1,5
89301968986,-12,-3,0,-2,-3,-1,0,-9
89301968986,-10,-1,-3,-1,-1,0,-2,-11
89301990721,-2,-3,-2,3,-1,1,0,-1
89301990721,-10,-4,-3,-4,-3,-4,-8,-10
89301991462,8,-3,0,-2,-4,-4,-2,7
89301991462,-10,-5,-2,-1,-1,4,3,-4
89302013135,-3,3,1,0,1,-2,3,-9
89302013135,0,0,-3,-1,1,-1,-9,-1
89302013915,6,-1,-1,0,0,0,-2,1
89302013915,-7,1,-10,-3,0,-2,-4,4
89302028240,-12,-4,3,0,-3,-2,0,2
89302028240,-15,-2,5,2,-1,-1,3,-2
89302029000,15,0,-1,-1,-1,-1,-1,-2
89302029000,-8,0,-1,-2,0,-1,-2,-15
89302050654,-11,-2,-2,0,-1,1,1,13
89302050654,-7,-1,2,1,0,-1,-1,-27
89302051507,2,0,1,0,-1,-1,-1,8
89302051507,3,0,-1,0,-1,0,1,-4
89302073160,-17,-1,-1,1,-1,0,2,-1
89302073160,4,-2,1,0,-2,-1,-2,5
89302073950,-4,0,-1,-3,-1,-2,4,-3
89302073950,-6,-4,-5,-4,-3,-1,-3,-7
89302088195,1,0,2,1,-2,-3,0,2
89302088195,-26,-1,-1,-2,0,0,2,32
89302088938,6,0,-2,-3,-2,0,2,-5
89302088938,-2,-2,5,1,-1,-6,-7,-4
89302110664,16,0,-2,0,-2,0,6,12
89302110664,3,1,-2,0,-2,0,-1,-1
89302111443,-10,-2,-2,-1,-1,-1,-1,-10
89302111443,-15,-1,-3,0,-1,-1,0,-1
89302133216,7,0,-3,-2,0,-1,-3,0
89302133216,9,-3,2,2,0,-3,0,-4
89302134012,0,-7,-12,-6,-2,-1,0,5
89302134012,-18,-2,1,-2,0,0,-5,-39
89302148145,-6,0,2,2,1,1,-2,0
89302148145,2,-5,-4,-1,-2,-1,0,1
89302148988,-4,0,2,1,-2,-2,-2,7
89302148988,21,3,0,1,-2,-2,1,11
89302170738,-16,-3,-3,-2,0,-1,-4,-12
89302170738,-2,2,1,0,-1,-1,-1,-1
89302171500,-3,0,0,-1,1,-1,-2,-7
89302171500,6,3,1,-2,-1,-2,-2,3
89302193200,5,-1,-2,0,-2,-2,-4,-4
89302193200,24,0,-4,-2,-1,-3,4,10
89302193937,-1,-1,-1,0,-1,-1,-2,-6
89302193937,-4,-3,0,0,-2,0,0,4
89302208279,4,-1,-1,-2,-2,-1,-3,7
89302208279,2,1,-1,-3,-1,-1,-2,-12
89302209000,-8,-3,-1,-2,0,-1,-2,3
89302209000,8,-1,-1,0,-1,-1,-1,-2
89302230693,4,-2,-4,-1,-3,-2,-1,5
89302230693,-11,-2,-3,-2,-2,-2,-3,-6
89302231467,11,0,-1,1,-1,0,-1,5
89302231467,-2,-2,0,0,1,-1,2,4
89302253197,-12,1,2,1,0,-2,-1,-7
89302253197,-2,-3,-2,-2,-2,-3,-2,8
89302253977,-2,1,2,-1,1,0,-2,-8
89302253977,1,-2,-3,-2,-3,-1,1,4
89302268196,-3,0,1,-2,-2,0,-1,1
89302268196,7,2,1,0,0,0,-1,10
89302268997,1,-2,-2,-1,-3,-1,-1,-1
89302268997,8,-1,2,-2,-2,1,-2,-8
89302290700,-22,-5,-3,-3,-1,1,0,-2
89302290700,15,0,-1,0,0,0,-2,-5
89302291505,8,-1,0,-1,-1,-2,-1,11
89302291505,-36,-1,-2,-2,-1,-2,-1,-8
89302313199,3,-3,-3,0,-1,0,-1,-4
89302313199,-10,-3,-2,-7,-1,-1,-2,-2
89302313985,9,0,0,0,-1,-1,2,2
89302313985,6,1,3,-1,0,1,-2,-2
89302328180,-2,0,-10,-2,-1,-1,0,3
89302328180,-5,-1,0,0,-1,1,-1,-15
89302329042,-9,-2,0,1,-1,-3,-2,-9
89302329042,-4,0,-1,-1,0,-2,0,1
89302350691,2,3,3,0,0,0,2,0
89302350691,2,1,0,1,1,0,0,10
89302351470,0,0,-3,-3,-2,-1,-5,-20
89302351470,-1,-1,1,3,0,2,-1,-2
89302373639,15,-2,0,-1,-1,-2,0,1
89302373639,-8,-1,0,0,-2,0,0,-3
89302374483,4,-3,-2,-2,-2,-2,0,2
89302374483,4,-3,-3,0,-2,-1,1,24
89302387552,3,-1,0,-1,-2,-3,-3,-1
89302387552,7,0,0,1,0,0,-3,-8
89302394971,-16,-1,-1,1,-2,0,2,3
89302394971,7,-2,0,-1,-1,-1,0,8
89302410680,0,-2,-5,-1,0,-1,0,-6
89302410680,4,-1,0,-5,-3,-4,0,10
89302411491,2,-2,-4,-1,0,1,-2,-6
89302411491,-54,-5,-4,-2,-3,-4,-4,-5
89302433147,16,6,6,3,2,1,-2,7
89302433147,-4,-1,-1,0,0,-1,-1,-3
89302433986,-4,-2,-1,-4,-1,-2,-1,-3
89302433986,1,-1,-2,-1,-1,-3,-1,-9
89302447524,-6,-3,-1,-3,-1,-1,-1,-3
89302447524,-7,2,1,1,-1,0,0,-12
89302455021,10,0,-3,0,-2,-1,2,16
89302455021,2,-1,-2,-3,-2,0,-2,-10
89302470723,-7,-5,4,0,-3,1,-2,2
89302470723,0,2,-2,0,-1,-1,1,-2
89302471481,9,-1,-1,0,1,-1,-2,-3
89302471481,13,0,-1,0,-1,0,0,6
89302493196,0,-1,-2,-4,-1,0,-1,-14
89302493196,-23,-5,0,-1,-2,0,0,-2
89302493975,10,3,-1,-3,-2,-2,-3,-8
89302493975,6,-2,-3,-2,0,0,-2,0
89302507569,-17,-3,1,-1,-1,-1,-2,-7
89302507569,16,1,0,1,0,1,2,6
89302515081,-18,-4,-3,-3,-3,-2,-7,-2
89302515081,10,1,4,-1,-2,0,0,0
89302530652,3,1,-3,-1,-1,0,2,-4
89302530652,-6,-3,-3,-3,-1,-2,-5,-5
89302531445,-2,-4,-3,-2,-2,-2,-3,-14
89302531445,13,1,-1,-1,-2,-2,-2,8
89302553230,-6,-5,-1,-1,-1,-2,-3,1
89302553230,-8,-2,-1,-1,0,2,-1,-4
89302554002,3,0,3,3,1,-1,3,1
89302554002,-7,-2,-5,-2,-1,-3,-1,1
89302567502,9,3,1,0,1,-1,1,6
89302567502,16,-3,-4,0,-1,-2,-2,-5
89302574980,-11,0,3,0,-1,-1,-2,-6
89302574980,-6,-1,-2,-1,-1,-1,-2,-10
89302598879,-4,-2,-2,-1,-1,-1,-1,4
89302598879,14,1,3,2,-1,-2,1,-1
89302599677,-12,-2,-4,-3,0,0,-2,6
89302599677,-7,-3,-5,-5,-1,-1,0,-12
89302613191,-10,-2,-3,-3,-1,-1,-2,-5
89302613191,0,-2,-1,-1,-1,0,-1,0
89302613990,-5,-1,0,1,0,1,0,-2
89302613990,21,0,-1,1,-1,-3,0,19
89302627557,1,-2,0,0,-1,-1,-1,4
89302627557,0,-1,-1,-2,0,-3,-3,-1
89302635095,-3,-1,-4,-2,-2,-2,1,11
89302635095,-3,-3,1,-2,-2,-1,-4,-12
89302650621,10,0,-2,0,0,-1,-1,3
89302650621,-11,-1,-2,0,-2,-2,-2,-6
89302651436,2,2,-2,-2,-1,0,0,0
89302651436,2,0,1,0,-1,-1,-2,6
89302673120,11,0,2,1,-1,0,0,-12
89302673120,-24,-1,1,-1,0,-1,-1,0
89302673953,12,-3,-2,-1,0,0,-2,-2
89302673953,-4,-3,-2,-3,-1,0,1,-3
89302687500,1,2,0,-2,-1,0,-3,-3
89302687500,-12,-5,-3,-2,-2,-3,-2,3
89302694991,6,3,3,-1,1,-2,0,0
89302694991,-8,-1,1,0,-2,-1,-1,-9
89302710694,7,-2,-2,-1,-1,-1,0,10
89302710694,-11,0,-2,-2,-1,0,0,0
89302711472,-11,-4,-2,-1,-1,-2,0,3
89302711472,6,0,-1,0,-1,-1,0,-5
89302733197,-6,-1,-1,-3,0,-2,-2,2
89302733197,8,-1,-3,-1,-1,-2,0,7
89302733954,-4,-2,-1,1,-1,0,-3,-9
89302733954,-1,3,0,0,0,0,0,3
89302747537,-7,-2,-3,-1,-4,-5,-2,-5
89302747537,1,-1,1,1,0,0,0,3
89302755001,-7,-1,-2,-4,-1,-1,1,-4
89302755001,13,0,0,-1,-2,-1,-1,12
89302770698,-9,-3,-1,-2,-2,-2,-2,-3
89302770698,8,1,0,-3,0,0,0,-4
89302771492,-23,-9,-7,-3,-2,-1,0,-5
89302771492,5,4,2,1,-1,0,1,-3
89302793161,3,-2,0,0,0,-1,0,0
89302793161,-3,-3,-2,0,-3,-2,-1,-3
89302793951,7,-1,1,-1,-1,2,-4,-10
89302793951,-19,-2,-3,-2,-1,-1,-3,-7
89302816130,-8,-2,-4,-4,-2,-1,-2,7
89302816130,-11,0,0,-1,-1,-1,1,-23
89302816979,2,1,-1,0,-2,-2,-1,1
89302816979,-7,-1,-1,-1,0,0,-3,-14
89302838887,-2,2,4,2,0,2,-1,-6
89302838887,4,-6,-4,-2,-2,-1,-1,10
89302839687,-15,0,1,-2,-1,0,-1,1
89302839687,23,1,-1,-2,-2,-2,-4,2
89302853197,-8,-3,-2,-2,0,-1,-1,-7
89302853197,3,0,0,-1,0,1,0,2
89302854026,-1,-5,-3,-1,0,-3,-1,-6
89302854026,-8,-1,1,1,-1,-1,-2,4
89302875722,-8,-2,-1,-2,-2,-1,1,3
89302875722,8,1,-1,-3,0,1,-2,2
89302876461,2,-1,1,2,-1,-2,1,7
89302876461,2,-1,2,-2,0,0,0,-2
89302898870,-3,-3,-2,-2,-2,-2,0,-3
89302898870,-18,-3,-4,-1,-2,-4,-2,-15
89302899612,19,5,-1,-1,-1,-1,-1,7
89302899612,23,0,-1,1,-1,-2,-1,-2
89302913186,-10,0,-1,-1,-1,0,-2,5
89302913186,1,-2,-1,-1,-3,-1,1,-7
89302913957,-1,-2,0,0,0,0,-1,0
89302913957,-9,-3,-2,0,-1,-1,-2,0
89302935725,17,-1,-2,-2,-3,-1,-1,1
89302935725,4,-1,1,-1,0,-2,-1,-1
89302936463,0,1,2,1,0,0,-1,3
89302936463,-2,0,-2,0,1,1,2,-1
89302958959,-5,-2,0,-1,0,-1,-1,-3
89302958959,-14,-3,-1,-2,-2,-1,-3,-3
89302959750,35,6,1,1,0,-1,-1,4
89302959750,-32,-6,-5,-3,-2,-3,-4,-26
89302972572,3,-2,-1,1,-2,-2,0,-6
89302972572,6,0,-4,-2,0,-2,-2,9
89302980728,-11,-3,-1,1,1,-1,0,-5
89302980728,2,1,1,-1,-1,0,-1,6
89302995694,-3,1,2,0,1,0,-1,-4
89302995694,7,-1,-1,-1,-2,-2,-4,-12
89302996467,-5,-4,-2,-4,-2,-2,-1,16
89302996467,-2,-1,-1,0,0,-1,1,2
89303018849,-3,-1,-2,0,-2,-1,-1,-2
89303018849,-3,0,2,-1,-1,0,1,8
89303019621,2,1,-1,-2,-1,-1,-1,-3
89303019621,25,1,-1,-2,-2,0,-1,4
89303032544,-12,1,1,-1,0,0,-1,7
89303032544,4,-3,-4,-1,-2,-3,-1,14
89303040768,-4,-3,-5,-2,-2,-2,-1,-8
89303040768,3,0,-1,-1,0,0,1,-1
89303055701,7,0,0,-2,0,-1,-2,-3
89303055701,9,1,0,-1,0,0,-1,-3
89303056455,-4,-1,-2,-2,-2,0,0,-2
89303056455,-9,-4,-3,-2,-2,-3,-2,3
89303078862,4,-3,-6,-1,-2,-1,1,4
89303078862,-3,1,1,0,0,-1,-4,-1
89303079678,-10,-5,-3,-1,-1,-3,-1,-2
89303079678,-15,-2,-3,-3,0,1,3,-2
89303092536,13,1,1,-1,-1,-2,-2,4
89303092536,5,0,-1,0,-1,-1,-2,0
89303100675,-1,1,3,-1,-1,0,-1,1
89303100675,-12,-3,-1,-2,-1,-2,-3,-1
89303115678,-3,-2,0,-2,0,0,-2,-2
89303115678,-1,0,0,-2,-2,0,0,1
89303116482,0,-1,0,-1,0,1,-2,-4
89303116482,-3,-2,-2,-1,-2,-2,-1,1
89303138842,25,0,-3,-1,-1,-3,-2,-5
89303138842,-31,-4,0,0,-2,-3,0,-24
89303139717,-5,-2,-2,-1,-3,-1,-3,-6
89303139717,4,-1,-1,-2,-1,-1,1,3
89303152524,-1,-1,0,-1,-2,1,-1,4
89303152524,9,-1,-3,-2,-1,-1,0,2
89303160693,-4,-2,1,1,0,1,-2,-3
89303160693,3,-4,-4,-1,-1,-4,-3,2
89303175696,-16,-1,1,-2,-2,-2,-3,-21
89303175696,40,0,-3,-1,1,-1,-1,4
89303176490,0,0,-1,-1,-2,-1,-1,7
89303176490,4,-1,-1,-1,-2,-2,-3,4
89303198882,-15,-1,-3,-3,0,-1,1,1
89303198882,4,0,0,-1,-2,-1,0,0
89303199708,0,-1,-2,-1,-1,-3,-2,0
89303199708,0,-2,0,0,-1,0,0,-2
89303212503,12,-3,-2,-3,-2,-2,0,19
89303212503,-38,-4,-1,0,0,3,-5,-27
89303220751,6,1,0,-1,-2,-3,-3,0
89303220751,-8,-1,0,0,1,0,1,-3
89303235642,-3,-1,-1,-1,0,-1,1,-2
89303235642,1,-1,-1,-1,0,0,2,11
89303236471,-4,-2,0,-3,-2,-1,-2,-4
89303236471,9,0,-1,0,-2,-2,-2,-7
89303258937,3,-1,-1,0,-4,-1,-2,4
89303258937,11,-1,-1,0,-2,0,-1,-7
89303259740,-15,-3,-2,1,-1,-1,1,-3
89303259740,1,-1,-2,-1,-2,-2,-3,2
89303272523,-6,0,-2,-1,1,-1,1,-3
89303272523,2,0,-2,0,-2,-4,-1,7
89303280726,-2,-2,-2,-2,-2,-2,-2,-7
89303280726,-6,0,1,0,-1,-1,-2,-3
89303295693,-6,0,0,0,-1,-2,-3,-2
89303295693,-2,-5,-4,-4,-2,-2,-5,-2
89303296479,10,2,1,1,-1,-1,4,10
89303296479,-10,-1,0,0,-1,1,0,-4
89303318966,3,0,-2,-1,-1,-1,-2,-4
89303318966,-2,0,0,-1,-1,-2,0,7
89303319667,2,0,0,-2,-1,-1,-1,3
89303319667,-13,-3,-1,-2,0,1,1,-5
89303341377,15,2,0,-2,0,-4,0,6
89303341377,-1,0,-2,1,-1,0,1,6
89303342171,-6,-3,-2,-1,0,1,-2,-7
89303342171,0,-1,-2,-1,-1,-1,-2,-3
89303355701,-11,-2,-2,-2,-1,1,-3,-8
89303355701,-6,0,-1,-2,-1,0,0,2
89303356438,5,-1,-3,-4,0,-2,-3,-7
89303356438,1,-2,0,0,-2,-3,-3,4
89303378826,-1,-2,-1,-1,-2,-1,2,0
89303378826,-31,-4,-2,-2,-1,-1,0,-2
89303379624,-7,-1,-1,-1,-1,-2,0,-1
89303379624,1,-2,-2,-2,-2,-1,-3,0
89303401344,-4,0,-1,0,-1,-1,-4,-6
89303401344,12,-1,2,-2,-1,0,0,7
89303402159,-18,-2,-1,1,0,1,-1,-3
89303402159,-16,0,-1,1,-1,-1,-4,-48
89303415656,12,1,1,0,0,0,1,5
89303415656,6,-2,-2,-3,0,-2,1,3
89303416447,-7,-1,-1,1,0,0,-1,-3
89303416447,5,-2,-1,-1,-3,-2,1,11
89303438847,-3,-3,-2,-2,-2,-3,-1,-6
89303438847,4,1,0,1,0,-1,-3,-5
89303439662,-1,-1,-1,0,-1,-2,0,3
89303439662,10,2,-1,-1,0,-2,-3,4
89303461400,-5,-4,-2,1,-1,1,-2,-6
89303461400,-2,-2,1,-1,-1,-1,-1,6
89303462205,7,-1,-2,0,-2,-1,-1,-1
89303462205,-1,1,-1,-2,-1,0,-1,9
89303483870,-7,-3,-2,-1,-1,-2,-1,3
89303483870,2,1,-1,-2,0,-2,-3,-6
89303484669,0,-2,-3,-3,-1,-1,0,8
89303484669,3,-1,1,-2,2,-2,-3,-2
89303498847,-3,0,-2,-1,-2,-2,-2,-1
89303498847,-2,-3,-2,0,-1,-1,-2,4
89303500476,9,-1,-1,-2,-2,-3,-1,5
89303500476,-7,-1,-2,-1,0,-1,1,8
89303521429,-3,0,1,-1,0,-1,-2,0
89303521429,8,1,0,0,-1,-1,-1,-6
89303522152,1,0,-1,-1,-2,0,0,1
89303522152,2,-3,-1,-1,0,-1,0,3
89303535031,-3,-3,0,-2,-2,1,-1,-3
89303535031,-3,1,-3,-1,0,0,1,-4
89303543991,-3,-2,0,0,-1,-1,-2,-2
89303543991,1,-3,-3,-3,-1,-3,-4,-11
89303558886,10,-1,-2,0,-3,-1,-1,-8
89303558886,4,-1,0,0,0,-1,-1,0
89303560479,-10,-1,0,0,-1,-3,-1,-8
89303560479,8,1,-1,-1,-2,0,0,0
89303581423,-11,-3,-1,-1,-1,-1,-1,6
89303581423,3,0,-1,-1,0,-1,0,-3
89303583000,6,0,-1,-1,-2,-3,-2,-7
89303583000,-7,-3,-3,-1,0,-1,-2,3
89303595005,-3,-2,-4,-3,-3,-2,-1,-5
89303595005,-4,-1,-2,-1,1,1,2,-1
89303604064,-2,-1,0,0,-1,0,1,-3
89303604064,1,-2,0,-1,0,1,0,4
89303618865,-6,-2,-3,-5,-3,-4,-6,-2
89303618865,-7,-7,-6,-5,-4,-3,-2,-9
89303620479,0,1,0,5,7,4,5,0
89303620479,2,1,6,2,-2,-1,2,2
89303641172,2,0,-1,1,0,2,0,0
89303641172,-3,-3,-2,-2,-5,-5,-6,-1
89303649001,-1,-1,-4,-5,-8,-8,-9,-6
89303649001,0,2,0,9,10,5,7,6
89303655055,-4,-5,0,-3,5,4,1,-4
89303655055,-1,-1,-3,-14,-11,-7,4,5
89303669981,2,-1,-1,-3,-6,0,-5,-2
89303669981,2,3,5,13,3,3,-4,3
89303678810,-2,1,3,8,17,1,8,4
89303678810,-4,-4,-9,-2,-16,-5,-9,-3
89303680464,0,-4,-3,-6,9,11,11,-1
89303680464,-4,-3,-3,-10,-6,-1,-9,-3
89303701322,-4,0,-4,2,-7,-21,-9,-6
89303701322,7,4,10,7,-18,-20,-2,3
89303702925,0,0,-1,-12,3,12,20,11
89303702925,-1,0,-2,7,17,31,10,-2
89303714998,2,-1,0,7,20,33,-1,1
89303714998,2,4,5,9,43,10,-5,4
89303723961,-4,-5,-13,-18,-46,-32,-19,-7
89303723961,0,-3,4,-10,-16,-36,-1,4
89303738875,-4,-2,-3,-22,-33,-8,-1,-4
89303738875,-3,-5,-6,7,9,10,-6,-3
89303740495,-1,0,1,2,-8,-35,-13,-1
89303740495,-2,0,-9,-8,-45,18,8,1
89303761457,3,2,7,14,99,93,18,1
89303761457,-4,-1,2,12,47,33,6,0
89303763056,-8,-6,-4,-11,-50,-79,-21,-7
89303763056,-3,-6,-9,-32,-117,-128,-27,-6
89303775270,-4,-1,-5,-7,-87,49,1,-10
89303775270,6,6,1,27,92,114,39,1
89303784034,6,3,25,39,-16,10,23,3
89303784034,-5,0,-2,9,-67,-93,-24,0
89303799170,0,-2,-8,-27,-102,-97,-27,-1
89303799170,-8,-9,-16,-38,-97,-55,-16,-13
89303800576,9,-7,-16,-30,-43,-77,-46,-17
89303800576,-6,-1,4,-7,-44,47,7,3
89303821546,5,1,0,25,89,64,31,1
89303821546,4,8,8,39,90,101,39,15
89303823040,6,5,20,43,57,45,17,5
89303823040,2,0,12,6,-52,-88,-16,4
89303835127,-4,-4,-6,-20,-128,-124,-32,-3
89303835127,4,-2,-3,-30,-78,-52,-16,-5
89303844058,-9,-6,-18,-13,39,27,4,-3
89303844058,-3,-2,-7,-3,67,44,1,-8
89303858887,-7,-4,-2,-1,13,-5,-1,-3
89303858887,-3,-4,1,-6,-32,-35,-8,-3
89303860490,-6,2,-11,-9,1,35,10,3
89303860490,-7,-3,9,8,73,57,1,-9
89303881423,12,-1,-15,-2,-1,-20,11,10
89303881423,-1,5,36,-4,-25,-33,-2,-3
89303883001,1,4,11,23,26,30,-3,6
89303883001,-1,-3,-8,-2,23,32,8,-8
89303895098,-7,-3,3,-18,6,-16,-4,-4
89303895098,-9,-2,0,-5,-33,-41,-19,-4
89303904028,39,1,-7,-6,-15,9,14,-2
89303904028,-13,1,-10,4,30,14,0,9
89303926474,3,4,16,14,4,-2,4,-2
89303926474,-8,-5,-23,-11,-16,-20,-10,-1
89303928019,-1,2,12,8,-8,2,-1,-3
89303928019,1,-5,2,4,17,17,11,2
89303941492,-6,-2,-15,-10,5,-6,3,1
89303941492,14,0,0,0,-13,-16,-12,-3
89303943003,-27,-6,-13,-1,-9,-5,-16,5
89303943003,21,4,7,1,6,9,11,14
89303964159,-5,4,31,13,8,3,0,-1
89303964159,-1,-5,-42,-5,-8,-9,-4,-2
89303965678,-9,0,8,-6,-6,0,11,-3
89303965678,-3,-5,-18,-25,0,3,7,5
89303978947,7,1,-2,3,2,-6,-16,-6
89303978947,-3,2,16,11,-1,-3,3,-1
89303980496,1,2,-8,-9,0,0,0,0
89303980496,32,1,-12,-10,2,6,8,-4
89304001305,-38,-7,-18,8,0,-3,-3,-13
89304001305,-2,-3,14,2,-9,-11,-21,8
89304002941,-14,-1,16,12,0,2,21,3
89304002941,15,-4,-16,-13,-1,-3,7,3
89304015039,7,1,8,-2,2,-1,-4,-1
89304015039,-5,-4,-4,-2,-2,-3,2,-3
89304023948,-3,-3,-9,-12,-4,-1,-14,-9
89304023948,-7,0,7,13,5,3,-8,0
89304038872,3,3,15,19,3,3,9,6
89304038872,-10,-8,-19,-23,-5,-3,4,-3
89304040518,7,0,1,3,-4,3,6,6
89304040518,-33,-3,-2,7,-2,-9,-20,-34
89304061333,-2,-4,9,-6,0,-3,-5,-5
89304061333,13,6,11,5,-1,-3,8,0
89304062915,-3,1,-19,-9,-5,-4,-7,-6
89304062915,-2,-2,7,1,1,0,0,-1
89304075110,9,-3,-9,3,2,1,-7,4
89304075110,-42,0,9,-2,-4,0,13,-5
89304084040,10,-7,1,-1,-3,-5,-6,-9
89304084040,-9,-2,-17,2,1,1,-4,-1
89304099166,-2,0,-3,-5,0,4,-1,5
89304099166,11,3,27,5,1,-2,22,15
89304100535,8,-9,-51,-21,-2,-10,-22,6
89304100535,-7,4,16,55,-1,0,-4,-7
89304121656,4,-13,-38,-19,-9,-8,-8,0
89304121656,-3,-4,-11,-10,0,2,-5,-3
89304123060,-10,4,32,3,1,4,10,-1
89304123060,13,8,6,0,4,2,-7,5
89304135269,-7,-1,-3,0,-1,2,5,3
89304135269,11,-4,-6,3,-3,-1,-4,-5
89304144040,-4,1,8,6,2,1,1,-3
89304144040,-3,-6,-13,-19,-4,0,1,2
89304158747,0,2,3,0,-1,2,9,0
89304158747,19,4,26,1,-2,-8,-14,-5
89304174156,-4,-5,-64,-6,-2,-1,-5,6
89304174156,-6,-2,29,2,-2,2,2,-1
89304181490,0,-5,-10,-6,-5,-5,-2,-8
89304181490,-13,-5,-18,-21,-8,-6,-9,-2
89304183041,8,5,16,2,-1,4,3,3
89304183041,-1,6,14,2,5,1,7,-1
89304195287,10,3,-1,18,4,1,2,-1
89304195287,-2,0,-12,15,5,-1,-3,1
89304204080,-13,-3,25,-12,-5,-3,0,-5
89304204080,-2,-2,-37,-27,-4,1,1,1
89304218434,4,-3,53,14,5,0,4,6
89304218434,-9,-7,-26,-20,5,7,1,-2
89304225199,0,-3,-18,42,-12,-2,-3,-6
89304225199,4,-9,28,-52,-5,-9,-4,-4
89304241663,7,0,-1,-11,-6,-4,-2,-11
89304241663,-44,3,-2,12,-5,-3,-6,11
89304243027,36,9,16,-25,-6,-12,5,-2
89304243027,-17,-2,-7,-5,-8,-3,-9,-25
89304264072,9,5,7,46,29,20,-4,2
89304264072,-1,-4,9,-40,-6,11,5,-1
89304265509,-18,2,46,13,6,3,0,-12
89304265509,11,1,18,15,-26,-25,-12,10
89304278523,-9,-5,-5,18,14,7,7,1
89304278523,11,-16,-64,34,-4,-7,-6,-12
89304285091,-18,-12,-32,-69,-51,-19,-8,2
89304285091,1,0,6,-2,23,20,13,7
89304301406,-7,1,-12,-9,2,11,1,-1
89304301406,19,10,51,29,12,-7,1,8
89304303052,-5,-4,-42,11,7,-13,-7,-9
89304303052,-7,-5,-10,1,-28,-20,-4,7
89304324090,18,1,-24,-18,-34,-39,-16,-16
89304324090,-41,-12,-2,-14,20,59,3,-16
89304325478,32,14,76,27,68,41,9,0
89304325478,-28,-7,-6,12,3,-10,-7,-12
89304338446,-5,0,-4,-15,-21,-26,-2,3
89304338446,21,2,-3,-15,-46,-46,-21,-14
89304345254,8,5,13,0,-13,0,-2,9
89304345254,-5,-6,-4,14,18,18,12,6
89304361466,0,9,5,-19,5,1,-6,6
89304361466,7,-7,-22,-10,-2,-8,6,9
89304363094,-10,0,0,8,-15,-10,0,-1
89304363094,11,-2,-18,-4,2,5,-3,2
89304384071,-11,-3,-9,-7,10,25,5,2
89304384071,17,13,19,19,30,19,12,5
89304385520,-11,-7,-10,-4,-3,-6,1,0
89304385520,-3,0,-1,7,-18,-20,-12,-12
89304398421,-3,-3,3,-15,-10,-9,-6,3
89304398421,3,2,-6,-4,1,1,0,-2
89304405114,-2,-8,3,3,-2,-4,-1,2
89304405114,-5,2,5,-1,4,4,-2,4
89304421604,-1,-6,-36,4,5,6,2,1
89304421604,7,1,4,-25,-5,-7,-4,6
89304423025,-2,-3,-23,-4,-8,-2,1,-5
89304423025,-3,3,21,10,9,4,-13,-1
89304444003,-5,-4,-5,-1,3,3,-5,3
89304444003,11,0,15,8,-10,-15,4,-6
89304445542,-27,1,2,5,1,2,-6,-9
89304445542,9,-3,-31,-20,2,7,8,9
89304458458,-5,0,35,-9,-3,-5,-2,-6
89304458458,-5,-5,-25,-3,-7,-5,-3,2
89304464980,4,0,8,8,6,3,1,1
89304464980,3,5,15,10,3,5,5,4
89304481331,-6,-6,-3,-14,-9,-8,-3,-6
89304481331,-5,0,5,11,0,0,0,1
89304482967,11,-4,-9,-7,3,2,-3,0
89304482967,-25,-1,5,0,-3,-1,3,-5
89304504096,-5,1,2,0,-3,-3,5,-3
89304504096,16,6,6,6,3,-2,0,-22
89304505534,-16,-7,-14,-6,-5,1,-6,-1
89304505534,10,0,-5,0,-1,-1,-5,-2
89304517461,-1,-1,1,3,2,3,15,13
89304517461,-10,-1,12,8,0,-2,-17,-10
89304526539,0,-6,-2,-5,-4,-6,-21,-1
89304526539,1,2,4,-8,-2,2,9,-6
89304541417,1,-3,-56,1,2,2,-1,-1
89304541417,-3,-2,-5,-17,-6,-2,6,6
89304543021,-2,1,2,7,-1,-2,-9,-3
89304543021,5,-2,-10,-2,2,4,-1,3
89304563611,-4,2,21,6,1,0,-7,-3
89304563611,-3,1,10,4,-1,-1,6,-1
89304569998,-2,0,-22,-9,3,0,1,0
89304569998,-4,-2,0,7,1,2,3,-9
89304578866,8,1,11,0,-4,-2,-6,-10
89304578866,1,0,5,6,-1,-1,2,14
89304586550,-1,3,11,4,1,4,1,0
89304586550,12,-3,1,4,-2,-2,-6,13
89304601394,-1,0,4,-5,-2,-3,19,-1
89304601394,-4,-3,-16,-4,-4,-3,-10,5
89304603164,1,3,22,5,0,-1,6,1
89304603164,7,-6,-22,-12,1,-1,-1,2
89304624138,0,-1,-9,-5,-1,1,-19,4
89304624138,-1,1,12,9,3,-2,15,9
89304625537,0,2,4,8,2,0,7,-1
89304625537,-2,-6,-12,-29,-8,-3,-6,-9
89304637680,-1,4,39,0,-5,-3,0,-1
89304637680,5,-3,-48,-8,-1,-2,-3,-2
89304646546,-5,6,8,10,7,2,5,-5
89304646546,3,0,9,6,9,3,4,6
89304661610,-1,-1,30,-9,-25,-11,-5,-3
89304661610,27,0,-3,5,-6,-6,-4,-2
89304663027,-17,-10,1,6,2,4,10,-4
89304663027,8,-5,-11,-2,5,2,-1,-11
89304684047,-5,2,-5,8,11,5,0,2
89304684047,3,1,43,31,0,0,-4,-3
89304685572,-4,-2,-42,-21,-7,-8,-2,-1
89304685572,-3,-6,-28,-3,-6,1,2,-3
89304697615,-1,-4,-30,6,-2,-2,-1,-9
89304697615,-4,-1,50,-6,7,3,-1,-1
89304706570,2,-3,-50,44,2,-1,-3,-2
89304706570,-8,7,34,29,15,0,-2,-1
89304721367,-7,-17,-67,-75,-25,-13,-9,-4
89304721367,-8,8,42,19,1,-1,-2,-1
89304722963,14,-1,-29,-12,1,5,3,8
89304722963,-20,1,25,10,-1,1,1,-24
89304743922,6,6,18,23,20,-1,0,5
89304743922,-11,-11,-58,-46,-10,0,-1,-4
89304745490,5,3,32,-26,-4,0,-1,-1
89304745490,16,6,-2,5,-5,0,0,6
89304757508,-34,-8,5,15,7,0,-1,0
89304757508,-5,-2,-8,-16,-4,-5,-1,-9
89304766461,-1,0,13,-7,4,1,0,6
89304766461,0,-3,-17,-3,13,6,1,-2
89304781465,-11,0,-3,24,7,9,-5,-11
89304781465,29,3,1,21,9,5,8,4
89304783032,-1,-2,10,-5,-2,-1,2,17
89304783032,-35,-5,-7,-17,-24,-18,-12,-59
89304803844,13,-5,-5,-21,-12,-9,-8,1
89304803844,-20,-1,-2,-2,-10,-8,-5,-5
89304805441,27,4,27,18,-3,-3,-20,-7
89304805441,-7,-15,-56,-69,-18,3,57,22
89304817573,33,2,18,18,-1,-13,-6,32
89304817573,-5,-4,-17,-7,4,1,-16,-32
89304826516,-8,-2,9,-5,0,-2,3,-3
89304826516,9,6,13,20,-1,0,-11,9
89304841668,3,7,21,8,3,7,5,-5
89304841668,-2,-13,-52,-19,-7,-2,10,12
89304843073,-13,-5,-4,-7,-14,-5,-9,-6
89304843073,14,0,3,13,17,-1,-14,7
89304864161,-3,2,22,-7,-27,3,10,-7
89304864161,-10,-12,-42,-6,5,-6,-13,2
89304865549,-3,-2,-32,-3,2,0,5,-7
89304865549,-3,2,50,19,2,-4,-5,6
89304877790,2,2,-12,4,12,4,4,2
89304877790,-5,5,27,1,-8,0,3,0
89304886536,-3,-6,-3,-8,-6,-2,1,-2
89304886536,6,1,-12,-3,-8,-4,-4,10
89304901586,-5,2,6,1,2,0,-3,-3
89304901586,0,2,5,1,-4,0,-1,1
89304902986,-3,-3,1,-6,2,-2,2,-3
89304902986,-5,1,3,6,0,1,-8,0
89304923875,24,-3,-4,-2,-1,1,1,4
89304923875,-15,-2,0,-1,2,-1,-1,-15
89304925460,-1,-2,3,3,-3,-4,0,2
89304925460,-9,-1,4,0,-1,-1,-1,1
89304937502,-14,-4,-13,-3,3,0,0,-10
89304937502,2,1,6,2,1,1,2,8
89304946514,0,1,12,2,0,-1,-4,-7
89304946514,3,-1,-7,0,-4,-3,-2,4
89304961575,0,-2,-6,0,3,-1,0,0
89304961575,2,2,11,6,0,0,-1,4
89304963010,-6,0,5,-4,-2,-1,-2,-4
89304963010,1,0,-8,-1,1,1,-1,7
89304983961,16,1,-4,-4,1,-2,-2,-2
89304983961,-26,2,5,3,-1,1,-6,4
89304985565,4,-4,-3,-5,-4,-1,4,-1
89304985565,7,-2,-2,0,-3,-2,-1,2
89304997752,0,-2,1,0,0,1,3,-5
89304997752,6,1,0,0,-3,0,-3,3
89305006590,6,-2,1,0,1,-1,8,4
89305006590,-13,0,0,-1,-2,-2,-6,-3
89305021493,0,-1,0,2,-1,-1,0,-3
89305021493,7,-2,-1,0,-1,-1,4,2
89305023016,-17,-1,0,-3,-2,-1,-1,-7
89305023016,20,0,-3,0,-1,-1,-4,-1
89305043819,-10,-3,-4,-1,-2,-2,-1,6
89305043819,2,1,-1,-2,-1,-1,1,2
89305045442,4,2,3,-2,-1,-2,-1,0
89305045442,-5,0,0,0,-3,1,-2,-4
89305057761,-6,-3,-4,-3,0,-1,-2,-6
89305057761,4,0,0,0,-2,-2,1,-2
89305066587,-5,-2,0,1,0,-2,-5,1
89305066587,0,0,-1,-1,0,-2,0,2
89305080995,-5,-1,-2,-1,-1,-1,-3,-2
89305080995,4,-2,2,0,-1,-1,0,-2
89305087640,-3,-1,-3,-2,-2,-2,0,-1
89305087640,-3,-2,-4,-2,-1,-2,-4,0
89305104121,3,2,-1,0,0,-2,0,0
89305104121,-1,0,4,-1,-2,-3,-2,-2
89305105520,0,-2,-3,-1,0,0,-2,0
89305105520,2,-2,4,2,-2,-2,-1,0
89305117766,-9,-6,-9,-3,-3,0,-3,-3
89305117766,1,1,1,1,2,1,3,1
89305126532,-1,0,0,-2,-1,0,-1,0
89305126532,0,0,2,1,0,0,-1,-2
89305140949,-5,-1,1,-2,0,-2,-1,-4
89305140949,2,-2,-3,-1,-2,-2,0,0
89305147706,1,-1,-1,-1,-1,-1,-1,-1
89305147706,-3,0,-4,-2,0,-1,-2,-2
89305163843,1,0,1,0,0,1,-1,0
89305163843,-9,-2,-4,-3,-2,-3,0,0
89305165438,1,-2,0,1,0,-1,-1,-2
89305165438,1,-3,-3,-2,-2,-1,1,1
89305186594,-4,1,-1,-1,-2,-3,-1,-2
89305186594,1,-4,-1,-2,-3,-3,-3,-1
89305187996,-3,0,-1,-1,-3,-5,-4,-3
89305187996,-1,-1,-1,1,3,5,4,3
89305200685,6,3,3,-1,-1,-1,2,1
89305200685,-5,-3,-2,0,-1,-3,-2,-4
89305207635,-1,0,0,-2,-3,-3,-1,-1
89305207635,2,-2,-5,-2,-1,-3,-4,-2
89305224172,-2,1,-1,-2,-1,-1,-1,-2
89305224172,1,-1,1,1,-1,0,1,1
89305225578,1,-3,0,-2,-4,0,-1,0
89305225578,1,1,3,-2,-4,-4,-6,-2
89305246633,-4,-2,-2,0,3,3,0,-3
89305246633,0,0,-5,1,2,2,1,0
89305248143,-8,-3,-2,-3,-1,0,0,-1
89305248143,3,-2,-5,-6,-8,-8,-3,-1
89305260677,-5,-3,-1,-3,-4,-2,-5,-6
89305260677,6,5,5,7,11,10,1,7
89305267471,0,-1,-1,2,3,1,-2,0
89305267471,-4,-1,0,0,-4,-1,-1,-1
89305284130,-3,-1,-1,0,-5,-5,-4,-1
89305284130,3,-1,-2,-3,-7,-6,-9,-10
89305285502,-6,-1,0,1,1,-2,2,1
89305285502,3,0,1,-2,0,-1,-1,0
89305306235,-5,-5,-4,-1,-2,-1,-2,1
89305306235,-4,-2,-4,-3,-1,-1,2,-2
89305312759,2,1,0,-1,-3,-2,-2,-2
89305312759,-5,-7,-10,-6,-5,-4,-2,-5
89305320934,-4,3,9,6,5,0,2,0
89305320934,-11,-9,-17,-7,-2,1,2,1
89305327782,18,3,2,3,1,0,2,3
89305327782,-19,-5,-3,-1,-3,-4,-6,-24
89305343952,5,-3,-5,0,-1,3,-1,1
89305343952,-2,3,4,1,3,0,0,3
89305345521,-10,-9,-14,-9,-6,-1,-4,-7
89305345521,1,-4,-9,-1,-1,0,0,5
89305366621,-5,0,1,-1,-3,-4,-2,-3
89305366621,2,-1,3,-3,-3,-4,0,0
89305368044,-1,-3,-2,-2,-1,-2,1,4
89305368044,9,5,6,0,0,2,3,7
89305380205,-7,-5,-6,-4,-3,-3,-3,-5
89305380205,-2,1,-1,0,-2,-1,-5,-4
89305389019,2,0,5,0,-2,0,11,6
89305389019,-3,1,5,6,2,1,-1,4
89305404108,0,0,1,4,-1,-3,-1,-3
89305404108,3,4,8,6,0,2,-2,-5
89305405566,-21,-7,-14,-4,-3,-2,-5,-4
89305405566,10,-3,-12,-8,-4,-3,-4,0
89305426636,9,6,4,1,4,4,3,6
89305426636,-3,-2,-2,-3,-4,-3,1,-1
89305428041,0,6,7,1,1,0,-5,-3
89305428041,-4,-1,-2,2,4,-2,3,3
89305440145,-3,-4,-12,-7,-3,-4,-3,-1
89305440145,5,0,2,-2,-2,-3,-2,2
89305449054,-3,0,2,1,0,0,2,-1
89305449054,5,0,3,1,0,0,-2,-11
89305463935,23,2,3,-2,-1,-1,4,21
89305463935,-15,-3,-1,0,1,-2,-4,-6
89305465549,12,2,-1,-1,0,-1,-2,-5
89305465549,-15,1,5,2,2,2,2,-7
89305486544,1,0,-3,-1,-1,-3,3,7
89305486544,31,-4,-7,-5,-4,-3,2,2
89305487997,-20,-3,0,1,0,-2,-7,-4
89305487997,22,-4,-6,-3,-3,-2,-2,-3
89305500042,0,1,3,-2,-1,0,1,1
89305500042,0,-3,-7,-5,-3,-3,-5,-8
89305509118,5,6,12,3,1,0,-1,-2
89305509118,-9,-8,-7,-3,-4,-2,-3,4
89305524095,-19,-5,-1,-3,-2,-2,-6,-16
89305524095,-22,-9,-11,-9,-4,0,-2,-7
89305525539,9,-5,-4,0,-2,-2,-2,6
89305525539,-6,2,2,-1,-1,-1,3,4
89305546498,0,-2,4,2,0,0,-6,-9
89305546498,4,-1,-8,-2,-4,-2,-1,19
89305548054,-26,-2,-1,1,-1,-2,-1,-39
89305548054,4,-2,3,0,-4,-1,-2,-2
89305560042,-6,-2,-4,-5,0,-1,2,5
89305560042,6,3,14,6,3,3,5,9
89305576552,15,-5,-17,-7,-1,-2,0,1
89305576552,-11,0,1,1,1,0,0,4
89305591563,-6,-1,1,0,-1,1,0,-5
89305591563,0,3,5,1,-1,-2,0,-2
89305593006,4,-4,-4,-2,-1,0,1,6
89305593006,-5,0,-1,-2,1,1,0,-2
89305606570,5,-3,-3,0,0,1,0,3
89305606570,-24,8,13,7,1,2,3,1
89305607979,0,-1,4,0,-1,-1,-2,-1
89305607979,8,2,-2,-2,-1,-2,-3,-1
89305620140,-3,-1,1,1,-1,-1,-2,5
89305620140,4,3,3,1,0,-2,-3,-4
89305628959,10,0,-5,-6,-3,-5,0,3
89305628959,-7,-2,2,-1,-1,0,-4,-3
89305643831,-10,-1,0,-1,-1,-2,-1,-8
89305643831,3,-1,-2,-3,-2,-3,-1,-1
89305645467,3,-1,3,-1,0,2,-1,3
89305645467,0,-5,-6,0,0,-2,-1,0
89305666630,-3,-1,-2,0,0,-2,-4,-5
89305666630,5,-1,-1,0,-1,-1,-1,9
89305667990,-5,1,4,6,-2,-1,0,6
89305667990,1,1,1,-2,0,-2,0,0
89305680212,0,1,-2,-1,-2,-1,0,-1
89305680212,-11,-4,-24,-17,-5,-3,-2,-2
89305689032,5,2,12,9,0,-1,-3,0
89305689032,-2,0,1,-3,0,1,0,-1
89305703907,6,-1,-9,-3,1,-1,0,4
89305703907,-1,-2,4,1,0,-1,-2,-7
89305705459,-5,-7,-16,-9,-4,-2,-2,-1
89305705459,-2,1,-1,-2,-1,-4,0,-5
89305726364,-11,0,3,0,0,0,-1,-11
89305726364,17,0,2,2,-1,-1,-2,-2
89305727950,-25,-3,-3,-3,0,-2,-1,-16
89305727950,-8,-2,1,3,1,1,2,7
89305740026,15,2,0,-5,-3,-3,-4,-10
89305740026,-1,0,0,-1,-2,-2,-1,-2
89305748997,8,-1,0,0,-2,0,1,4
89305748997,-1,1,-1,-1,-1,-1,-1,0
89305763874,-8,-2,-1,0,-1,-1,-1,0
89305763874,-14,-4,-3,-1,-1,-2,-3,-15
89305765464,14,3,1,-1,0,0,-1,8
89305765464,2,-2,-1,2,0,-1,1,9
89305786584,-7,-4,-6,-3,-4,-2,-1,-16
89305786584,0,0,4,2,-1,-1,0,0
89305787950,-6,1,3,0,-1,0,0,-7
89305787950,4,0,-1,-2,0,0,-4,-1
89305800240,-1,-1,0,0,-1,0,-1,3
89305800240,0,-1,1,-2,0,0,-2,1
89305809095,-4,0,-1,-2,-2,-2,-3,-2
89305809095,0,1,0,-1,0,0,-2,-1
89305824114,-19,-5,-3,-4,-3,1,2,2
89305824114,18,-1,-3,1,0,0,-2,-7
89305825519,0,-2,0,0,2,-2,-3,3
89305825519,0,-3,-3,-3,-2,-1,-3,-6
89305846581,-4,-1,0,1,-2,0,-1,6
89305846581,-8,-3,-5,-3,-1,-2,-2,4
89305847958,9,-2,-1,-1,0,-1,-2,-4
89305847958,-8,1,1,0,-1,0,-3,-3
89305860266,39,2,1,0,1,-1,2,1
89305860266,-54,0,2,1,0,0,-2,-8
89305869089,4,3,1,1,1,0,1,5
89305869089,-5,-1,0,-2,-2,-2,1,-3
89305883929,8,2,2,0,-1,1,0,4
89305883929,4,-1,2,-1,-1,-3,1,1
89305885572,-8,0,-2,-2,-1,1,-1,4
89305885572,-6,-2,-1,-1,-1,-3,0,2
89305906495,-10,-2,-3,0,-3,-1,0,-2
89305906495,17,0,-1,-2,-4,-3,-3,2
89305908049,-12,-4,-2,-2,-4,-1,-1,0
89305908049,8,0,0,1,1,-1,-2,0
89305920242,9,-2,0,-1,-1,-5,-4,-6
89305920242,-19,-3,0,0,-2,0,0,-1
89305929094,10,-1,-4,-3,-4,-3,-3,3
89305929094,-9,-1,-1,-2,-1,-1,1,2
89305944077,-5,-3,0,1,0,-1,0,1
89305944077,12,0,-2,-4,-3,-2,-2,-2
89305945554,-4,-2,0,0,0,-4,0,-1
89305945554,-5,-3,-3,-1,-2,-2,-1,-4
89305966463,-6,-3,-2,-3,0,0,-3,-1
89305966463,9,-1,4,-3,-1,-1,-1,-2
89305967960,-6,-4,0,1,-1,0,1,0
89305967960,3,-5,-7,-8,-2,-1,-2,7
89305980091,17,1,1,1,2,1,-3,1
89305980091,2,1,-1,-1,-1,0,-1,3
89305989060,1,-1,1,0,-2,-2,-1,-1
89305989060,-3,-1,-2,1,0,-1,-1,-6
89306004034,-5,-2,0,-3,0,-1,0,8
89306004034,1,0,-3,-1,-2,1,-1,-4
89306005463,-8,0,-2,0,-1,-2,-1,-8
89306005463,7,0,0,1,-1,-1,-1,-1
89306026435,-14,-2,-2,-2,-3,-2,-1,-7
89306026435,1,-4,-5,-2,0,-2,-1,-1
89306028038,3,-3,-2,-3,-2,0,-1,-6
89306028038,15,6,4,3,-2,1,-2,0
89306039972,-4,-4,-2,-2,-3,-1,0,0
89306039972,-9,-2,-2,-1,-1,0,0,-4
89306049019,17,2,-2,0,-1,-1,0,0
89306049019,-15,-4,0,-1,0,0,0,5
89306063833,-16,-2,-4,-4,-2,-3,-5,-23
89306063833,7,-1,-3,-3,-1,-2,0,12
89306065498,-2,-2,-3,-2,-1,0,0,7
89306065498,5,2,-1,0,-2,-1,0,-5
89306086300,3,-2,0,-1,0,-2,1,7
89306086300,2,2,1,-1,0,-1,-2,-13
89306087900,3,1,1,0,-1,0,-1,1
89306087900,-9,-1,-1,1,1,0,-1,2
89306100116,19,2,-5,-2,-1,-1,0,7
89306100116,2,-6,0,-3,-4,-3,-1,2
89306109077,-13,-5,-3,-3,0,-1,-1,-7
89306109077,-6,-2,0,0,-2,-2,-1,-5
89306123924,10,-2,2,1,-1,-1,0,6
89306123924,-7,0,-3,1,0,-1,0,-2
89306125577,10,-1,0,-2,-2,-1,-2,-3
89306125577,-7,0,0,-2,-2,1,-1,-4
89306146587,-12,-3,-3,-1,-2,0,-1,-3
89306146587,-2,-1,-2,-2,-2,0,1,-7
89306147986,-5,-1,1,0,0,-1,-1,-1
89306147986,5,1,-1,-1,-1,-1,0,-6
89306169032,-4,-1,-1,0,-2,-1,-1,-7
89306169032,-5,2,-1,-2,0,0,0,-1
89306170532,3,-4,-6,-5,-4,-3,-3,1
89306170532,3,-3,-3,-1,-2,-3,-4,-4
89306184066,-11,-1,0,-2,0,0,0,2
89306184066,6,-1,1,0,-1,-1,-2,0
89306185512,7,-2,-3,-1,-1,-1,-2,-4
89306185512,2,0,-1,-1,-1,-3,-1,8
89306206327,-1,0,-2,-1,-1,-1,0,0
89306206327,-10,-2,-2,-2,0,-1,-2,1
89306207976,-1,0,-1,-2,-2,-2,-1,1
89306207976,1,-2,-2,-1,-2,0,-1,-3
89306228965,-1,0,1,-1,-2,-1,-2,-3
89306228965,16,0,-5,-1,0,-1,2,17
89306230477,-13,2,0,1,0,0,1,-6
89306230477,8,2,2,1,0,0,1,2
89306243905,-15,-6,-4,-4,-3,-4,-2,-2
89306243905,3,0,0,1,0,0,0,8
89306245547,-11,-2,0,0,1,0,2,-5
89306245547,3,-1,-1,-2,-1,-2,-3,0
89306266404,-4,1,0,0,-1,-1,0,-5
89306266404,1,-2,-4,0,-1,-2,0,-1
89306267986,-4,2,2,0,0,0,-1,2
89306267986,-5,0,-2,-3,-1,-1,-2,-4
89306288852,-2,-2,-1,-1,-1,-1,-1,6
89306288852,-4,0,-1,-1,0,-2,-2,-7
89306290507,0,-1,0,-3,-1,-1,-2,-3
89306290507,0,-2,-3,-1,-1,0,1,13
89306303245,17,6,3,1,0,2,0,-2
89306303245,-13,-3,2,-3,-2,-2,-4,-9
89306309965,12,-2,-6,-3,-1,-2,-3,-1
89306309965,-15,-4,-3,-2,-3,-1,1,3
89306326334,-7,-4,-5,-2,-2,-2,0,-4
89306326334,10,-2,0,1,-1,0,-1,-2
89306327959,-5,2,1,0,0,1,0,2
89306327959,3,-3,-1,-3,-1,-4,-1,3
89306348918,-1,-1,-2,2,1,-1,-3,-3
89306348918,-6,0,-3,0,-1,0,-1,1
89306350499,-5,0,1,0,-2,-3,-2,0
89306350499,-10,-1,-3,-2,-1,0,-2,-15
89306363278,-7,-2,0,-1,0,-2,-2,1
89306363278,8,0,0,-1,0,-2,0,0
89306370030,-11,-2,-2,-2,-3,0,-2,0
89306370030,11,2,1,1,0,0,-1,-5
89306386334,-4,-3,-2,-3,-1,-1,0,9
89306386334,15,2,-3,-1,-2,-1,-5,3
89306387950,14,0,-2,-2,0,-1,-3,-9
89306387950,-6,-1,2,0,-3,-2,-2,-2
89306408814,4,-2,-1,-1,1,-2,-1,2
89306408814,-15,-1,0,-2,-2,1,0,-1
89306410413,3,-1,0,-1,1,-1,-2,2
89306410413,7,1,0,-1,0,-1,-2,-2
89306423205,-1,0,-4,0,0,-2,-3,-7
89306423205,2,-1,0,-1,-1,-1,-1,-6
89306430023,6,-2,-1,-1,-3,-2,0,10
89306430023,-9,-3,-4,-1,0,0,-2,-8
89306446465,-7,0,-2,0,-2,-1,-1,-2
89306446465,-5,-4,-1,-3,-2,0,-1,-7
89306448013,-11,-3,-2,0,-1,-1,2,6
89306448013,2,0,-1,0,0,0,-1,-10
89306468926,-3,2,2,2,0,0,-1,-5
89306468926,-23,-2,-1,1,-1,-1,-2,-15
89306470467,-5,1,-1,-1,-1,-1,0,-4
89306470467,3,-1,-1,-1,-2,-3,-1,2
89306483257,-2,-2,0,-3,1,-1,-1,-6
89306483257,30,1,0,-1,-2,0,0,6
89306490025,-16,-1,-1,0,1,0,1,-2
89306490025,4,-1,-3,-2,-3,-2,-2,-4
89306506348,-3,-3,-2,-1,-4,-1,-1,4
89306506348,-4,-2,-1,-1,0,-2,0,0
89306507981,-4,-2,2,0,-2,0,-2,-3
89306507981,7,-2,-2,-3,-1,1,-1,5
89306528844,8,-1,2,1,-2,1,-1,3
89306528844,-3,-2,-2,-2,-1,-3,0,-1
89306530409,-11,-3,-2,-2,-2,-2,-3,-17
89306530409,-12,-3,-2,-1,0,-2,-1,3
89306543233,7,1,-1,-2,-2,0,0,-5
89306543233,-12,-3,-3,0,-1,-1,0,12
89306550082,-8,3,-2,-1,-1,1,-1,-21
89306550082,19,1,2,0,0,0,0,4
89306566338,1,-2,-1,-1,-1,-1,0,-3
89306566338,-3,0,0,0,1,-1,1,2
89306567908,9,0,0,-2,0,-1,-1,14
89306567908,-8,-3,-4,0,-3,-2,0,-6
89306588872,-17,-2,0,-1,1,0,-2,-4
89306588872,9,3,1,-1,-1,-1,0,0
89306590508,-1,0,1,-1,-1,0,-3,2
89306590508,-8,-2,0,-3,0,-3,-3,-14
89306603166,-1,0,0,0,0,-1,0,5
89306603166,-3,-1,-1,0,-2,-1,-1,2
89306609954,4,-1,0,0,-1,-1,0,0
89306609954,-10,-3,-6,-2,-2,-1,-2,6
89306626391,17,2,-5,-1,-1,-2,-1,9
89306626391,-6,-3,-1,-1,-2,-2,-4,-15
89306627937,33,-1,-2,0,-3,-1,-1,6
89306627937,-16,-1,1,1,0,-1,1,2
89306648894,-9,0,-2,-2,-2,-3,-2,-2
89306648894,-1,-2,0,-1,0,0,-1,2
89306650492,2,-3,-1,-4,-1,-2,-3,-2
89306650492,1,0,-1,-3,-1,-1,-1,-6
89306662477,-3,0,-3,-1,0,-1,1,2
89306662477,4,0,-1,-1,0,-1,0,1
89306671491,-13,-5,-5,-2,-3,-3,-4,7
89306671491,-4,-2,-2,-1,-2,-2,-1,5
89306686365,0,-1,-1,-2,-2,0,-2,2
89306686365,-13,-3,0,0,-3,-4,-2,-8
89306687939,-6,-2,-2,0,0,-1,0,-1
89306687939,-2,0,1,-1,-1,-2,1,-2
89306708809,0,-2,1,-1,-3,-2,-2,0
89306708809,-5,-2,-3,-1,-3,2,-1,-6
89306710863,-1,-1,-2,-2,-1,-1,1,8
89306710863,3,2,1,-1,-1,1,0,-10
89306722511,-6,-2,-2,-2,0,-2,-2,-5
89306722511,2,0,-3,-1,1,-1,0,-3
89306731530,-5,-1,-3,0,-2,-1,-1,4
89306731530,-4,-2,1,-1,-1,0,0,-1
89306746375,-9,-1,0,-1,1,-1,-1,-6
89306746375,5,-3,-5,-1,-1,-3,-3,5
89306747952,3,1,-2,0,-1,-1,-1,-2
89306747952,-6,-1,-3,-1,-4,-1,-2,3
89306768843,9,-5,-6,-1,-5,-1,-2,-14
89306768843,-4,-1,-1,1,-2,1,0,5
89306770430,-6,-1,0,-2,0,0,1,2
89306770430,4,-1,1,-2,0,-1,0,-3
89306782499,-1,-1,-1,0,0,-2,-3,9
89306782499,-3,0,0,0,-2,0,-1,-1
89306791496,-5,-3,-3,-2,0,-1,0,-8
89306791496,-3,-3,0,1,0,-1,0,4
89306806362,7,0,0,-3,-2,-1,-1,-4
89306806362,-19,2,4,1,1,0,0,-16
89306807999,-7,0,-1,0,-1,-1,-1,-5
89306807999,2,1,-1,0,-1,-2,-2,3
89306828901,-2,-1,-1,-1,-1,-1,0,1
89306828901,4,-2,-3,0,-1,-1,-1,2
89306830429,-2,-1,-2,-1,-2,-1,-1,-4
89306830429,-2,-1,-2,1,0,0,-1,-3
89306842518,-2,-3,0,0,-1,-1,0,-1
89306842518,1,0,-1,-2,-2,-1,0,0
89306851458,-19,-4,3,1,-1,-1,0,-5
89306851458,-15,0,-2,-1,0,0,-3,-4
89306866304,15,3,3,0,0,0,1,9
89306866304,3,-4,-2,-2,-1,-2,-2,3
89306867992,-4,-1,0,1,0,-1,-1,-3
89306867992,1,-1,0,-2,-2,-1,-1,-2
89306888890,-5,-1,-1,-2,-2,-1,-2,-3
89306888890,-2,-1,0,-2,-1,0,-1,-1
89306890473,6,-1,-2,-3,-4,-3,0,1
89306890473,-6,-4,-3,-2,-1,-2,-1,1
89306902484,17,-2,-1,0,-3,-2,0,0
89306902484,6,-1,-1,-3,-1,0,-1,11
89306911498,-23,-4,-3,-1,-1,-2,-6,-29
89306911498,7,0,-1,0,1,1,-1,4
89306926357,-11,-2,-1,0,2,-1,0,-2
89306926357,1,0,-2,-2,-3,-2,-2,-4
89306927957,4,-1,0,-2,-1,0,0,5
89306927957,1,-2,0,1,-1,-2,-2,-2
89306948896,-22,-3,-1,-1,-1,0,0,-13
89306948896,19,3,0,1,0,0,-3,-1
89306950468,-6,-1,2,0,-1,1,0,1
89306950468,18,-1,-4,-1,-3,-2,1,-5
89306962458,-21,-2,-1,-1,0,-2,-1,-7
89306962458,10,1,-1,-1,0,-1,0,6
89306971555,2,-1,-4,-5,-2,-1,0,-5
89306971555,-3,0,1,1,0,0,1,-5
89306986935,1,0,0,-1,1,0,0,-3
89306986935,-10,-1,-1,1,-2,-1,-2,-4
89306987990,17,-2,-2,-2,1,-1,1,23
89306987990,-1,-1,-1,-2,-2,-4,-2,-6
89307010290,3,-2,-4,-2,-3,-2,-1,5
89307010290,-7,-3,-1,-2,-1,-2,-1,-3
89307010461,7,-2,-2,-1,-1,-2,-2,6
89307010461,-4,-3,-3,-3,-1,-3,-2,1
89307022562,0,-2,-4,-3,-2,-2,-2,-2
89307022562,-9,-3,-3,-2,-2,-2,2,11
89307031462,2,0,0,0,0,0,-1,-14
89307031462,7,-2,-1,-2,-3,-1,-4,6
89307046344,26,1,1,1,0,-3,-1,-1
89307046344,-21,-3,0,-2,-1,-1,0,-1
89307047972,12,4,2,0,-1,-1,0,3
89307047972,-11,-5,-5,-4,-3,1,1,-5
89307069091,13,0,0,0,-3,-1,-1,2
89307069091,-13,-1,-2,-1,0,0,-1,0
89307070540,-8,0,-2,1,0,-1,-1,-1
89307070540,8,-1,0,0,1,0,-1,0
89307091632,-8,-2,-3,0,0,0,-1,5
89307091632,11,-2,-1,-2,-2,-1,1,7
89307093042,-31,-5,-5,-2,-1,-1,-4,-27
89307093042,-1,1,0,0,-1,0,-1,-1
89307106456,-7,-1,-1,-1,0,-3,-2,1
89307106456,0,-3,-1,-1,-2,-1,-2,0
89307108001,5,0,0,-1,-1,-1,1,7
89307108001,5,1,-1,-2,-2,-2,-1,8
89307129064,-23,-3,0,-1,0,2,-1,-7
89307129064,13,3,0,0,1,-2,-1,-4
89307130482,2,-2,0,-2,-3,-3,-3,1
89307130482,-9,-2,-3,-2,1,1,0,-3
89307151646,3,-3,-2,1,0,-2,-2,19
89307151646,1,-1,-1,-1,-2,-3,-1,-7
89307153057,0,-1,-2,0,-1,0,1,6
89307153057,-3,-1,-1,0,-1,-1,-1,3
89307166374,-3,0,-2,-3,0,-1,-1,-10
89307166374,-8,-3,-3,0,0,0,0,-6
89307168016,1,-1,-1,-1,-1,-1,-2,5
89307168016,-4,-2,-1,0,-2,-1,-1,-10
89307189107,-3,-1,-2,-1,-1,-1,0,-7
89307189107,0,0,2,-1,-2,-3,-1,-2
89307190507,-1,-1,1,-1,-2,-1,-1,-3
89307190507,1,-1,1,-2,0,-1,1,-1
89307211349,8,-1,0,0,0,1,-1,15
89307211349,-5,-1,1,1,-1,0,0,-5
89307212958,5,-2,-2,-1,0,0,1,5
89307212958,-6,-3,-2,0,-2,-1,0,-5
89307225797,4,0,0,-3,-2,-3,-2,3
89307225797,-7,-2,-3,-1,0,-3,-2,1
89307232512,-4,-3,1,-1,-1,-1,0,1
89307232512,18,3,1,0,1,-2,0,10
89307256641,1,-1,-1,-1,-4,-1,-2,-4
89307256641,7,0,-2,0,-1,-1,-5,0
89307258051,-9,0,-1,-1,-1,0,0,-6
89307258051,-7,1,1,0,0,-2,0,-10
89307271507,-1,-3,1,-3,-2,-1,0,-1
89307271507,-5,-3,0,-2,-2,-2,-1,-8
89307273091,5,2,-1,0,-1,-2,-1,2
89307273091,-5,-1,-1,1,0,-1,-1,-4
89307285922,-3,4,1,0,-1,-1,0,-5
89307285922,-4,-5,-4,-3,0,-2,-1,-12
89307292494,1,-1,-3,1,0,0,-2,-1
89307292494,-3,-1,0,0,-1,1,0,3
89307308848,-4,-2,1,1,0,-2,0,-3
89307308848,0,-3,-1,-3,-3,-3,0,0
89307310441,2,0,0,-2,-2,-1,1,1
89307310441,-4,-2,-1,-2,-2,-2,-4,-4
89307331602,1,-2,-2,-1,-1,-1,-1,0
89307331602,0,0,0,1,-2,-1,-1,1
89307332974,1,-1,0,-1,-1,-2,-2,-2
89307332974,-2,-4,-3,-2,-1,0,1,4
89307345748,-2,-1,-2,-1,0,0,-2,-3
89307345748,-1,0,-3,-2,-1,1,0,1
89307352735,-2,-1,-2,-1,-3,-1,-1,-1
89307352735,0,-4,-3,-3,-2,-2,-3,0
89307369084,-1,-2,-2,-2,-1,-1,0,13
89307369084,-3,-4,-2,-1,1,1,2,4
89307370464,19,5,2,1,0,0,0,-2
89307370464,-6,-2,-2,-1,-2,-3,-2,-3
89307391386,-2,0,1,0,-2,-1,-1,-5
89307391386,-4,-1,-3,-2,-2,-1,-1,-4
89307393145,-17,-5,-3,-1,0,-1,-1,2
89307393145,13,0,-2,-3,0,-1,1,3
89307405881,16,1,0,0,-1,-1,0,-3
89307405881,-6,-4,-1,-1,-2,-1,-1,19
89307412729,-2,-1,1,0,0,-2,0,-8
89307412729,-7,0,0,0,0,0,0,-7
89307428887,-9,-7,-7,-4,-5,-6,-11,-7
89307428887,12,1,2,-1,-1,0,0,-5
89307430472,-1,-3,-4,-3,-2,1,11,13
89307430472,12,2,2,1,-2,0,-8,13
89307451369,-13,-2,-3,-3,1,1,9,9
89307451369,-23,-4,-4,-3,-1,-2,-7,-27
89307452978,-21,0,2,1,-2,-5,-8,30
89307452978,-15,2,-1,-2,0,0,5,-22
89307465919,-16,1,2,1,-1,1,-3,-19
89307465919,4,1,0,-1,-2,-1,-2,4
89307472613,17,0,-3,-5,0,2,4,8
89307472613,-1,-3,-2,0,-3,-2,-4,-6
89307489053,-3,0,-1,0,0,1,-2,-4
89307489053,3,-2,0,2,-1,1,3,4
89307490523,1,-2,-3,-1,-3,-1,-13,-26
89307490523,-5,-2,-1,-1,0,-1,-1,6
89307511462,5,-1,0,0,-1,0,2,-3
89307511462,8,-2,-1,-1,-1,-2,-4,1
89307513051,-4,-1,-1,-1,-2,-3,1,-6
89307513051,-13,-3,-2,-1,1,-1,2,1
