timestamp,emg1,emg2,emg3,emg4,emg5,emg6,emg7,emg8
82142389800,-1,-2,-2,-9,-1,-2,0,-1
82142389800,-2,-2,0,2,-2,-2,-2,-2
82142391327,-3,-1,1,2,-4,-1,0,0
82142391327,-1,-1,0,9,0,-1,-1,-2
82142412193,-1,0,-2,0,1,-1,-1,-1
82142412193,-1,0,-5,-12,-2,-2,-2,-1
82142413790,-1,-1,-1,1,1,-1,-3,0
82142413790,-1,-1,0,2,-1,-1,-1,0
82142425840,0,0,1,1,-1,-1,-1,-3
82142425840,-1,-2,1,0,0,-1,-1,0
82142434840,-1,-2,-3,-2,0,-2,-2,0
82142434840,-2,-1,-1,1,-1,-1,0,-2
82142449725,0,-1,-1,-2,-2,-1,0,0
82142449725,0,-1,1,6,2,-2,-2,0
82142451286,-1,-1,-3,-6,-2,-1,-1,-1
82142451286,-1,-2,0,5,-2,1,-1,-1
82142472199,-2,-3,-1,4,2,0,-2,-1
82142472199,-2,-1,-2,-17,-2,0,-2,-1
82142473820,-1,-1,-6,-6,-1,0,0,-1
82142473820,1,-1,-1,1,-2,-1,0,-1
82142485861,-1,-1,-2,4,1,-1,0,-1
82142485861,0,0,0,-8,-3,-2,1,-1
82142494856,-1,-1,-1,7,-2,-3,-2,0
82142494856,1,0,-1,-4,0,0,-1,-2
82142509739,-3,-1,-2,1,-4,0,-2,0
82142509739,-1,-2,0,7,3,-1,1,0
82142511276,-2,0,0,-2,-1,0,0,-3
82142511276,0,-1,-3,-6,-2,-1,-2,0
82142532440,-3,-1,-1,0,-2,-1,-1,1
82142532440,0,-1,-1,0,-1,-1,-1,0
82142533931,0,-1,1,-3,-1,-1,-1,-3
82142533931,-1,-1,0,3,1,-2,0,-1
82142545992,-1,0,0,-1,2,-2,0,0
82142545992,-1,0,-3,-1,-1,-1,-1,-3
82142554833,-1,-2,-1,-1,-2,-1,-1,0
82142554833,-1,-1,-1,2,-1,-2,-1,-1
82142577158,0,-1,-1,-10,-2,0,-1,-2
82142577158,-2,-1,2,9,2,1,-2,-1
82142578788,-1,-2,-4,-7,-5,-2,-3,-1
82142578788,-2,-2,-1,3,-2,-2,-1,-1
82142592227,-1,-1,-1,13,4,-1,-2,-1
82142592227,-1,-1,-5,-8,-12,-3,-1,-3
82142593794,-1,1,1,3,2,1,0,-2
82142593794,-2,-2,0,-2,-1,-1,0,0
82142605874,-2,-1,1,-4,1,-2,-2,-2
82142605874,-2,-2,-1,13,-1,-1,-1,-1
82142614841,0,-3,-6,-20,-5,-3,-1,-1
82142614841,-1,-1,-1,1,-3,-1,0,0
82142629729,2,-2,-1,-3,-1,-1,1,-1
82142629729,0,0,1,4,3,-1,-3,-1
82142631277,-1,-1,3,13,-1,-2,-3,0
82142631277,-1,-1,-5,-16,-1,0,-1,-1
82142652147,-3,-3,1,2,-3,-3,-2,-1
82142652147,-3,-2,-2,-6,-1,0,0,-1
82142653833,-2,-1,0,-3,-2,-1,0,-2
82142653833,0,-1,-1,8,-1,0,-2,-1
82142665810,0,-1,-1,0,-2,-1,-1,-1
82142665810,1,-1,-3,-11,-2,-1,0,1
82142674832,-1,0,-1,1,2,0,-2,1
82142674832,-1,-2,0,10,5,-1,0,-2
82142689728,-2,-2,-8,-19,-15,-2,-3,-1
82142689728,-1,-1,2,5,3,-1,-2,0
82142691340,-1,-2,-3,3,0,0,0,0
82142691340,-2,-1,1,4,2,-1,-1,-2
82142712134,0,-2,-1,1,-2,0,-1,-1
82142712134,-1,-1,-2,-1,3,0,1,-1
82142713777,-1,-2,-1,-2,-1,-1,0,0
82142713777,-2,-1,-1,7,-1,-3,-2,-1
82142725814,0,-1,1,3,-1,-1,2,-2
82142725814,-3,-1,-5,-2,-4,-2,-1,0
82142734801,0,0,1,1,5,0,0,-2
82142734801,-1,0,-2,1,-9,-1,-1,-2
82142749633,-1,0,-4,-7,1,-2,-2,0
82142749633,-2,-1,1,7,0,0,0,0
82142751301,-1,0,-2,-5,4,0,-2,-1
82142751301,0,-2,0,3,-4,-1,0,0
82142772226,1,0,0,-1,2,0,0,0
82142772226,0,-1,-1,-6,-4,-1,0,0
82142773761,-1,-2,0,12,-2,-2,-1,-1
82142773761,-2,-2,-2,-25,-2,-1,-2,0
82142794667,-1,-2,-1,11,0,-1,-1,-2
82142794667,0,0,-1,-10,-2,-1,-1,-3
82142796289,0,-1,-2,-6,0,0,0,-2
82142796289,-1,-3,-2,-4,-7,-1,-2,-2
82142809740,-2,-2,-1,2,-1,-2,-3,-2
82142809740,-1,0,-1,-2,1,0,-1,0
82142811338,-1,0,-1,-3,-2,-1,0,1
82142811338,-2,-2,-2,-5,2,0,-1,0
82142832181,-1,-1,0,-5,-3,-2,-2,-2
82142832181,-1,-2,-2,16,-2,-3,-1,-2
82142833803,-1,-2,1,9,3,2,0,0
82142833803,-3,-3,-5,-21,4,-2,-1,-2
82142854755,-2,0,-3,-17,-10,-3,-4,-4
82142854755,-1,-1,1,16,2,0,-2,0
82142856346,0,-1,-3,-10,-1,2,2,1
82142856346,0,-1,0,22,2,0,1,1
82142868335,-1,-1,0,10,2,-1,1,2
82142868335,-1,-2,-2,-14,-1,-3,-3,-3
82142877345,-3,0,3,2,0,0,-3,-1
82142877345,1,-1,-1,12,-4,-3,-3,-3
82142892211,-4,-1,-4,-4,0,-3,-2,-1
82142892211,-2,-2,-1,-15,-2,-1,-1,-2
82142893832,0,-3,1,7,1,1,0,0
82142893832,-2,2,1,-12,2,-4,0,-2
82142914734,0,-2,-2,-10,-9,3,2,-1
82142914734,3,-5,-2,17,6,6,1,-2
82142916285,1,2,-2,-8,-12,-15,-7,-3
82142916285,-2,-1,-1,-6,7,-4,3,0
82142928372,0,0,-1,-13,-2,4,-3,-2
82142928372,-1,0,0,-7,1,3,-3,-5
82142937378,-1,-5,-7,-12,-9,2,1,3
82142937378,-3,-4,-4,-13,-9,-9,-6,-1
82142952237,0,1,1,1,0,-8,2,-1
82142952237,-3,-15,-6,-6,1,2,-4,-12
82142953852,-2,1,0,2,4,9,3,7
82142953852,3,3,1,5,4,-2,2,3
82142974753,-1,-4,2,35,13,19,2,1
82142974753,-6,1,-2,-24,-14,-14,0,1
82142976312,-1,0,-2,1,-3,-15,-9,-12
82142976312,-1,0,0,16,2,-8,-12,-6
82142988351,2,1,1,2,3,-5,4,7
82142988351,-1,1,1,20,0,22,10,-2
82142997366,-2,-3,-7,-15,-5,-7,1,0
82142997366,-1,1,1,-6,-6,-3,-12,-7
82143012185,-3,-2,-2,29,13,1,-8,-10
82143012185,-2,0,-2,-16,1,3,3,-2
82143013804,-1,-9,-1,1,-11,3,7,13
82143013804,0,-2,2,13,-3,-17,7,7
82143034710,0,-2,-2,-3,1,17,-4,-4
82143034710,1,1,-1,7,4,-16,-6,2
82143036307,0,4,1,-19,-7,-6,-6,-12
82143036307,-2,-5,-6,-35,-8,7,6,-1
82143048336,-2,-2,-4,-10,-2,3,1,3
82143048336,7,19,0,32,-1,-13,-15,5
82143059092,-3,-6,1,10,11,-2,13,-7
82143059092,-1,-1,-3,-17,-9,-9,-3,2
82143072207,-1,-2,-2,15,5,7,-6,-2
82143072207,-2,2,2,-19,2,18,2,-3
82143073819,-2,1,3,3,11,14,0,7
82143073819,-6,-5,-9,1,-14,-9,2,-11
82143094764,0,1,-1,-31,-8,-15,-2,11
82143094764,-2,-5,-5,-2,-3,-4,1,2
82143096283,-1,1,3,20,0,-5,0,-3
82143096283,-1,-2,0,-8,3,-6,-5,-4
82143108326,1,0,-2,-4,8,3,5,-1
82143108326,-2,-4,-1,15,-17,-10,-2,5
82143117371,-4,-3,-6,-2,-1,5,-11,8
82143117371,-1,1,-1,-24,-3,-1,16,-18
82143132182,-1,0,-3,1,14,-9,-5,8
82143132182,6,-2,1,6,-3,4,-21,10
82143133834,-5,0,0,3,-7,-15,0,-37
82143133834,5,1,0,-30,8,57,18,36
82143154708,3,-1,7,7,-19,-46,4,0
82143154708,-8,-7,-3,-35,-10,-27,-6,-16
82143156296,0,1,0,4,-11,-30,-10,2
82143156296,-1,5,2,25,8,-33,-29,-13
82143168367,3,-15,1,-24,6,93,36,8
82143168367,-1,-2,-3,27,13,29,28,23
82143177368,7,0,0,-9,7,-6,-7,12
82143177368,-8,-1,-3,-5,-21,-23,-34,-53
82143192207,4,5,-2,-28,1,-68,-27,17
82143192207,1,0,5,28,7,-15,-5,4
82143193856,-2,-7,-4,-18,-17,26,22,17
82143193856,-4,-3,2,48,0,7,6,-53
82143214735,-3,-2,-8,9,-8,-3,-8,5
82143214735,-4,-5,-8,-54,-23,4,-7,-15
82143216260,0,2,-4,-3,10,-15,18,29
82143216260,1,4,11,10,23,59,4,-3
82143228330,-5,0,-3,-7,-2,-22,-39,-35
82143228330,4,-2,-2,13,1,1,38,26
82143237377,2,1,1,18,16,-23,-19,-88
82143237377,-5,-3,-4,-11,-37,6,7,86
82143252220,12,12,2,15,17,4,-3,13
82143252220,2,-8,-2,-7,2,4,-1,71
82143253834,-3,-3,-6,-53,-11,3,-34,-33
82143253834,-16,-6,-5,25,31,5,8,-38
82143274710,21,6,4,24,-24,-24,10,34
82143274710,-14,1,-1,-29,-11,-2,-8,-4
82143276328,5,4,2,14,2,9,26,29
82143276328,3,-5,-5,-4,3,-7,-16,15
82143288421,-15,-11,-17,-53,-41,6,-7,-67
82143288421,6,6,8,51,2,-17,-12,3
82143297268,0,4,2,31,28,43,9,-10
82143297268,7,0,0,-2,-25,-19,2,50
82143312169,-8,-8,-3,-35,-3,-6,9,-32
82143312169,-4,1,-9,-31,-5,-13,-3,-19
82143313794,-15,-2,12,14,21,-12,-35,-4
82143313794,0,0,-6,23,5,12,29,50
82143334736,-7,-4,4,22,0,2,1,26
82143334736,-11,0,12,6,1,11,-7,-40
82143336302,9,6,-15,2,2,6,15,39
82143336302,-2,-4,9,29,21,-5,-11,-45
82143348362,-23,-6,5,24,-8,2,-3,-74
82143348362,8,12,-8,-31,-15,-18,-6,10
82143357369,-3,6,3,21,12,18,-10,-45
82143357369,12,-2,10,-51,-1,-3,10,80
82143373507,-10,0,7,7,-9,-1,0,-21
82143373507,-18,-6,0,26,29,3,-14,-31
82143375226,9,-6,3,-28,-45,-7,9,15
82143375226,-2,4,-10,3,12,5,-19,-10
82143394674,-3,1,-16,-10,7,9,5,33
82143394674,0,-6,-1,-6,-26,-8,13,-12
82143396366,-2,-4,-13,-28,-20,-10,-13,16
82143396366,-5,-7,-11,6,22,3,-3,-38
82143408277,3,1,5,-22,-21,-6,-4,15
82143408277,0,-4,3,27,14,-1,-5,-11
82143417377,-7,-6,-8,-47,-5,-6,-14,-8
82143417377,-1,-2,-7,-42,-46,-13,10,-24
82143432206,4,0,4,12,29,21,13,20
82143432206,2,8,-2,4,-2,-2,-18,-23
82143433847,-5,-8,-1,55,-9,-13,-14,17
82143433847,10,0,-9,-19,-16,0,20,21
82143454707,3,6,5,15,17,3,-34,-38
82143454707,4,-4,-1,-32,18,17,46,67
82143456354,-10,-2,5,22,2,-9,-22,-54
82143456354,1,6,18,46,-19,-10,0,7
82143468346,-12,-8,-18,-39,-15,-6,-2,-40
82143468346,8,-5,3,23,29,5,-4,22
82143477357,-7,-4,-9,-45,-43,-3,-34,-53
82143477357,7,3,7,24,26,9,39,36
82143491540,0,-4,1,47,-4,-12,-7,2
82143491540,-5,-8,6,-5,16,-13,-17,-2
82143498311,1,-3,-13,-72,5,7,5,27
82143498311,6,4,3,32,-22,-1,-23,-30
82143514737,13,16,-4,16,17,-3,-33,-11
82143514737,-29,-24,-19,11,-34,-15,0,-31
82143516275,15,-3,5,26,1,-2,27,75
82143516275,-21,-3,-1,4,35,-2,-21,-102
82143528333,1,-6,-9,-50,-46,-2,13,-7
82143528333,4,3,-12,-11,-11,-3,-49,-39
82143537304,14,9,2,-3,16,0,56,48
82143537304,-8,-6,-1,-55,-24,-12,-33,10
82143551478,0,0,6,58,30,7,39,27
82143551478,2,5,-5,-6,6,9,-14,-25
82143558377,-18,-4,-9,-42,-7,-2,-14,-32
82143558377,-3,-9,-1,-12,8,-6,-7,59
82143574625,7,-10,2,2,-2,-9,29,41
82143574625,4,5,9,21,6,0,12,25
82143576282,-3,6,2,22,17,14,0,4
82143576282,1,1,-9,-2,-26,-9,-3,-10
82143588387,-10,-5,1,-32,4,-2,-14,-27
82143588387,7,-15,-6,2,11,1,25,2
82143597359,-4,4,11,22,20,1,20,-2
82143597359,-3,3,-1,-34,-10,-7,-13,-9
82143612982,-2,-2,-12,-4,11,11,-9,-13
82143612982,-10,-9,-2,-6,1,-3,-32,-59
82143618480,-1,-1,12,41,5,2,34,8
82143618480,1,-5,-9,-41,9,-1,12,-23
82143634727,-7,4,0,19,-19,-8,-8,15
82143634727,0,7,0,13,-12,1,3,-33
82143636292,-2,2,3,11,-3,-1,2,24
82143636292,-12,-5,-4,39,22,0,-16,-40
82143648329,-10,-1,2,-49,-19,-3,-26,77
82143648329,20,-7,-3,-9,-10,3,48,15
82143657331,1,3,3,13,-12,-5,-10,31
82143657331,2,-3,6,13,14,5,3,45
82143671516,3,-1,10,37,27,0,31,-9
82143671516,-5,14,-22,-52,-37,-7,-7,-12
82143678302,-2,-15,9,12,9,2,-5,31
82143678302,-3,-7,-2,-17,-5,9,3,-3
82143694660,-12,-5,1,-23,-22,-15,-14,36
82143694660,-39,-3,-13,-13,6,4,-3,-7
82143696310,-1,-4,-13,2,-11,-5,-5,-60
82143696310,23,-16,-64,1,8,-4,-18,4
82143717202,-60,-19,21,-5,4,3,12,-85
82143717202,28,50,-55,-12,-9,-8,8,17
82143718813,-8,-32,27,28,3,-1,-9,51
82143718813,5,7,-37,-11,-15,-13,4,-11
82143731571,28,-11,87,50,22,16,-25,-32
82143731571,27,21,29,70,16,5,23,26
82143738303,-68,-12,-30,-17,-17,-5,-4,11
82143738303,-42,-17,9,11,-9,-5,19,10
82143754720,53,2,-95,-3,0,-2,-5,20
82143754720,-36,-9,-1,-29,-7,-7,-32,33
82143756286,29,1,116,3,2,-3,-27,-93
82143756286,40,25,32,-39,-11,1,37,15
82143777218,35,22,-68,31,12,-1,-4,-19
82143777218,-26,-31,5,-43,0,-5,-11,-10
82143778826,10,6,-47,-64,-14,13,18,-31
82143778826,-13,2,4,11,3,5,-11,-2
82143791508,-28,4,10,22,8,4,-5,-28
82143791508,21,-9,9,25,10,-13,-10,-31
82143798329,14,15,-8,-14,-8,-3,6,19
82143798329,-2,-4,10,-11,-5,-5,0,0
82143814738,-10,-3,12,9,-2,5,-1,21
82143814738,-8,-5,31,-17,0,19,-18,-18
82143816288,-5,-7,-31,12,16,5,2,0
82143816288,-11,2,14,5,0,-1,4,-27
82143837115,9,1,6,-5,3,14,28,66
82143837115,3,-3,0,4,-7,-15,-11,-2
82143838775,1,0,-9,-7,3,-6,-19,-25
82143838775,7,3,6,4,-5,-10,-7,-10
82143850849,-5,-2,8,14,-16,-30,-13,-6
82143850849,11,1,13,-9,6,21,15,25
82143859883,2,1,-9,39,20,5,8,5
82143859883,-7,-3,3,-17,-8,5,-6,-1
82143874797,-8,-5,-2,-17,-3,-7,5,5
82143874797,-1,-8,16,16,5,3,9,-4
82143876340,3,1,-25,7,-7,-12,-5,-10
82143876340,-6,-1,-13,6,10,0,-11,-10
82143904656,10,-2,16,-17,1,9,8,-4
82143904656,7,15,3,42,-1,-5,4,5
82143906273,-2,0,-11,-15,1,-3,-8,0
82143906273,-20,-6,4,10,1,2,-2,4
82143910858,-5,-2,-5,-36,-10,3,6,2
82143910858,-5,-7,-10,-32,-2,-5,0,0
82143919805,0,-5,2,31,-1,-6,-2,3
82143919805,14,16,12,58,2,2,-1,-8
82143934698,-4,-2,2,-79,-22,-4,1,-3
82143934698,1,1,-6,20,0,-2,-1,-3
82143936251,-12,-10,-3,2,-4,0,-1,-3
82143936251,-1,-11,-3,-22,3,1,1,-2
82143957200,-2,6,2,7,5,-3,-3,2
82143957200,0,-13,-3,-17,-12,-2,-1,4
82143958815,11,8,6,-8,-7,0,4,5
82143958815,-3,-2,2,19,6,0,-5,-2
82143970796,1,-3,-5,-7,3,-5,-2,1
82143970796,-2,0,2,-15,-3,2,3,4
82143979832,-1,1,-3,17,0,-3,-5,-6
82143979832,-2,-1,1,-17,-1,-2,-2,0
82143994732,-4,-2,-4,9,9,1,0,-3
82143994732,5,-1,5,2,-6,0,3,2
82143996283,-5,-6,-11,-84,-27,-8,-4,-5
82143996283,7,4,0,20,0,-3,-3,2
82144017185,-16,-11,-5,6,3,-2,-2,-3
82144017185,-9,-15,-6,1,0,-2,-2,-3
82144018817,-5,2,3,4,3,2,0,-1
82144018817,0,-1,2,-2,-1,-1,-1,-1
82144030870,2,3,0,-10,2,0,1,-1
82144030870,0,-1,-2,8,-10,-1,0,-1
82144039861,-4,0,-3,-6,-2,-3,-1,1
82144039861,-5,5,6,-5,3,3,1,-2
82144054692,-22,-10,-4,6,-5,-4,-4,-7
82144054692,-9,-7,1,-13,-2,-2,1,0
82144056276,3,3,2,38,12,0,-5,-1
82144056276,-5,-1,-4,-6,-2,1,3,3
82144078617,-8,-14,-1,-7,-4,-4,-3,-1
82144078617,5,4,-1,-19,-2,1,1,-3
82144080257,0,0,-3,7,4,0,1,-3
82144080257,-3,-10,-1,-32,-19,1,1,0
82144090836,10,9,3,32,6,1,-3,0
82144090836,3,-1,0,14,6,-12,-5,0
82144099859,5,0,0,19,3,1,-1,-2
82144099859,6,3,3,-35,-5,-1,-4,-1
82144114712,-2,0,-6,-12,-6,-4,5,0
82144114712,8,2,0,8,3,13,-2,0
82144116275,3,5,3,11,10,4,1,0
82144116275,-18,-14,-1,-1,-3,-9,-3,-3
82144137201,0,1,1,0,-5,-1,-2,-1
82144137201,-5,0,-6,-21,-3,-6,-1,-2
82144138779,-3,-1,-1,-7,-12,1,0,-2
82144138779,12,2,-7,14,-7,2,-2,1
82144150835,0,9,2,-3,3,-9,2,-1
82144150835,-6,-5,0,5,2,5,-2,-2
82144159821,-2,-1,0,9,6,0,-1,-1
82144159821,-1,0,3,15,7,-2,-3,-1
82144174720,2,-2,-2,-8,-5,3,1,4
82144174720,4,5,-1,-13,1,2,0,-2
82144176287,-10,-3,-4,8,-5,-8,-3,-3
82144176287,-1,-4,-2,17,5,-5,-3,-1
82144197220,5,2,-1,4,1,-3,0,-2
82144197220,7,2,-5,-5,-1,8,1,1
82144198784,-2,-4,-5,-40,-9,-1,-4,-2
82144198784,-1,0,-2,5,3,1,-1,-1
82144219662,5,1,-3,-21,-3,-2,0,-2
82144219662,-7,-4,0,2,-2,-6,-2,-1
82144221283,3,-2,-1,-13,-18,-5,-1,-2
82144221283,-2,0,-2,4,2,3,0,-3
82144234731,0,-3,1,-1,-1,-5,-7,0
82144234731,-2,-4,-1,6,5,-1,4,2
82144236334,0,-1,0,-19,2,5,1,-2
82144236334,8,-3,-2,-1,2,0,0,-2
82144257319,-4,-9,1,3,0,6,0,0
82144257319,6,3,-6,0,-15,-8,-3,-4
82144258831,-2,0,0,-2,5,5,0,0
82144258831,2,-2,-4,1,-1,-16,3,0
82144270848,1,4,-1,8,2,6,-5,0
82144270848,-2,-2,2,1,3,2,1,0
82144279809,1,-4,-6,-32,-4,-6,0,-2
82144279809,0,5,-2,-43,-12,3,-1,-1
82144294652,-2,0,1,31,2,-5,-3,-4
82144294652,-3,-2,-6,-14,-17,-4,-3,-2
82144296273,4,6,-2,25,14,0,-2,-1
82144296273,-10,-7,2,21,10,6,-2,-1
82144317168,-1,0,-2,-7,-1,-4,0,-1
82144317168,-3,-2,1,-2,-5,0,-2,-2
82144318779,1,0,0,14,-6,-5,-2,-2
82144318779,-2,1,-2,-4,1,-2,-2,-1
82144330856,2,0,0,13,-1,2,0,-1
82144330856,-1,13,0,4,7,-2,-2,-2
82144339824,-4,-6,-2,-21,-10,-1,-2,-1
82144339824,1,0,0,11,1,-4,-1,0
82144354707,-2,-1,1,-8,-6,1,-3,-3
82144354707,-2,1,-4,1,6,-2,0,-2
82144356258,-4,-4,2,-18,-8,-3,0,1
82144356258,12,5,0,-3,-2,2,-1,1
82144377277,-1,2,-2,-7,-3,1,2,0
82144377277,0,-6,-3,-1,-2,-6,1,-1
82144378837,-20,0,1,18,3,3,-2,-2
82144378837,-5,-5,-1,-3,2,1,0,-2
82144390823,-1,-3,-4,24,0,-2,0,-2
82144390823,-1,-2,3,-22,2,-3,-3,0
82144399834,1,-6,1,31,-4,1,0,-2
82144399834,3,4,1,-8,-4,2,-1,0
82144414038,-3,-1,-2,-3,2,-1,0,0
82144414038,-3,-6,-2,-3,-3,-3,0,-1
82144428374,6,21,4,-2,-1,-6,-1,-2
82144428374,-4,-4,-3,-4,1,1,-2,-1
82144437182,4,-1,-1,5,-1,-2,-2,-3
82144437182,-1,-4,-1,0,2,0,-2,-2
82144438783,4,5,1,-1,4,3,1,3
82144438783,-4,0,-1,3,-3,-3,-2,-2
82144450858,0,1,0,-15,-4,-2,-1,-2
82144450858,-2,-1,-3,6,0,-1,0,0
82144459835,1,-8,-1,-3,0,-3,-1,0
82144459835,-5,-3,-1,3,0,-3,-1,-3
82144474007,-2,-3,-2,-5,-6,0,-2,0
82144474007,-1,-2,-2,7,0,3,-2,-2
82144480861,2,-4,-2,-7,-1,-3,-2,-1
82144480861,-2,-2,-1,-5,-3,-1,-2,-2
82144497175,0,1,-2,-12,-1,1,0,-1
82144497175,1,-1,1,4,1,-1,0,-1
82144498826,0,-4,-1,-3,1,-2,-1,-2
82144498826,-3,0,-1,-1,-1,-1,-3,-2
82144510829,-2,0,1,-1,1,-1,0,0
82144510829,-4,-5,-3,11,-6,-5,-2,-1
82144519835,-1,-4,-4,5,-2,-3,1,-1
82144519835,-2,-2,-2,0,-2,-1,-1,-2
82144534046,1,-1,-1,5,2,1,0,-3
82144534046,-1,-2,-1,-2,0,-1,0,-1
82144540834,-1,-1,-3,-9,-3,-2,-2,-1
82144540834,-1,-2,-1,5,-1,-2,-1,0
82144557173,-1,-2,-3,-11,-5,-1,-1,-2
82144557173,0,1,-1,-8,-1,0,-2,1
82144558797,-2,-3,-1,3,-2,-3,-3,-1
82144558797,-1,0,1,-2,0,-3,-2,-1
82144570871,-1,1,0,-1,-1,-1,-3,0
82144570871,-1,-2,1,-10,-1,-1,-1,0
82144579815,0,2,3,8,2,-1,-2,2
82144579815,1,12,0,9,0,-1,-3,0
82144594014,-3,-11,-2,-10,-1,-1,-1,1
82144594014,-2,-1,-1,-1,1,0,0,0
82144600850,-1,-1,-3,0,0,-2,-1,1
82144600850,16,0,0,4,7,3,2,2
82144617211,-3,2,-3,2,-10,-3,-2,-1
82144617211,-3,-3,1,-6,3,-1,1,-6
82144618829,-1,-7,-4,22,-5,-3,-1,-10
82144618829,1,-3,2,-6,5,-1,0,-7
82144639732,-1,-2,1,-6,2,-3,0,-4
82144639732,-2,-13,0,0,-1,-1,0,0
82144641316,17,24,9,8,6,-1,0,4
82144641316,-11,-13,-7,-43,-10,-2,-3,5
82144653998,-2,1,-5,-4,-1,-1,-1,4
82144653998,-2,7,-2,7,0,1,-1,4
82144660791,-5,-1,-3,-15,1,-1,-3,1
82144660791,-4,-1,-1,12,-1,-1,-1,0
82144677127,-12,-6,-3,-13,-3,0,0,-3
82144677127,1,-1,-2,5,0,-2,0,-2
82144678779,-5,-7,-2,-7,-2,0,2,-3
82144678779,-4,-1,-2,2,-3,-2,1,-6
82144699756,1,0,-3,4,1,1,0,-5
82144699756,16,-2,-5,1,-2,-1,-1,-3
82144701326,-1,-2,-2,-8,0,0,0,-2
82144701326,-4,-1,1,-4,-7,-3,0,-3
82144713996,2,1,3,-5,1,-2,0,0
82144713996,0,2,1,-10,-1,0,1,-1
82144728361,2,11,-4,-7,-2,0,-1,-2
82144728361,-1,-1,-7,17,-4,-1,-2,0
82144737187,3,1,-3,-18,-9,-3,-1,-1
82144737187,-7,1,-1,-3,-3,-2,-2,-1
82144738798,-5,-6,0,-16,2,-1,-1,0
82144738798,-3,2,-1,21,1,-1,1,0
82144759734,0,0,1,9,1,-1,1,-1
82144759734,-4,6,-1,0,0,-1,-1,0
82144761321,-3,-9,0,0,-4,-1,-1,0
82144761321,0,-2,0,-15,-2,0,-1,-2
82144773336,0,-2,0,2,0,1,-1,0
82144773336,4,8,0,0,-1,-2,-2,1
82144782324,9,-1,-2,-1,-1,0,0,1
82144782324,-2,-1,-2,-6,-4,-2,-3,-1
82144797213,-2,-1,-1,1,4,0,-1,-1
82144797213,-2,-1,0,7,-2,-1,-1,-1
82144798783,-4,-6,-3,-4,-5,-1,0,-1
82144798783,0,2,1,6,1,-1,0,-1
82144819654,5,6,0,-2,-1,-1,-2,0
82144819654,-27,-20,-4,-8,-3,-2,-3,-3
82144821295,-4,-3,-2,-1,-1,-1,-2,-1
82144821295,-1,-2,0,-6,1,-1,-1,-1
82144833335,-1,-3,0,-5,0,0,0,0
82144833335,5,0,-3,16,0,0,-2,-1
82144842369,-3,-4,-1,0,2,-1,-2,-2
82144842369,-1,0,-1,-14,-5,-1,-1,-2
82144857215,0,2,-1,20,5,0,-1,-2
82144857215,2,-1,-1,-29,-8,2,0,-2
82144858810,0,5,-2,-23,-6,-3,-1,0
82144858810,-5,-19,-3,1,2,-2,-2,-3
82144879769,2,-1,0,-10,-2,-1,-1,-1
82144879769,-2,-1,-2,8,0,-1,-1,-1
82144881279,-4,-5,-1,15,3,0,-2,-1
82144881279,0,15,0,-9,-3,-1,0,0
82144893359,-5,-10,-5,-1,-2,-2,-1,-1
82144893359,-5,-8,-3,6,2,0,1,1
82144902271,10,8,2,-2,-4,0,0,-1
82144902271,-11,1,-2,6,0,-1,-2,-3
82144917150,1,3,2,-1,-1,-2,-2,-1
82144917150,5,6,1,-4,0,0,1,2
82144918747,-19,-13,-6,-10,-4,-2,-3,-2
82144918747,2,-3,1,44,1,-2,0,-1
82144939717,0,-1,-1,-12,-2,-3,-1,-1
82144939717,-4,-1,-1,-11,0,0,-1,-2
82144941283,-5,-3,-2,8,-1,-2,-1,-3
82144941283,8,7,-1,-10,2,0,-1,1
82144953403,-6,-23,-5,-13,-9,-1,-3,-1
82144953403,0,2,-1,5,0,0,-1,1
82144962290,2,4,2,9,2,1,0,-1
82144962290,-1,2,-2,2,0,-1,-1,1
82144977187,-2,4,-1,-3,-1,0,1,0
82144977187,3,-1,0,-4,-1,-1,-1,-5
82144978782,6,-17,-6,4,-1,0,-1,0
82144978782,20,5,3,-11,-3,0,0,8
82144999787,0,6,-2,2,-2,1,2,4
82144999787,1,1,1,16,-1,-2,0,0
82145001284,-4,2,-1,-5,-2,-1,0,-2
82145001284,3,-8,-3,-8,-2,-2,1,3
82145013311,-4,7,0,4,1,0,-2,-3
82145013311,-3,-4,-4,-1,-1,-2,0,15
82145022371,14,0,0,-4,-2,-2,-1,17
82145022371,-1,14,0,-6,-3,-1,-2,-8
82145037148,10,0,-1,8,-1,0,-3,3
82145037148,-17,-5,-3,-2,-1,-1,-4,-13
82145038786,3,0,0,-3,0,-2,-2,-14
82145038786,-17,-6,-1,2,-1,0,-1,5
82145059729,11,4,-1,3,1,-3,-3,-3
82145059729,-13,-22,-3,-3,-1,-1,-4,-5
82145061325,-18,9,1,2,-1,0,0,-1
82145061325,0,-3,0,-1,2,-1,-2,-6
82145073349,-5,-2,0,1,1,1,0,-4
82145073349,7,11,2,-1,-1,0,0,2
82145082299,7,-3,-3,-2,0,-3,2,9
82145082299,-6,-10,-2,-5,-2,1,-1,-5
82145097162,-6,2,-1,1,-1,-2,0,-1
82145097162,7,5,-1,-1,-1,-2,-1,1
82145098813,-5,-5,-3,-2,0,1,-1,2
82145098813,1,-2,-1,8,0,0,-1,-2
82145119648,1,3,-1,0,-4,0,0,-3
82145119648,-1,1,-1,-1,-1,-1,-1,-13
82145121280,21,28,3,-6,-2,0,0,21
82145121280,-3,-9,-2,-3,-1,-2,2,-2
82145133335,3,0,-1,4,0,-3,-2,-1
82145133335,6,-1,-3,1,-1,0,-1,4
82145142385,5,-1,-1,-2,-2,-1,-2,-33
82145142385,10,0,-1,0,0,1,-1,13
82145157183,14,8,1,-2,0,0,3,3
82145157183,-12,-2,-1,-3,0,-1,-1,-12
82145158812,7,-8,-4,0,0,-2,1,5
82145158812,-29,-17,-4,-5,-2,-4,-5,0
82145179759,10,-3,2,-1,2,-1,-1,-21
82145179759,-2,17,-1,0,-2,-1,-1,14
82145181286,-17,-24,-1,1,0,2,1,5
82145181286,-1,5,-2,-6,-3,-2,-7,-11
82145193331,-14,4,-2,-2,0,1,1,2
82145193331,2,-5,-1,2,-1,-2,-2,-1
82145202283,-8,-4,-1,0,-1,-1,-5,-14
82145202283,-4,3,-1,-1,-2,0,-2,-20
82145217157,-10,-2,-4,-2,-1,0,-4,-4
82145217157,6,4,0,0,0,0,-2,-5
82145218795,-9,-6,2,-2,-2,-2,-2,-1
82145218795,1,0,-1,0,2,-1,0,3
82145239687,3,9,0,1,-1,-2,-1,12
82145239687,3,-5,0,-2,-1,-2,-1,-5
82145241283,-20,-6,-5,-4,-2,-1,-4,1
82145241283,5,0,-1,-1,0,-1,1,3
82145253362,1,-3,0,-1,0,-2,0,4
82145253362,-7,7,0,2,0,-3,-1,-1
82145262338,9,-3,2,0,-1,-1,-1,-3
82145262338,8,2,0,-7,-1,-1,3,4
82145277155,-17,-11,-2,11,-2,-1,-3,-15
82145277155,-3,-1,-3,-6,-3,-1,-2,-5
82145278803,-6,3,1,3,-1,-2,-2,0
82145278803,1,-2,-1,-2,-1,-2,1,-7
82145299708,-4,-6,-1,-1,0,-1,-2,2
82145299708,4,-5,-1,0,-1,-1,0,10
82145301318,-4,1,-2,-2,-1,-1,-1,-23
82145301318,-3,-2,-2,2,-2,0,-1,1
82145313299,-2,-8,-4,-3,-3,-2,-3,3
82145313299,-9,2,-1,1,-2,-1,0,-20
82145322343,-2,3,-1,-2,0,0,1,2
82145322343,-1,-17,-1,-2,-2,-1,-1,3
82145337191,2,-3,-1,0,0,-1,-3,-21
82145337191,3,-2,-3,-8,-1,-2,0,25
82145338810,23,-4,-4,0,-2,-2,-1,25
82145338810,-3,-1,-1,0,-1,-1,-3,-3
82145359665,-18,-10,-3,-6,-3,-2,-5,-47
82145359665,8,-5,2,2,2,-1,1,8
82145361258,-7,-3,-2,-4,0,-1,-3,-2
82145361258,-3,-1,-3,0,-1,0,1,-2
82145373336,2,3,-1,-3,-1,-1,0,25
82145373336,-2,0,0,-2,-2,-1,0,-6
82145382359,-12,5,-2,3,-2,-1,-2,6
82145382359,-10,-21,-5,2,0,-1,-2,-5
82145396573,12,10,3,-6,-1,0,2,19
82145396573,2,-6,0,0,0,-1,1,1
82145403332,17,12,2,-2,-1,-1,0,4
82145403332,-5,4,-1,1,-2,-2,-1,-2
82145419742,-20,-6,-2,-2,-2,-3,-3,-25
82145419742,8,-5,-1,-1,0,0,1,-1
82145421275,-3,-5,-2,0,0,-1,-1,-7
82145421275,-3,7,-2,-3,-1,1,-3,6
82145433368,2,-2,0,-1,-2,0,0,-1
82145433368,-8,2,-2,-3,-4,-1,-5,-10
82145442343,5,-6,-3,-1,0,-2,-2,-3
82145442343,-6,11,1,1,-3,0,1,-9
82145456490,-7,-3,-3,-1,-2,-1,-1,8
82145456490,2,24,-3,-3,-3,-2,-3,2
82145463308,2,-3,1,0,1,0,0,6
82145463308,2,0,-2,1,-1,-2,-1,-3
82145479696,-1,-3,0,2,0,1,-1,10
82145479696,-2,-2,-2,-2,-1,-3,-3,1
82145481247,-19,-3,0,-3,-2,-1,-4,-2
82145481247,12,6,0,0,-1,-2,0,2
82145493348,1,2,-2,-3,0,0,1,4
82145493348,12,-1,0,-2,-2,-2,0,-5
82145502361,1,-2,-3,-2,-3,-3,-1,-4
82145502361,-9,-3,-1,-1,-2,-3,-4,-37
82145517219,-7,-5,-4,1,0,-1,-1,10
82145517219,-4,-11,0,2,0,-2,0,2
82145518798,15,-5,-4,-3,-2,-1,0,1
82145518798,4,14,1,-10,-1,-1,-2,15
82145539691,1,-2,-2,-1,-1,-1,-1,-4
82145539691,-8,-6,0,1,-3,-1,-1,-8
82145541282,6,21,2,5,-2,0,0,1
82145541282,-3,-19,-5,0,-1,1,0,6
82145562263,4,7,0,-3,-1,0,0,0
82145562263,4,3,1,1,0,0,1,9
82145563855,-7,0,-1,-1,-2,-1,-1,-5
82145563855,3,-3,-1,-1,-1,-2,-1,11
82145577179,-8,-1,2,-1,-1,-1,0,2
82145577179,-7,-9,-3,-2,-1,0,-1,-5
82145578805,14,0,1,1,-2,0,1,1
82145578805,1,5,0,2,0,-1,-1,-2
82145599668,9,-4,-3,-5,-4,-2,-1,4
82145599668,-5,-4,-3,-3,-1,0,-3,-1
82145601298,-7,2,-1,-2,0,0,0,19
82145601298,8,-9,0,1,0,-1,1,-16
82145622141,-17,0,-2,-1,-3,-1,1,13
82145622141,11,0,-1,-3,-2,0,-1,8
82145623763,-6,-1,-3,-2,-1,-1,-2,-2
82145623763,-7,1,-2,-1,-1,0,-1,-4
82145637168,2,-2,-3,-2,0,-2,-2,-6
82145637168,-2,-4,-1,0,-2,0,0,1
82145638799,-6,-7,-3,-2,-3,-2,-2,-6
82145638799,-4,0,-3,0,-2,-2,0,4
82145659620,-2,-4,-2,-2,0,-3,-1,-7
82145659620,-5,1,-1,0,0,-1,-1,0
82145661228,-14,-5,-3,-3,0,0,-2,-18
82145661228,-11,-1,-5,-7,-5,0,-1,0
82145682189,3,1,2,5,1,-1,0,2
82145682189,-2,-2,0,6,-2,-1,-1,-9
82145683808,-4,-7,-3,-4,1,-2,-1,-2
82145683808,0,10,0,-1,0,-1,-1,3
82145696506,2,10,1,-4,-2,-1,-2,28
82145696506,6,-9,0,-3,-2,0,0,-11
82145703296,-5,-2,1,2,1,0,-1,-4
82145703296,1,5,0,-1,0,-2,-2,4
82145719637,6,-1,0,2,2,0,0,-2
82145719637,4,18,0,-2,0,-2,0,0
82145721287,2,-4,-1,0,-3,-2,-1,3
82145721287,9,-3,-2,-1,-3,0,-1,5
82145742163,-2,-7,0,-2,-1,0,-2,-6
82145742163,-8,-6,-2,-1,-1,-1,-2,-1
82145743800,14,3,1,1,-1,-1,0,-4
82145743800,0,-6,-2,4,-2,-1,-3,1
82145756533,7,11,0,-9,-1,-1,-3,-13
82145756533,-6,-2,-3,2,2,1,0,8
82145763324,3,5,1,0,1,-1,0,1
82145763324,-3,-8,-2,0,0,-1,-1,-2
82145779736,-6,-8,0,1,0,-1,1,-29
82145779736,0,-2,-2,-4,-2,-1,-2,-7
82145781341,-6,-5,-1,-5,-1,0,-1,0
82145781341,0,6,0,3,-2,-1,-1,0
82145802150,1,7,-3,1,-3,-1,-2,4
82145802150,-8,-19,-2,0,-1,0,0,0
82145803754,-5,-4,-2,-2,0,-3,-1,-2
82145803754,0,1,0,-2,0,-1,-1,3
82145816539,-13,-3,-4,-3,-4,-3,-3,-3
82145816539,-1,-1,-1,-4,-1,-2,-2,-3
82145823299,-1,-3,-2,1,-3,0,0,0
82145823299,-1,4,0,0,0,0,0,0
82145839493,9,0,1,0,0,0,-2,-2
82145839493,-2,-1,1,-1,-2,0,0,7
82145845809,-4,-4,-3,-1,-2,-2,-1,-1
82145845809,-27,0,-2,-4,-2,-2,-3,-2
82145862182,-1,1,1,2,-1,0,-1,10
82145862182,10,1,-2,-2,-3,-1,2,7
82145863790,-2,5,0,-1,-1,0,-2,-2
82145863790,3,-9,-2,0,0,-2,0,0
82145876462,-1,-5,0,0,-1,0,-1,3
82145876462,-8,-1,-1,-1,-1,-2,-2,-8
82145883282,-6,-5,-2,-3,-2,0,-2,0
82145883282,8,14,-1,-3,0,-1,-1,-1
82145899669,-2,-3,-1,-2,-3,-2,-3,-2
82145899669,-1,2,-1,0,-1,-1,0,-3
82145901287,3,1,-2,-1,-2,-1,2,-5
82145901287,0,-3,-1,2,-2,-1,-2,-2
82145922186,2,-2,-1,1,-1,-2,1,-1
82145922186,-9,-1,-1,2,-1,-1,-3,-4
82145923808,-4,3,-3,-7,-3,-2,-2,-1
82145923808,1,-6,0,-3,-1,0,0,-1
82145936491,-3,-7,-3,-2,-1,-1,-1,-1
82145936491,-20,-5,-4,0,-2,-2,-1,-26
82145943300,-3,-5,1,0,0,1,1,2
82145943300,0,1,-2,-1,0,-1,-1,0
82145959691,5,-9,-2,-1,0,0,0,-1
82145959691,19,8,3,-1,0,1,-1,5
82145961282,0,15,0,1,-1,-1,-1,0
82145961282,0,-15,-3,1,-1,-2,-1,-4
82145982161,0,3,-2,-2,-1,-2,-2,3
82145982161,0,-1,-1,-3,0,-2,-1,2
82145983773,-4,-6,-3,1,-2,-2,-2,-3
82145983773,16,2,2,-1,0,0,0,1
82145996525,-8,-3,0,1,-2,0,-1,3
82145996525,3,-2,-2,-4,-2,0,-1,1
82146003334,1,-8,-3,-1,-2,-1,-1,-7
82146003334,2,2,-2,-2,-2,-1,0,9
82146020259,-5,-3,-2,-2,0,-2,-1,-10
82146020259,4,1,1,0,1,-1,0,20
82146022794,-2,13,1,-1,0,-1,1,-16
82146022794,-4,-1,-2,-2,-3,-2,-1,-2
82146042548,-4,-1,0,-1,-2,-1,0,-2
82146042548,22,0,1,0,-1,0,1,4
82146044240,1,3,2,2,0,1,-1,5
82146044240,-5,-3,0,-4,-2,-2,-2,-3
82146055833,-3,-4,-1,1,1,-2,-1,-2
82146055833,-4,2,-2,-2,-1,-2,-3,-6
82146064842,1,-11,-2,0,1,-1,0,2
82146064842,-1,1,0,-3,0,0,-1,-6
82146079743,2,1,-1,-2,-1,-2,-1,2
82146079743,-9,-4,-2,-1,-2,-1,0,-4
82146081288,-2,-5,-1,1,-2,0,-2,-2
82146081288,-12,-1,0,-1,-1,-1,0,10
82146102245,-3,-3,-2,-4,-2,-2,-2,-7
82146102245,5,-3,-1,0,-2,-2,-2,-4
82146103789,-4,5,-2,-1,-1,-2,0,0
82146103789,-7,0,-1,-1,1,0,-2,-20
82146115895,0,0,0,-2,-1,-1,-2,-2
82146115895,-11,-7,-2,-1,-2,-2,-1,-2
82146124797,4,-1,-2,-2,0,-2,-1,-2
82146124797,3,0,-1,1,-1,0,-2,3
82146140422,-2,-3,-3,-2,-2,-1,0,0
82146140422,-1,5,1,1,0,-2,-1,-2
82146141257,-6,-23,-4,-2,-1,0,-2,2
82146141257,-1,-2,0,0,-2,-2,-2,-2
82146162146,-38,8,-4,-2,-3,-1,-1,1
82146162146,-1,3,-2,-1,-1,0,-1,-3
82146163774,2,0,0,-1,-1,-3,-2,-1
82146163774,-1,-6,-1,-1,0,-1,1,3
82146175822,5,-2,-1,0,-2,-1,0,-6
82146175822,-3,-3,-3,-2,-1,-2,-2,-2
82146184826,-17,-9,-3,-2,-3,-3,-1,0
82146184826,1,8,0,-2,-1,-1,0,-2
82146199668,10,1,1,0,-1,0,0,2
82146199668,-5,-3,-2,-2,0,0,-2,-1
82146201280,4,-3,0,0,-2,0,-1,-2
82146201280,-1,-4,-1,-2,-1,-2,0,0
82146222181,6,-2,1,-1,-1,-1,-1,-2
82146222181,-4,-4,-2,-1,-2,-1,-1,-2
82146223815,0,3,-2,0,-2,-2,-3,0
82146223815,-1,-4,-2,-1,0,-2,-1,-2
82146235858,1,-1,0,0,-1,-2,0,1
82146235858,-1,0,0,-1,0,-1,-1,-1
82146244818,6,2,-1,-1,-2,-1,-1,19
82146244818,0,1,-1,0,-3,0,1,-11
82146259753,1,-5,-1,-1,0,1,-2,-4
82146259753,-4,-3,0,-1,0,0,-1,-1
82146261290,1,3,-1,0,-1,-2,-1,-2
82146261290,2,-3,-1,-1,-1,0,-1,3
82146281194,0,-3,-2,-1,-1,0,0,-2
82146281194,1,2,0,-1,-2,-2,0,0
82146289846,-3,-2,0,0,0,-1,0,-5
82146289846,15,6,0,-1,-1,-1,-2,0
82146295835,1,-2,-4,0,-1,-1,-1,-3
82146295835,-7,-5,-4,-3,-3,-3,-2,-4
