timestamp,emg1,emg2,emg3,emg4,emg5,emg6,emg7,emg8
115706252362,-1,0,-1,3,0,1,-2,-2
115706252362,0,0,-2,-8,-3,0,0,-1
115706253165,-1,0,-4,-4,-3,-2,-2,-2
115706253165,-1,-2,0,-1,1,-2,0,-1
115706260545,-3,-1,0,-2,-1,-3,-1,-2
115706260545,-3,-3,1,4,-1,-1,0,-3
115706261354,0,-1,-2,-2,-2,-2,0,-1
115706261354,-1,-1,-3,-2,-1,-2,-2,-1
115706266285,-1,-2,-2,0,0,-2,-1,0
115706266285,1,0,0,0,-3,-1,-1,0
115706275712,-1,-1,1,-1,-2,-1,0,1
115706275712,-1,0,0,1,-1,-1,0,0
115706281272,1,0,-1,0,0,-2,-1,-1
115706281272,0,-2,-1,-2,0,-1,-2,0
115706297001,-1,-1,-1,0,-1,-2,-3,-2
115706297001,-2,-1,-2,-4,0,0,-2,-2
115706305046,-2,-1,-1,-1,-3,-2,0,-2
115706305046,-2,0,-2,0,2,0,-1,-1
115706311946,0,-1,-2,3,-1,-1,0,-1
115706311946,-1,-2,-1,-1,-1,-1,-1,-2
115706326390,-1,-2,-1,0,-1,-1,-1,0
115706326390,-3,-1,1,-1,-2,-1,-1,-3
115706334793,0,0,0,-3,-1,-2,0,-1
115706334793,0,0,0,-3,-2,-2,-2,1
115706374616,-1,-1,-1,-3,-1,1,-2,-1
115706374616,-1,-2,-2,-2,-1,0,-1,0
115706375416,-1,-1,0,0,-2,-1,0,-3
115706375416,-2,-1,-1,0,-1,0,0,-1
115706376221,-2,-1,-1,0,1,-2,-1,0
115706376221,-2,-1,-1,-2,-4,-2,-1,-1
115706379263,-1,-2,0,-3,-1,-3,-2,-1
115706379263,0,-1,-2,-2,-3,-1,-2,0
115706386149,-1,0,1,-1,-1,-1,0,-2
115706386149,-2,0,-6,-3,-2,-2,-1,-1
115706395133,1,0,-2,-3,-1,-2,-1,0
115706395133,-1,-2,-1,2,1,-2,-2,-2
115706401200,-2,-2,-2,-2,-1,-2,-2,-1
115706401200,-1,0,0,1,2,-2,-1,-2
115706417532,-1,-1,-1,-3,-3,0,-1,0
115706417532,-1,-1,-1,-2,0,0,0,0
115706423626,-3,-2,0,-2,-3,0,0,-2
115706423626,-1,0,1,1,0,-2,-2,-1
115706438544,0,-3,-1,1,-1,0,0,-2
115706438544,-2,-2,-1,-2,-2,0,-1,-2
115706446197,0,-3,-1,1,-1,-1,-1,0
115706446197,0,-3,0,-3,0,-1,-2,0
115706455158,-1,-1,-2,-1,0,1,-3,-2
115706455158,-1,0,0,0,-2,-1,-1,-3
115706461096,-1,0,-2,3,2,0,-1,-2
115706461096,-2,-2,-1,2,2,-1,-1,-2
115706477606,-2,-1,-1,-3,-3,-1,0,-2
115706477606,-1,-1,-3,-2,0,-2,0,-1
115706483592,1,-1,-3,-4,-4,-3,0,-1
115706483592,0,-1,-2,3,0,0,0,-2
115706498597,-1,-1,1,1,-1,-2,0,0
115706498597,0,-2,0,-1,-1,-3,0,-2
115706506119,-1,1,1,0,-2,-2,-1,-1
115706506119,-2,-1,0,-5,-2,1,-2,0
115706515170,-2,-1,-1,3,-1,0,0,0
115706515170,-3,1,-1,-2,-1,1,-3,-2
115706521056,-1,0,-3,-3,0,1,-2,-1
115706521056,0,-1,0,-4,0,0,-1,-2
115706537599,0,0,-3,-2,-2,-2,0,-3
115706537599,0,-2,-2,-2,-4,-1,-1,-2
115706543600,0,-1,-1,1,-1,-3,-1,-1
115706543600,-1,-2,1,0,-3,0,0,0
115706558597,-1,-1,-2,-1,1,-2,-1,0
115706558597,0,-1,-1,-2,-2,1,-1,0
115706566082,-1,-2,0,1,-2,-1,-2,-1
115706566082,-1,0,-1,-1,-1,-1,0,-1
115706590754,-1,-2,0,2,-1,-2,-1,-2
115706590754,1,-3,-4,-6,-2,-3,-1,-1
115706591548,-1,-1,0,-2,-1,0,-2,0
115706591548,0,-1,0,-4,-3,-2,-2,-2
115706597592,-4,-2,0,3,-1,-1,0,-3
115706597592,-3,1,1,-2,2,-1,0,2
115706603601,-1,-3,-5,-5,-3,-2,1,-3
115706603601,-3,-1,-2,5,0,-2,-2,-2
115706618588,-1,0,-1,0,0,0,-2,-1
115706618588,-1,-1,-1,-5,0,-1,-1,-2
115706626086,-7,-2,0,-3,0,-1,-2,-1
115706626086,2,1,1,-6,-3,-1,0,-3
115706635166,-2,1,0,0,3,-2,-2,-2
115706635166,1,1,1,3,-1,-1,-1,-1
115706641097,-2,-4,1,-2,-3,-3,-1,1
115706641097,-2,-2,-2,-1,-1,-1,-2,-1
115706657597,1,1,-2,-3,-2,0,-1,1
115706657597,-1,-2,1,-7,-1,-1,-2,-1
115706663580,2,0,-1,-2,2,-1,-2,-1
115706663580,-2,-1,1,-1,-3,-1,0,-1
115706678607,1,-2,-1,-6,-1,-4,0,-2
115706678607,-6,-12,-3,3,-1,-2,-1,0
115706686166,1,0,-1,12,-4,-3,-1,0
115706686166,-1,-1,0,-4,1,-1,0,-1
115706695164,-3,-1,1,3,6,1,-2,-2
115706695164,-2,0,-1,-8,-15,-3,-2,-3
115706701172,-8,-4,2,-1,5,2,-1,-3
115706701172,10,3,-3,5,0,3,2,2
115706717594,0,0,-4,-12,-2,-1,-1,-2
115706717594,4,2,-1,7,5,2,-1,0
115706723553,-1,0,2,6,1,-1,-3,-3
115706723553,-3,-2,-4,-18,-10,-3,-2,0
115706738590,0,-2,4,10,-4,0,1,1
115706738590,-2,1,0,9,5,-2,0,-1
115706746233,-1,-3,-2,4,0,-1,-1,-2
115706746233,-3,-2,-1,-11,0,-1,-1,-3
115706755042,3,3,-3,13,-2,-4,-3,-1
115706755042,-3,-1,0,-11,7,-2,-4,-3
115706761199,2,3,0,7,-5,-3,0,0
115706761199,-2,-2,0,3,4,3,2,-1
115706777628,-3,-2,0,-5,-3,1,-4,0
115706777628,-1,-1,0,-4,-2,2,-1,2
115706783583,0,2,-1,0,4,-4,-2,-4
115706783583,0,-4,0,-5,-11,-1,-1,-3
115706800170,0,-5,-1,-3,-5,5,6,-1
115706800170,-3,1,2,7,4,-1,0,-1
115706806110,9,8,0,-29,-5,-5,0,-1
115706806110,-4,-2,-4,6,2,-7,-3,-4
115706815187,0,-2,-2,-3,-6,-6,-3,-4
115706815187,-1,-1,-2,18,2,4,0,-4
115706821215,0,-1,-4,-3,-7,0,-3,-2
115706821215,3,1,5,9,2,-12,-2,3
115706837684,0,3,-1,-7,1,0,-1,-1
115706837684,0,-1,-6,-14,-9,-12,-11,-3
115706843606,-2,-1,-2,4,7,21,11,3
115706843606,-2,1,-3,0,-4,3,1,3
115706858629,-2,-5,-4,3,1,6,2,5
115706858629,3,-2,-3,-6,1,-8,5,2
115706866174,-3,-5,-2,7,-2,0,-9,-2
115706866174,-3,-1,-1,0,1,-7,4,-2
115706883288,1,1,-1,-7,-1,-4,-6,0
115706883288,-2,0,-1,-1,-2,6,4,1
115706884170,-2,-4,-2,-7,-4,-8,-2,0
115706884170,-2,-2,-2,1,3,11,-3,-4
115706897603,2,1,0,-12,0,-9,-3,-1
115706897603,2,-1,-2,8,-6,6,-5,-2
115706903612,3,6,-1,-13,-5,-13,1,1
115706903612,-6,-5,-2,-5,-5,-5,-1,-2
115706918642,-5,-3,-2,-7,-2,-10,0,-1
115706918642,2,-1,-1,15,14,38,4,4
115706926100,-4,-1,-1,-2,-5,-15,-13,-4
115706926100,0,3,-1,6,7,-8,-5,-1
115706935067,-1,0,1,-7,-5,4,-1,-1
115706935067,-3,0,-1,-1,-6,-19,-1,-1
115706941162,-3,-5,-5,3,-2,13,10,-3
115706941162,3,1,-2,-8,-3,-24,-12,-1
115706957659,0,-1,1,-4,2,31,3,-1
115706957659,2,2,1,8,-1,-26,-3,3
115706963614,-1,-3,-2,-7,0,20,3,-1
115706963614,-9,-6,-3,-4,-1,-3,-7,-5
115706978614,4,1,-3,17,-1,-2,5,1
115706978614,-4,-5,1,5,0,-12,-6,-2
115706986162,-3,-2,0,-11,-3,-5,-4,-1
115706986162,-1,2,1,-5,-6,11,-5,-2
115706995159,-4,-12,-5,-14,1,-5,16,-3
115706995159,0,0,4,-8,1,5,-3,0
115707001187,3,-2,-1,16,5,1,-4,-9
115707001187,1,-3,-2,-2,-3,-2,2,4
115707017585,0,1,-2,1,-1,4,-1,-9
115707017585,-3,0,-2,0,-2,6,0,-2
115707023662,1,-3,-2,-21,-2,-29,5,0
115707023662,2,1,-4,34,7,-14,-11,6
115707040182,0,1,5,5,1,3,-10,-2
115707040182,0,-2,-5,-5,-6,14,14,2
115707046198,-8,-4,2,5,6,9,5,1
115707046198,4,0,0,-20,-5,-14,-4,-5
115707055064,-8,-1,-3,-1,-3,-3,-3,-7
115707055064,-1,-2,0,-13,-12,-15,3,-5
115707068602,10,-1,-7,20,5,49,3,4
115707068602,-9,-3,-1,-3,10,-9,15,0
115707077621,1,-1,2,4,5,14,-9,13
115707077621,9,3,1,-8,-6,-45,-14,-15
115707091822,0,-2,-5,-32,-21,7,0,-4
115707091822,0,4,-3,17,4,16,-20,11
115707098593,-2,-4,-2,-8,-6,-59,8,-18
115707098593,-4,0,2,2,10,30,-5,26
115707106094,-1,3,5,-10,4,6,18,-2
115707106094,1,-2,1,-1,-11,-6,-1,-6
115707115170,-2,-1,0,16,-4,5,-5,4
115707115170,-4,-2,-5,-25,-2,-9,-8,-12
115707128558,-1,-1,-1,-1,-1,-21,-12,-2
115707128558,-5,-4,3,2,-7,1,4,1
115707137598,2,2,-11,6,-3,12,-4,2
115707137598,-6,-4,-4,-6,9,5,-1,-14
115707143584,-18,-1,6,15,-2,2,-5,12
115707143584,12,0,-7,-5,0,9,12,-7
115707158591,-4,-1,4,-7,8,17,-6,-8
115707158591,7,1,0,12,4,-8,3,21
115707166159,-6,0,-5,0,-5,-12,-13,-4
115707166159,-7,-2,2,-6,-10,-7,-8,-10
115707175044,-1,-2,-1,11,8,-5,6,-2
115707175044,-1,2,1,-9,-10,14,0,-1
115707188595,0,-4,1,-12,-1,-17,-11,-8
115707188595,-1,-1,-6,21,-1,-8,0,3
115707197624,0,0,-1,-12,-13,12,2,-1
115707197624,-3,-7,-5,-21,-11,1,0,-7
115707203609,3,3,-1,12,10,-16,-4,-3
115707203609,-4,-3,-5,0,-13,0,-4,1
115707218645,-2,-3,-1,5,-1,-3,-2,3
115707218645,-2,7,7,6,-9,5,6,6
115707226195,0,-1,-3,0,-6,-18,-4,-5
115707226195,-2,2,11,-41,4,40,5,7
115707235169,8,5,2,25,-6,-21,-7,-1
115707235169,-2,-4,-6,-23,3,-2,-1,-12
115707248637,2,-3,-12,-14,-5,-2,1,3
115707248637,-5,-3,4,24,3,-2,1,-7
115707257570,2,4,-3,-21,0,-6,-9,8
115707257570,-3,-6,-1,8,-3,1,2,-8
115707263622,-2,-1,0,-21,-3,2,0,3
115707263622,-5,0,-7,2,0,-15,-6,-5
115707278610,-1,1,3,13,8,10,6,11
115707278610,3,0,-3,-7,-1,3,2,-1
115707286065,1,1,1,-3,6,-2,-2,5
115707286065,-1,-3,2,22,0,4,-2,-19
115707295162,3,-6,-7,3,-1,-25,-12,13
115707295162,1,0,5,27,18,16,7,3
115707308611,2,0,4,-31,-7,11,8,5
115707308611,1,1,-1,12,17,3,1,1
115707317627,-12,-5,-3,-8,-26,-3,-1,-27
115707317627,4,3,-4,14,3,-12,-17,-5
115707331782,4,3,5,10,9,2,-4,1
115707331782,-12,-1,2,-10,3,8,10,11
115707338581,7,-2,-1,-32,-10,-3,-1,-9
115707338581,-5,-2,-9,-6,-3,-11,-3,4
115707346067,-1,-3,-4,33,9,1,1,-4
115707346067,5,3,4,-5,4,0,-3,-5
115707361099,-5,-2,7,7,19,1,-3,1
115707361099,-2,0,-3,-51,-38,-3,-3,-10
115707368596,0,-1,-1,55,4,2,0,2
115707368596,0,-4,-6,-24,-6,-1,4,0
115707392474,-4,2,1,2,15,-2,-2,0
115707392474,-1,-2,-2,-1,-13,-5,-12,-8
115707393252,-2,-2,2,3,-4,-1,5,10
115707393252,5,-4,-6,-13,-4,2,1,3
115707398554,-1,-3,7,28,0,4,4,1
115707398554,-6,-3,-7,-24,-12,-10,-5,-9
115707406095,-1,-2,-1,4,-4,-8,-8,-9
115707406095,-1,-2,1,5,7,4,2,3
115707421141,4,2,-5,-16,2,4,0,4
115707421141,-1,-2,-2,23,0,1,4,3
115707428604,-2,0,0,7,6,1,0,-8
115707428604,-8,-5,-9,-44,-51,-10,-5,-3
115707444248,3,1,-2,3,9,1,0,1
115707444248,-12,-10,4,39,14,-1,-1,-1
115707445080,-1,-2,0,-24,-17,-7,-3,-5
115707445080,-2,0,3,9,13,2,-1,1
115707458616,1,2,4,-29,-20,2,2,1
115707458616,1,-1,1,34,27,1,-1,0
115707466216,-9,-2,-11,-8,1,0,-2,-5
115707466216,-4,-2,-5,3,10,-4,-4,-13
115707481070,-4,-6,0,-29,-11,3,2,8
115707481070,5,2,2,2,7,3,4,2
115707488576,-2,-6,-8,20,6,0,-1,2
115707488576,15,15,4,1,-3,2,-3,-8
115707504252,-13,-8,-11,9,-12,-3,3,8
115707504252,-1,2,-1,-8,4,-5,-1,3
115707505041,4,2,5,-7,1,-1,-2,-2
115707505041,5,4,0,42,9,3,1,1
115707518611,-5,-1,-3,-33,2,-4,-2,-7
115707518611,-3,-9,3,6,-12,-3,-1,2
115707526094,2,3,7,-32,-17,0,-1,4
115707526094,-2,-4,2,5,9,-2,-1,2
115707541098,-1,1,-3,-3,-15,-8,-5,-5
115707541098,0,1,-2,1,10,5,2,-3
115707548562,-2,-4,-3,9,7,0,-1,-3
115707548562,2,-8,-8,-18,-15,-7,0,8
115707564320,0,-5,-1,5,3,-1,-4,-5
115707564320,9,15,5,-20,-12,-9,-5,-8
115707565067,-7,-3,-36,14,6,3,4,-1
115707565067,-3,-12,33,2,6,1,0,3
115707578627,-1,4,-1,26,7,-2,-2,-3
115707578627,8,-15,-5,15,5,6,2,3
115707586217,13,20,10,-36,-16,-11,-9,-15
115707586217,-50,-45,-45,-21,7,13,10,4
115707601091,7,-8,8,-5,-1,2,4,-3
115707601091,-11,19,6,-13,-14,-9,-3,12
115707608526,32,22,12,10,11,0,-6,-16
115707608526,-1,2,-65,-40,-6,-9,-10,-25
115707624246,13,3,45,5,10,16,25,25
115707624246,-22,-11,4,11,1,0,0,-6
115707625062,-60,-24,-14,-20,-6,3,9,-33
115707625062,39,11,8,3,-3,-8,-4,39
115707638656,21,21,-21,-5,-7,-3,-8,-2
115707638656,-36,-4,24,-14,3,3,1,-14
115707646100,1,-13,13,18,2,1,2,-28
115707646100,-24,17,8,18,-9,-1,2,-21
115707661210,-19,0,32,9,5,-5,-11,28
115707661210,29,-13,7,-15,0,-1,0,19
115707668643,27,1,4,24,3,-2,-6,39
115707668643,-4,-5,0,-1,2,0,4,-2
115707684261,-8,-14,-27,-62,-37,-8,-10,-26
115707684261,-4,9,-5,42,14,-5,-6,-35
115707685036,22,-2,-3,-3,-10,-3,-3,-5
115707685036,-9,-5,4,-2,7,-4,4,26
115707698574,8,7,-15,22,0,-5,-11,-36
115707698574,-10,-4,-6,-2,-3,1,-1,-17
115707714302,-20,-27,-11,-26,-3,2,10,-19
115707714302,4,7,17,13,-2,-4,-10,5
115707721178,-16,-10,-13,-6,3,-13,-3,-7
115707721178,1,-3,-7,-7,-15,4,1,6
115707728583,-4,5,0,-25,3,5,6,18
115707728583,9,4,10,12,0,2,-3,-12
115707744251,-11,-9,-5,-3,8,-8,-5,-11
115707744251,8,-2,-12,-3,-5,4,-1,3
115707745047,17,13,12,25,2,-9,-11,-12
115707745047,-1,0,1,-8,-9,-2,-8,-2
115707758576,20,8,20,28,14,14,11,-4
115707758576,-10,-2,-1,-20,3,1,-4,3
115707766092,-8,0,-9,1,-12,3,1,8
115707766092,4,6,4,-2,2,-16,-8,3
115707781105,2,-7,-12,-13,-1,-11,3,2
115707781105,11,8,-4,6,11,18,4,8
115707788598,-6,-2,3,-38,-18,-2,-4,11
115707788598,2,-6,-12,1,-2,-1,1,-7
115707804256,-10,-1,-13,1,-1,-4,-5,10
115707804256,3,-2,-1,29,2,-13,2,4
115707805050,-17,-6,-2,3,3,-2,-3,0
115707805050,3,5,12,-8,-2,2,4,-8
115707818593,-7,-7,-13,25,-7,-5,-6,-5
115707818593,5,-3,-6,-12,-7,-1,-1,-2
115707826199,-3,4,3,7,5,-1,-1,7
115707826199,3,7,4,-13,5,5,1,-3
115707841193,-6,8,3,7,-3,0,-1,3
115707841193,0,-2,-3,-8,-5,-5,-2,1
115707848649,-15,-4,-3,9,2,-4,-2,8
115707848649,42,11,7,-2,0,1,3,1
115707864272,-5,-7,-5,0,5,4,-2,-2
115707864272,-1,0,-2,-9,-9,-8,0,-2
115707865042,-11,-4,4,8,4,0,1,4
115707865042,-1,-3,0,-1,-1,2,-1,-4
115707878570,-6,-6,0,-10,-3,4,2,1
115707878570,13,5,-2,9,3,-5,-1,-1
115707886106,2,-1,1,-2,0,-3,-3,5
115707886106,-13,-8,-8,-10,-12,-11,-4,-6
115707901096,1,1,2,9,2,6,1,5
115707901096,-5,-3,-1,-5,11,4,4,12
115707908604,4,-1,6,7,0,5,3,6
115707908604,-5,-3,-5,18,1,-5,2,-4
115707925772,-1,-8,-4,-10,-3,-2,0,-4
115707925772,-9,-6,-7,-7,-9,-8,-6,-7
115707926570,1,1,1,10,12,0,-2,2
115707926570,-4,-1,9,16,0,11,3,1
115707938604,2,-1,-6,7,3,1,0,0
115707938604,-7,-4,0,-26,-8,-4,-2,-3
115707946134,23,2,-7,-9,-9,-10,-4,-3
115707946134,-10,-4,-4,-11,-7,2,5,-1
115707961193,-3,1,-2,13,-4,-5,-9,-4
115707961193,-1,1,-1,-5,-3,-8,-1,-2
115707968631,-4,1,4,-8,1,10,3,2
115707968631,-5,-4,-1,20,-10,0,1,-1
115707984278,-2,-1,2,-1,10,-2,-1,-1
115707984278,1,-1,-4,-11,-6,-1,-2,0
115707985070,-3,-2,-1,-9,-4,-4,-2,-3
115707985070,2,0,2,-5,5,4,2,0
115707998571,-2,0,-2,-23,-10,-3,-5,-2
115707998571,-7,-7,-9,22,7,1,-2,-5
115708006073,7,1,-5,4,1,-10,1,0
115708006073,5,4,0,-16,-4,5,-5,1
115708021052,0,2,4,11,9,8,8,6
115708021052,-6,-3,2,-10,0,-1,-1,-4
115708028564,1,-3,-5,8,-8,-7,-1,-2
115708028564,-14,-3,0,9,6,1,-3,1
115708043603,19,4,0,-21,-6,2,-4,0
115708043603,2,1,4,22,4,-1,2,1
115708051824,-4,1,2,13,-11,1,-1,-3
115708051824,-6,-4,-8,-51,-3,-14,-10,-7
115708066750,-7,-1,-6,0,5,6,5,3
115708066750,2,-1,-2,3,-3,1,1,-2
115708067560,0,0,-1,-5,14,9,0,-1
115708067560,-3,-3,-4,4,-2,-4,-1,-2
115708081141,-9,-6,-3,-15,-9,-9,-3,-3
115708081141,8,4,1,-11,1,1,-3,0
115708088581,-4,-2,-1,-14,-10,-3,-1,-1
115708088581,-5,-5,2,45,20,4,-1,-3
115708103590,-1,3,0,-1,3,6,2,0
115708103590,4,1,5,17,2,-9,-2,2
115708111740,-5,-6,-6,-15,-5,-3,-7,-9
115708111740,-3,0,1,-16,-10,-5,1,-1
115708118621,5,0,3,16,4,4,1,3
115708118621,-5,-4,-2,-3,-2,3,-1,-1
115708126110,0,2,-2,7,-3,2,1,3
115708126110,7,0,0,-15,1,-5,-3,-5
115708141126,-5,-2,-7,11,-7,-9,-6,-6
115708141126,-7,-7,4,-18,-1,4,3,3
115708148633,4,5,3,3,2,-3,-2,0
115708148633,1,-1,-2,-6,-13,2,-1,0
115708163570,-6,-9,-29,18,20,0,0,0
115708163570,3,-1,9,37,-11,-2,-2,-3
115708171791,-5,-8,29,1,6,0,-1,-1
115708171791,5,4,49,-11,-12,0,0,0
115708178595,-15,-9,2,3,3,0,-2,-3
115708178595,-8,3,-21,-5,5,0,-3,-4
115708186087,-4,9,-44,-4,-2,-3,-3,-3
115708186087,6,-6,79,31,5,2,2,5
115708201057,-14,-17,-17,-29,-20,-8,-4,-6
115708201057,14,6,3,-16,-10,-1,-1,-3
115708208599,-3,-3,-2,1,9,-1,-3,2
115708208599,-2,4,-34,-7,0,0,-6,-3
115708232496,4,7,7,-9,1,-5,-1,3
115708232496,1,-4,5,-15,-6,7,1,3
115708233216,0,-2,-6,0,-7,2,2,0
115708233216,-4,-1,-26,-5,3,5,0,-1
115708246749,10,-9,8,12,4,-9,0,2
115708246749,1,8,-9,-9,0,9,0,0
115708247544,-4,0,11,21,-3,-1,3,0
115708247544,-6,-6,-18,4,0,-2,-3,-6
115708262563,5,4,7,-7,-1,-11,-4,1
115708262563,-10,-4,-3,-4,3,-5,-6,-5
115708268641,2,-5,-6,-2,-5,2,7,0
115708268641,2,0,-7,5,1,-2,2,7
115708283567,-4,7,-1,-1,-1,11,4,-3
115708283567,1,1,-1,-7,-2,-7,1,2
115708291788,-9,-6,1,-2,4,0,-2,-5
115708291788,0,2,-17,-2,-15,-16,-11,0
115708306713,4,11,5,-12,-2,8,2,-3
115708306713,-3,-8,-1,9,2,0,0,2
115708307498,-4,-3,-4,-10,-3,1,-4,-3
115708307498,0,1,-7,-10,1,3,5,-4
115708321131,2,2,3,11,-4,-5,-6,6
115708321131,-2,0,0,1,4,1,-3,-6
115708328579,3,0,-3,-1,0,-1,0,5
115708328579,-4,-1,-8,-8,3,3,-1,-3
115708343599,-5,-3,0,-2,-7,-3,-1,-5
115708343599,-1,-3,-5,0,-2,-3,3,2
115708351824,-1,0,6,-1,-4,-2,0,3
115708351824,-7,-2,-2,1,6,1,0,-2
115708366744,5,1,-2,-1,0,0,-1,-1
115708366744,-2,-2,-2,8,-4,-7,-2,-1
115708367512,-1,0,1,-7,-1,-5,-5,-4
115708367512,-3,-3,-3,7,0,1,0,-2
115708381110,0,0,2,0,1,8,7,3
115708381110,0,0,-5,-11,-4,-5,1,0
115708388591,-2,-3,0,0,-7,0,-4,-4
115708388591,-1,-2,-9,5,3,-11,-1,-1
115708403632,-9,-7,-2,-13,-6,-1,-4,-5
115708403632,2,2,3,1,6,4,2,2
115708411773,4,5,0,10,-1,3,-3,0
115708411773,-9,-8,-3,0,5,4,-2,-3
115708426812,-4,-1,-3,-6,-13,-5,1,-4
115708426812,-1,-3,-2,-3,-1,-7,-2,-1
115708427551,1,0,-4,0,-3,-7,-2,-2
115708427551,5,2,-1,-8,1,3,-2,0
115708441129,0,0,2,10,-1,3,2,1
115708441129,-1,-3,-2,-4,-2,2,-3,-1
115708448592,-2,-3,-1,-1,-3,-5,-1,-2
115708448592,-3,-1,-1,-5,-1,-4,2,1
115708463617,-2,1,-1,-4,-4,-1,-1,-2
115708463617,-5,-1,-2,5,6,4,-1,0
115708471772,4,-1,-1,0,1,3,5,0
115708471772,2,0,-2,4,-9,-12,-3,-2
115708486773,2,3,-2,0,4,-4,-8,-2
115708486773,-3,-2,0,1,-2,9,1,-2
115708487541,-2,0,0,-1,8,-11,-1,-1
115708487541,-1,-3,-3,-7,-12,21,3,-2
115708501080,-1,0,-1,0,-1,-13,-8,-3
115708501080,0,0,1,6,4,1,3,-3
115708508648,-1,1,-6,-15,-1,4,-5,-3
115708508648,-4,-11,-2,1,0,-7,-2,-2
115708525139,-3,-1,-2,1,7,2,4,2
115708525139,1,0,-2,-7,-9,2,-1,0
115708531745,-3,-4,-11,0,-4,-3,-3,-2
115708531745,-2,2,-2,0,1,-9,-2,0
115708546734,-1,-1,0,0,-4,2,-2,-2
115708546734,-2,-2,0,1,0,-2,2,-1
115708547529,-2,-1,3,-1,-6,-7,-7,-2
115708547529,-3,1,-2,-4,0,2,7,1
115708561106,6,0,-2,0,3,5,0,0
115708561106,1,1,0,0,-4,-3,-1,-1
115708568832,-4,-2,-1,-2,-6,-8,-4,1
115708568832,-3,1,-1,-5,-1,11,-5,-3
115708583591,-4,-3,2,1,3,-6,3,1
115708583591,-1,-1,1,-7,-8,-15,-6,3
115708591816,-2,-1,-1,-5,2,14,1,-1
115708591816,0,1,-3,-3,2,-2,5,0
115708606760,-4,0,-3,1,-3,5,-7,-4
115708606760,-2,-3,-5,1,-1,-5,-2,-4
115708607572,-4,-5,-2,-6,-6,-19,-5,-3
115708607572,3,0,2,2,2,11,-3,4
115708621111,1,-1,1,-9,1,14,8,3
115708621111,0,-4,2,24,12,1,1,-2
115708628633,3,1,3,-1,-3,3,1,-1
115708628633,-2,-1,-2,-4,-1,-10,-4,-4
115708643571,-3,-2,-4,-4,-8,-20,-7,-2
115708643571,0,-3,-1,-12,1,4,-1,-1
115708651828,-1,-2,1,4,1,16,7,0
115708651828,0,0,0,-4,0,-5,-5,-2
115708674979,0,1,1,2,1,0,2,0
115708674979,-2,-1,-2,-6,-5,-7,-3,-3
115708675754,-1,-1,-5,-2,-2,-10,-2,-2
115708675754,3,2,1,0,3,8,3,1
115708681234,0,-1,0,-3,-3,7,1,-1
115708681234,-1,2,-2,-1,-3,-1,-1,-3
115708688901,1,1,-1,2,1,1,0,-3
115708688901,-2,-2,-1,-1,-5,-9,-3,-1
115708703697,0,-1,-2,2,-1,-3,-1,-3
115708703697,0,-1,-2,-3,-3,0,-2,-2
115708712038,-1,-2,2,1,-2,1,-1,-1
115708712038,2,1,0,4,1,-2,0,0
115708726902,-1,-3,1,-1,-1,-1,-1,-2
115708726902,0,1,2,-2,-5,-5,-3,-3
115708727709,-2,-2,2,3,0,-1,-2,-1
115708727709,-2,-2,0,1,-5,-4,-1,-1
115708742664,-1,1,-1,1,2,-1,-1,1
115708742664,-1,-2,-1,-1,0,-1,-1,0
115708748849,-1,1,-2,-4,0,1,-3,1
115708748849,0,1,-2,0,-2,-2,-1,-1
115708763767,-1,-2,0,-1,-2,-3,1,0
115708763767,-2,0,-2,-1,-5,-2,-3,0
115708771793,0,-3,-3,-1,3,4,1,0
115708771793,0,-3,-2,-4,0,-2,-1,-2
115708786824,-1,-4,-3,-1,-4,-1,-3,-2
115708786824,0,0,-2,-5,0,1,0,-2
115708787548,-2,-2,1,5,-1,1,-2,-3
115708787548,-3,-1,0,0,-2,-2,-4,-3
115708801400,-1,-1,2,0,-2,-1,0,-8
115708801400,0,-1,-1,-1,-1,-1,1,-6
115708808747,0,0,1,-2,-2,-1,0,-3
115708808747,0,-1,-1,-1,-1,-4,-2,-2
115708825236,0,0,0,3,0,-3,-1,1
115708825236,0,1,0,-1,-1,-1,-2,3
115708831981,0,2,0,-3,-1,-3,0,0
115708831981,2,0,1,3,1,-1,1,-2
115708846782,0,-2,-2,0,-2,-2,-2,-1
115708846782,0,-1,-3,-1,-2,-2,-1,0
115708847793,0,-2,-1,1,0,-2,0,1
115708847793,-1,-1,-3,-1,-2,-2,2,1
115708861266,-4,0,-3,-3,-1,-1,0,1
115708861266,-4,-1,-2,-4,-1,-1,-2,1
115708868872,-2,-2,0,7,2,0,-3,-1
115708868872,-1,-1,-3,-2,-2,0,1,-1
115708883873,-4,-2,-4,-8,0,2,1,2
115708883873,-7,-2,-4,-2,2,0,-1,2
115708892054,1,-1,-4,-6,-2,1,-1,1
115708892054,1,-3,-2,-3,-1,-1,-3,1
115708906891,1,-2,-1,0,-1,-1,-4,1
115708906891,0,-1,-1,-8,-2,1,-1,-3
115708907591,-1,0,-1,9,0,-1,-3,-4
115708907591,-1,-1,0,5,0,-1,-4,-6
115708921118,-1,-2,2,-1,-2,-1,-2,-2
115708921118,-1,-2,-1,-3,-1,-2,-1,-4
115708928623,-2,-1,-3,-7,-3,-1,2,-1
115708928623,-2,-2,-2,-5,0,-1,1,0
115708943584,-3,-3,-1,0,-2,-2,-2,0
115708943584,4,7,1,1,-2,-1,-2,0
115708951830,0,-2,2,0,1,-2,-3,2
115708951830,-1,-1,1,1,-3,-1,-2,0
115708966471,-1,1,-1,-1,-1,-4,-1,-1
115708966471,-1,-2,-3,-1,-2,-3,-1,1
115708974396,-2,0,0,-3,-3,-1,0,-1
115708974396,-6,2,-1,-1,-2,-4,0,2
115708981204,21,-2,-1,1,1,-1,2,0
115708981204,1,6,1,2,0,-1,1,1
115708988825,-2,-1,-3,-1,0,0,0,0
115708988825,1,-3,-2,-1,-1,0,0,5
115709003718,-11,-3,-4,-2,-2,-1,-2,-12
115709003718,-1,-6,-2,-2,-1,1,-1,-4
115709011911,-1,0,-2,-2,-2,-1,-1,-2
115709011911,-2,-4,-2,0,-2,1,-1,0
115709026198,-3,-1,-3,-1,0,-1,-1,2
115709026198,-1,-3,-3,-2,-2,0,-2,-2
115709034551,-7,-4,-1,-3,-1,0,-1,0
115709034551,0,6,-2,-3,-2,-1,-3,-3
115709041163,-9,-11,-3,-1,-1,-2,-2,1
115709041163,-3,-3,0,-2,0,-1,0,0
115709048624,10,-3,-1,-3,-1,1,0,0
115709048624,-3,4,1,-1,0,-1,-2,0
115709063640,12,2,-1,-3,-3,0,-1,-2
115709063640,2,5,-3,1,-2,-1,-3,-1
115709072011,-1,-5,-4,-5,-3,-2,-2,3
115709072011,4,-3,-1,1,-1,-1,-1,-12
115709086153,-9,-16,-6,-5,-1,2,-1,0
115709086153,-4,0,0,4,-4,-2,-3,-8
115709094328,0,2,1,0,1,2,-1,0
115709094328,-8,-3,1,-5,-3,-3,-2,-4
115709101164,-25,6,2,3,1,-2,-2,-38
115709101164,-20,-15,-1,-5,-2,-3,-1,25
115709108594,-6,5,-5,5,-4,-4,0,-42
115709108594,-21,-4,-1,-6,0,1,-2,-34
115709123627,-4,-1,-2,1,0,-1,1,16
115709123627,28,6,1,-4,1,1,3,2
115709131769,-14,-7,0,3,-4,-1,2,40
115709131769,10,-3,-2,1,0,-1,-2,0
115709146183,15,16,3,1,-1,-2,-7,-10
115709146183,20,-23,-6,-1,-1,-2,-5,-11
115709154564,-4,2,-2,-5,-2,-2,-6,39
115709154564,-3,3,0,0,-2,0,-2,-16
115709169365,-12,1,-9,-3,-5,-1,2,17
115709169365,-18,-1,2,0,2,2,3,22
115709170163,8,0,-1,1,1,1,-2,-63
115709170163,8,14,2,-4,-2,-4,-6,9
115709183738,7,-7,-8,-2,-2,-3,-2,18
115709183738,-18,3,13,7,1,2,1,-28
115709192005,11,3,1,-2,-1,0,0,8
115709192005,-19,-5,-5,1,-1,-1,1,-24
115709206281,1,-7,0,0,-1,-1,-1,0
115709206281,0,4,-5,-4,-3,-3,0,-10
115709214437,-5,-17,-2,-3,1,-3,-1,5
115709214437,17,-3,1,1,-1,-2,2,20
115709229236,-3,3,1,-1,-1,1,1,-2
115709229236,2,-3,-3,-1,0,-2,-1,5
115709230221,-5,0,0,-1,-2,-2,-1,-5
115709230221,1,-3,-3,-3,0,0,1,42
115709243661,5,1,2,0,1,-1,0,-9
115709243661,-7,-4,-6,0,-2,-2,0,1
115709251913,5,8,0,-3,-2,-1,-2,-6
115709251913,2,-4,-1,2,-1,-2,-1,4
115709266232,-2,4,5,-8,-1,0,-2,5
115709266232,-6,-3,-3,-3,-2,-2,-3,-6
115709274366,2,-2,1,-1,-2,-1,1,9
115709274366,1,-5,1,-1,-2,0,1,1
115709289434,-1,-2,-1,0,-4,-1,-2,-4
115709289434,-1,7,-4,-3,0,-2,-3,-5
115709290226,-1,-5,0,1,-1,-1,-3,4
115709290226,0,-2,-3,-3,-1,0,0,-2
115709303675,3,0,0,1,-1,-1,0,-8
115709303675,3,3,-1,-1,-2,0,-3,-12
115709312048,10,6,-1,1,0,0,1,16
115709312048,-4,-4,2,0,-1,0,-2,-8
115709326254,-10,-2,-4,0,1,-2,-1,9
115709326254,3,-4,0,-3,-1,-2,-1,-3
115709334566,0,-4,-2,-3,-1,-1,-2,-2
115709334566,-6,-5,-3,0,-1,-1,-1,-13
115709349296,16,8,2,2,-1,-2,1,-4
115709349296,16,2,-2,-1,-4,-1,0,-2
115709350085,-2,4,-3,0,0,-1,0,2
115709350085,-3,2,-2,-2,0,-1,-1,9
115709363610,-12,-14,-1,2,-1,-1,-1,-2
115709363610,3,8,2,-5,0,0,1,2
115709371123,-2,0,1,-2,-1,-1,0,-3
115709371123,0,-6,-1,4,-1,-2,-1,-5
115709386310,-2,2,-1,-2,1,-2,-1,-24
115709386310,-4,-3,-3,4,-3,-2,-1,4
115709394410,-6,-3,-2,-3,0,-1,-1,-5
115709394410,-7,-5,-3,-2,-3,-2,-2,-3
115709409319,0,2,1,0,0,-1,-1,2
115709409319,-5,-2,-1,-2,-1,-2,-1,4
115709410012,-4,0,-2,-3,-1,-2,-3,-20
115709410012,-2,-1,0,-1,-2,-1,-2,-5
115709423693,-13,-8,-1,-3,-3,0,-1,5
115709423693,-1,-1,0,-1,-3,-1,-3,0
115709431924,-13,-6,-1,-1,0,-1,-1,-3
115709431924,8,7,5,0,1,0,0,1
115709446316,-12,-3,-1,-2,0,-3,-3,-30
115709446316,-9,-3,-2,-2,0,0,-3,-31
115709454395,0,-2,-2,13,-5,-1,0,2
115709454395,5,0,-3,6,4,2,0,2
115709469427,4,0,-4,-11,-12,-2,-1,9
115709469427,-2,-4,-1,-2,-1,-1,-1,11
115709470118,-3,-1,0,-1,-2,-1,-2,-3
115709470118,0,2,-2,-1,-3,-3,-2,-1
115709483790,4,-1,0,4,1,-2,-2,10
115709483790,-8,-3,1,2,1,0,0,8
115709492013,6,-2,0,-7,1,-2,0,-2
115709492013,-7,1,1,-1,-1,-2,-1,4
115709506359,-7,5,-1,0,-2,-2,-2,-7
115709506359,1,-5,-2,-3,-1,-1,1,5
115709514548,-2,2,0,-2,0,0,-1,-1
115709514548,5,-6,-3,-3,-2,-1,-1,0
115709529541,5,-2,-2,1,-1,0,-1,7
115709529541,-3,-2,-3,1,-3,0,-2,-1
115709530181,0,-1,0,-5,-1,-2,-3,2
115709530181,0,-5,-2,-1,-3,0,-2,1
115709543743,1,2,-1,2,-2,-2,0,2
115709543743,-8,-2,0,-2,0,0,1,0
115709551972,5,-3,2,-1,-1,-1,-1,1
115709551972,-1,1,-1,-3,-3,2,1,0
115709566138,4,-2,0,4,0,0,-1,3
115709566138,-4,1,-3,-3,0,-2,-2,0
115709574364,-3,-3,-4,2,-4,-2,-3,-2
115709574364,-3,-2,-2,-1,-1,-1,-2,-1
115709589345,4,-1,0,-3,-2,-1,1,2
115709589345,2,-2,0,-2,-1,-1,-1,1
115709590127,5,3,-1,-3,-3,-1,0,-3
115709590127,2,1,3,2,1,-2,-2,7
115709603744,-1,-2,2,2,2,-2,-1,-4
115709603744,0,-2,0,0,-2,0,-2,-1
115709611899,-1,-1,-1,0,-2,-1,-2,-2
115709611899,-3,-3,-3,0,0,-1,0,1
115709626515,2,-1,-4,-7,-2,-1,-2,3
115709626515,3,2,-1,3,-2,-3,-1,0
115709634408,-3,-1,0,-3,1,-1,-1,-1
115709634408,-1,-2,-1,-2,-2,0,-2,-4
115709649571,-2,-1,-3,0,-2,0,-1,1
115709649571,2,-1,-4,-2,-1,-1,-2,0
115709650119,-3,-4,-1,0,0,1,1,0
115709650119,0,-2,0,-3,-2,-2,-1,-3
115709663910,1,0,0,1,1,-1,-1,2
115709663910,-2,-2,-2,1,-1,-2,-1,1
115709671813,-1,-1,-1,1,-1,1,-2,-1
115709671813,-1,-1,-2,-3,0,0,-3,-4
115709686107,-2,-1,1,-1,-1,-1,0,-1
115709686107,0,0,0,0,-2,-1,0,-1
115709694253,-5,-2,-1,-2,0,0,-2,-1
115709694253,1,-6,-6,-4,-3,-1,0,-2
115709709290,-2,10,0,0,-1,0,-2,1
115709709290,17,7,3,1,0,1,0,1
115709710001,-2,-1,-2,-1,0,-1,-2,1
115709710001,-6,-3,-2,-2,-1,-3,-1,-2
115709723630,2,-4,-1,0,2,0,0,3
115709723630,2,5,-1,0,-1,-3,-1,2
115709732101,-9,-1,1,-1,0,-1,-1,-9
115709732101,13,1,0,-2,-1,-2,-1,13
115709746360,-4,-7,-1,0,-1,2,-1,-7
115709746360,-3,-4,-2,-1,-2,0,-1,0
115709755161,1,-2,-1,-1,-1,-3,-2,0
115709755161,-4,1,-1,-1,-1,0,-2,-1
115709768858,-3,-2,-2,-2,-2,-1,-2,-1
115709768858,-6,-5,-2,-4,-2,-2,0,-2
115709777668,4,-5,-4,3,-1,-1,-1,0
115709777668,-1,7,2,1,-3,-1,1,-3
115709783621,4,0,1,-2,-1,-2,0,2
115709783621,-6,0,-3,0,0,-1,-1,-5
115709792629,-3,-4,-2,-3,0,-2,1,-2
115709792629,-2,0,-1,-1,0,0,-1,-2
115709806308,-1,-4,-1,0,-1,-3,1,-2
115709806308,0,-4,1,-1,-1,-1,-1,0
115709815214,-1,4,0,-2,-3,-2,-1,0
115709815214,-1,-7,-3,-2,-1,-2,-2,1
115709828614,-4,3,-2,0,0,1,-2,-9
115709828614,-4,-3,-1,0,-1,-2,0,0
115709837612,9,-1,-1,-1,0,-1,-2,6
115709837612,-2,-1,0,0,-1,-3,-2,-6
115709843630,-2,-5,-2,-2,1,-1,-2,1
115709843630,-3,-2,-2,-1,0,0,-1,-2
115709852638,-6,1,1,-2,-1,-1,-1,-2
115709852638,8,-12,-4,-1,-1,-1,0,-1
115709875053,5,7,1,1,0,-2,1,4
115709875053,-1,-1,0,-1,-1,-1,-1,0
115709876685,-5,-5,-1,-1,-3,0,1,1
115709876685,-3,1,-1,-2,-3,-1,2,-2
115709888737,0,-2,-3,-2,-2,-1,-4,-1
115709888737,-1,0,0,-2,-2,-1,-2,-4
115709897598,-2,-2,-1,0,-2,-3,-1,-2
115709897598,-3,1,0,0,-1,-1,-1,-2
115709903600,-1,-4,-2,-4,0,-1,-2,1
115709903600,-3,-2,-1,2,0,-2,0,-1
115709912696,1,-2,-3,-2,0,0,-1,-2
115709912696,-5,0,-2,-2,0,-3,-1,-2
115709926188,9,1,-1,-1,-2,-1,0,-1
115709926188,-2,-1,-1,-3,-2,0,-1,-2
115709935078,-2,0,2,0,-3,1,-1,-2
115709935078,-3,1,0,0,-1,1,-1,-1
115709957457,-3,-6,-1,0,0,-1,-3,-2
115709957457,-3,-1,-2,-3,-2,1,-2,-3
115709959066,2,0,0,-2,-1,-1,-1,2
115709959066,-2,0,0,-1,-3,-1,0,0
115709963595,-1,-4,0,0,-2,-2,-1,-2
115709963595,-1,-2,0,2,0,-1,-1,-3
115709972572,-3,1,-1,-3,-1,-1,-1,-3
115709972572,-2,-1,-1,0,2,1,-2,-3
115709986093,-5,0,-2,0,-1,0,-1,-3
115709986093,-1,-2,-2,-2,-2,0,-2,0
115709995155,0,-4,-1,-1,0,-1,-2,-2
115709995155,1,3,1,0,1,-2,-2,0
115710008591,-2,-1,-1,-1,-1,-1,-1,1
115710008591,4,-2,-2,-2,-2,-1,-2,0
115710017591,2,-4,1,3,0,0,-1,-1
115710017591,-1,-2,-1,-3,-1,-1,-2,-2
115710023581,-6,-3,-2,-4,-2,-1,-1,2
115710023581,7,5,0,-2,-2,-3,1,-2
115710032632,6,3,-2,1,-1,-2,-1,-3
115710032632,-2,-2,-1,-8,-2,0,-2,0
115710046079,-2,-1,0,0,-2,-1,0,-1
115710046079,3,-2,-3,0,-1,-1,-1,7
115710055157,-4,0,-2,0,-1,0,-2,-14
115710055157,-3,-1,0,1,-3,-1,-1,-6
115710068536,-2,-1,-1,-3,-1,-3,0,-3
115710068536,-5,-3,-3,-2,-1,1,0,-1
115710077626,-1,0,-1,-1,-3,-3,-1,5
115710077626,-2,-5,-2,1,2,-1,-2,1
115710092432,4,-4,-2,-1,-4,-2,-2,-2
115710092432,5,11,5,1,-1,-3,0,2
115710094063,-2,1,-1,-1,-2,-3,-1,-1
115710094063,-2,-4,1,1,-3,-1,1,-1
115710106167,1,2,-1,-1,1,-1,1,0
115710106167,-9,-16,-5,-1,-1,0,-1,-4
115710115077,-5,-1,-4,-3,-1,0,-1,1
115710115077,-1,3,-3,-2,-2,-3,-2,-1
115710128580,-2,0,-1,1,0,0,-2,-1
115710128580,-3,0,0,-1,-2,0,-1,-5
115710137568,-2,-1,-2,-2,0,-2,-1,-1
115710137568,-2,-6,-3,-1,0,-2,-2,7
115710152462,-8,-1,0,-1,-3,0,0,-3
115710152462,2,5,3,1,0,-3,-2,1
115710154104,0,0,1,-1,-2,-2,-1,0
115710154104,-7,-2,-2,2,-1,-1,0,-1
115710175037,7,-2,0,-6,-3,-2,-2,6
115710175037,-8,-2,-1,0,-2,-1,-2,-8
115710176609,-1,1,0,-2,-3,0,-1,1
115710176609,-2,0,-1,5,-2,0,-2,-3
115710188656,1,0,-1,-2,-1,0,0,0
115710188656,-3,-3,-2,-1,-1,-1,-2,-2
115710197663,0,-2,-1,-2,-1,0,0,-1
115710197663,6,11,1,-2,-2,-1,-1,-4
115710212526,-3,-4,0,1,1,-2,-1,-2
115710212526,2,0,-3,-1,-2,-1,-3,1
115710214053,-4,-2,-1,-3,1,-1,-1,-2
115710214053,1,0,-3,-3,-1,0,2,-1
115710226138,-2,0,-2,0,-3,0,0,-2
115710226138,-4,-2,-2,-2,-2,-1,-1,-1
115710235105,0,0,0,-1,-1,-1,-2,0
115710235105,1,-5,1,-1,-1,-3,-1,-2
115710248655,-1,0,-1,-1,0,-1,-1,-2
115710248655,-5,-6,-1,-1,0,-1,-1,-1
115710257613,-1,-2,-2,0,-2,-2,-1,0
115710257613,-1,-3,-1,-3,-1,1,-3,1
115710272483,4,-1,-1,-2,-1,-3,-3,-5
115710272483,-7,-1,2,-2,1,0,-1,13
115710274053,11,18,3,1,0,-1,0,-20
115710274053,-4,-9,-1,-2,-3,-1,1,0
115710286074,-4,-2,-1,1,0,0,-1,1
115710286074,0,-2,-2,-1,-4,0,2,4
115710295156,-6,-4,-3,-4,-1,-1,-2,4
115710295156,3,1,-1,2,0,0,-2,-1
115710308543,1,2,-1,-2,-1,-1,-1,-2
115710308543,-1,-2,-5,-4,-1,-2,-1,-3
115710317569,-5,-4,0,-2,-2,-1,-1,1
115710317569,1,0,-1,-2,0,-2,-2,-4
115710332443,-4,-2,-3,0,-1,-2,-1,0
115710332443,1,2,0,1,-1,-2,-1,-5
115710334040,-4,-4,-3,0,0,0,0,1
115710334040,-1,1,-3,0,-2,-1,-2,-1
115710346077,-3,-1,0,-3,0,-2,-2,-1
115710346077,-1,-3,-1,-2,-1,0,-3,-2
115710355076,2,-5,-1,0,-2,1,-1,13
115710355076,-10,3,-1,0,0,-3,-1,-17
115710368605,-5,-1,-2,-1,-1,-1,-2,-4
115710368605,6,2,-1,-2,-2,-1,1,6
115710377576,-18,-20,-4,0,-2,-1,-2,-9
115710377576,5,1,0,-4,-1,-3,1,9
115710392443,-13,-9,-6,-2,-2,0,-3,-3
115710392443,5,9,3,1,0,-2,-2,-7
115710394100,11,4,-1,-1,-1,-1,-3,-3
115710394100,0,-3,-2,-3,-2,-1,-1,13
115710406055,-4,-3,0,1,0,-1,-2,-2
115710406055,-2,-4,-2,-2,0,-1,-1,-10
115710415162,1,4,-1,-2,-1,-3,-1,6
115710415162,7,0,-1,-1,-2,-1,0,-1
115710428541,2,4,1,-3,-3,-1,0,-3
115710428541,1,-3,-3,-1,-1,-1,-1,17
115710437595,-1,-2,0,-1,-2,-2,-2,-12
115710437595,-3,1,0,-5,0,0,-1,-2
115710452395,0,-3,-2,14,-1,1,1,1
115710452395,-4,-1,-2,-17,-5,-2,-1,-8
115710454031,5,0,0,6,2,-1,0,9
115710454031,-7,-3,-3,-26,-7,-2,-1,-4
115710466337,6,1,-1,1,0,-1,0,1
115710466337,-5,-3,-2,0,-1,-1,-2,-4
115710475152,2,-1,-2,6,0,-1,-1,5
115710475152,-6,11,3,9,1,-1,-1,-27
115710488652,-2,3,0,-1,-2,0,1,3
115710488652,0,-2,-2,1,-2,-1,0,-2
115710497574,-1,0,-1,-4,-2,-1,-1,3
115710497574,3,-2,-3,4,2,0,-3,2
115710512425,3,0,-2,-7,-3,-2,-2,-3
115710512425,1,3,1,7,0,-1,-1,-19
115710514052,-5,1,0,-3,-2,-1,0,1
115710514052,0,-5,-1,1,-2,1,0,2
115710526088,-2,-5,-2,-2,-1,-1,1,-3
115710526088,-2,-2,-2,-1,1,-1,0,10
115710535283,4,2,-1,-3,-2,-1,-2,3
115710535283,-8,-5,-1,1,-2,0,-1,0
115710548684,2,2,3,0,2,-1,0,3
115710548684,-3,-2,-1,2,-2,-2,-1,23
115710557658,0,-2,-2,-4,-1,0,-1,-9
115710557658,-4,-5,0,4,0,-2,0,1
115710572637,1,0,-2,-4,0,-1,-2,-3
115710572637,6,0,-1,-1,-1,1,-2,8
115710574119,-9,-13,-1,2,-1,0,0,-1
115710574119,3,-1,-3,-4,-1,-1,-3,6
115710586279,2,0,-3,0,-2,-1,-1,1
115710586279,-3,1,-3,0,1,-4,-1,-8
115710595080,-2,3,-1,-2,-3,-1,0,-2
115710595080,1,0,0,2,0,-1,-3,-5
115710608745,-2,-4,-1,-2,0,1,-1,-1
115710608745,-5,-3,-1,2,-1,1,-1,-9
115710617597,-3,-1,-2,-1,-2,-1,-1,-4
115710617597,1,6,-1,1,-1,-3,0,2
115710632620,-1,0,-1,-2,0,0,0,-4
115710632620,-1,-4,-1,-1,-2,-1,0,-2
115710634028,-1,2,-1,-4,-1,0,-2,0
115710634028,11,2,0,-1,-1,-3,1,1
115710646090,11,7,2,-1,-1,-3,-1,7
115710646090,0,10,4,1,0,1,0,-10
115710655244,-19,-28,-4,-4,-1,0,0,4
115710655244,5,1,-3,1,0,0,0,7
115710684985,-9,-8,-5,-1,-1,0,0,22
115710684985,4,1,-3,0,-2,-3,-3,-17
115710686578,8,12,2,-1,-1,-2,0,-5
115710686578,-6,-5,0,0,-1,1,0,1
115710692518,-5,-4,1,-2,-2,-1,-1,4
115710692518,-4,-7,-3,-1,0,0,0,-2
115710694151,-2,2,-1,0,-2,-1,-2,-4
115710694151,-4,-5,-2,-2,-1,-1,-2,-3
115710706101,-2,4,-1,-1,-1,-2,-3,-11
115710706101,-5,-6,-2,-2,-1,0,-2,-2
115710715087,4,6,1,-1,0,0,-2,-4
115710715087,-3,-2,-1,1,-1,-1,1,3
115710728657,-6,-4,-1,0,-2,0,-2,-10
115710728657,-1,-2,-4,-1,-3,-1,1,4
115710745129,2,1,-1,-2,0,-2,-1,1
115710745129,-1,-4,-1,-1,-2,0,-4,-5
115710752457,-4,-1,-1,-2,0,-2,-1,-6
115710752457,-3,-2,-2,-3,-2,-1,0,1
115710754074,0,2,-2,-3,-2,-4,0,5
115710754074,-6,-5,-2,1,0,-1,0,10
115710766030,-10,0,-2,-1,-1,-3,-3,-27
115710766030,-2,-5,1,0,-2,0,-1,3
115710775174,-9,-2,-2,-2,0,0,1,-3
115710775174,10,6,1,-1,-2,-1,0,9
115710788710,-8,-10,-4,-2,-2,0,2,6
115710788710,0,-3,-2,-1,1,-2,-1,0
115710797577,4,2,1,-1,0,-1,-1,16
115710797577,-8,-7,-2,-4,0,-1,-4,-9
115710812477,6,10,1,-2,-2,-2,-1,0
115710812477,3,0,-3,0,-1,0,-1,-1
115710814120,-5,-1,-2,0,-1,1,0,2
115710814120,-1,0,-1,1,-2,0,1,-12
115710826316,1,-5,-1,-1,0,-2,-1,3
115710826316,-1,2,-1,0,-2,-1,-3,4
115710835276,8,12,-1,-1,0,0,-2,-1
115710835276,2,-7,-3,-2,-1,-2,-1,-36
115710848657,-1,6,3,2,0,2,0,-5
115710848657,-8,-1,-3,-1,-2,-1,-1,-1
115710857640,6,3,3,0,0,-2,-1,-8
115710857640,-2,1,0,1,-2,1,-1,4
115710871822,4,-2,-2,0,-2,-2,-1,6
115710871822,-1,-1,-1,-2,0,0,-1,-8
115710878676,-3,-4,0,1,-2,0,-1,-12
115710878676,3,-5,-2,-2,-1,-3,-2,17
115710886154,-3,-5,-3,-1,-1,-2,-1,-5
115710886154,3,-1,-1,-1,0,-2,0,8
115710895246,-8,-6,-1,0,-3,0,1,-9
115710895246,-2,5,-2,1,0,-1,-2,-1
115710908612,3,-3,-3,-1,-2,-1,-3,-4
115710908612,1,-3,0,1,0,0,-1,4
115710917697,1,-2,-2,0,-1,-1,-2,-7
115710917697,-6,-1,-1,-2,-2,-1,-1,-2
115710932164,1,-1,-1,-2,-1,0,0,8
115710932164,-10,3,-2,-3,-4,-2,-1,-45
115710938795,0,-11,-2,-2,0,-2,0,4
115710938795,-1,3,0,-3,-2,-2,-2,5
115710946230,-3,-5,-2,-2,1,-1,-1,-6
115710946230,2,0,-1,1,-1,-3,-1,11
115710955249,-4,-1,-2,-1,-2,1,-2,-1
115710955249,3,1,-1,-2,0,-1,-1,-4
115710968751,-4,0,0,-2,-1,-1,2,-3
115710968751,4,2,2,1,-1,-3,-1,6
115710977662,-6,-6,-4,0,-2,0,-1,-5
115710977662,-1,-5,0,0,0,1,1,8
115710992046,1,-1,-1,0,0,1,-1,1
115710992046,-4,-6,-4,-3,-2,-2,-1,6
115710998626,-3,1,-2,-2,-2,-2,-1,-8
115710998626,-5,1,-1,-1,0,-1,0,-2
115711014903,-2,-2,-3,0,-2,-2,-1,-1
115711014903,0,1,1,-2,-1,0,2,-3
115711016514,-1,-2,-2,-1,0,-2,0,8
115711016514,1,1,-2,-1,0,-2,-3,-22
115711028645,1,-1,1,-2,-1,-2,-2,0
115711028645,0,-3,-1,0,-2,0,-1,5
115711037595,2,1,0,-2,1,0,0,2
115711037595,-7,0,0,-1,-1,1,-2,3
115711051941,1,-3,-2,-2,-2,-1,-2,0
115711051941,-1,0,0,-3,-3,-1,-2,-5
115711058790,-15,-3,-1,-1,-2,-3,-1,4
115711058790,-6,-4,-2,0,-1,-2,1,3
115711074973,4,3,1,-1,-1,-1,-2,-28
115711074973,0,-2,0,-1,-1,-1,-2,9
115711076610,6,2,-1,-1,-1,-2,-1,-1
115711076610,-1,-8,-2,0,-1,0,0,8
115711088777,0,7,0,-1,-1,2,0,4
115711088777,-6,-5,-1,0,0,-1,-3,-5
115711097657,25,8,0,-2,-1,-2,0,9
115711097657,-5,-3,-1,-1,-1,-2,-3,-22
115711111824,-1,-4,-3,-4,-3,-3,0,5
115711111824,-8,-1,-2,0,-1,0,1,-2
115711118582,4,1,-1,-1,0,-1,-2,13
115711118582,0,-1,-2,0,-1,-2,-4,5
115711135003,0,-2,0,-1,-1,-2,-1,2
115711135003,1,-2,-2,-1,0,-1,0,0
115711136614,-5,5,0,-2,-1,-1,-1,-9
115711136614,-1,-9,-1,-2,-1,-1,0,1
115711148630,-7,-2,0,0,-2,-1,-2,-4
115711148630,6,-5,-5,-1,-2,-1,-1,5
115711157699,-3,2,0,0,0,0,-1,-9
115711157699,11,0,-3,0,-1,-3,1,21
115711171789,-5,9,-1,-2,-1,0,-2,-6
115711171789,-3,-3,0,-1,0,-2,-1,3
115711178666,-2,0,0,0,-2,0,0,-9
115711178666,8,2,-1,-2,0,-2,0,6
115711195187,-2,-8,-2,-1,0,-1,1,3
115711195187,5,2,0,-2,-2,-2,-1,-4
115711196590,-7,-3,-2,-2,-3,-4,-2,-2
115711196590,-2,0,-1,0,0,0,-2,-9
115711208826,0,0,-1,1,0,1,1,7
115711208826,2,2,-2,-1,1,-1,0,-6
115711217650,-1,-5,-2,-2,-2,-1,-2,2
115711217650,-3,1,-3,-1,-3,0,-1,-6
115711231903,-1,-3,-3,-1,-1,-1,-3,-4
115711231903,-9,-2,-1,-1,-1,-1,0,-3
