timestamp,emg1,emg2,emg3,emg4,emg5,emg6,emg7,emg8
85945827337,-1,0,-3,-1,-1,-1,1,-3
85945827337,-1,-1,-1,-2,-2,-1,-2,0
85945849710,0,-1,-1,1,0,-2,-2,-1
85945849710,-1,2,-2,-2,-1,-1,0,-2
85945851346,-1,-2,1,-1,-2,0,-1,-2
85945851346,-1,-1,-1,-2,-2,-2,-1,-1
85945864721,-2,-3,0,-1,-2,-2,0,-3
85945864721,-1,-3,-1,-1,-1,1,0,-1
85945866355,-2,-1,-1,-1,-2,0,-3,0
85945866355,-1,-1,-2,0,0,-1,0,-1
85945878295,1,0,0,0,-2,-2,-1,0
85945878295,-1,-1,-1,0,-1,-1,-2,-1
85945887352,0,0,-3,-6,-1,-1,1,-2
85945887352,-1,-3,-3,-5,-3,-2,-2,0
85945902230,-2,-2,1,2,-1,0,-1,-3
85945902230,1,-1,-4,-2,-2,0,-1,1
85945903806,0,-1,-1,1,-1,0,-2,-1
85945903806,-3,-2,-2,0,-2,-1,-3,-4
85945924746,0,-4,-1,-3,-2,-1,-1,-2
85945924746,-2,-2,-1,-1,1,-2,-2,0
85945926343,-2,-1,-2,3,-1,-1,-1,-1
85945926343,1,0,-1,-1,0,-1,-1,-1
85945938338,-2,0,-1,2,1,1,2,1
85945938338,-2,-1,-1,0,0,-3,1,-4
85945947396,-1,-1,-3,-2,-1,-2,-1,-2
85945947396,-2,-2,1,-2,0,0,0,0
85945962237,1,1,-2,-2,-1,-1,-1,-1
85945962237,0,-3,0,1,-3,-1,-3,-2
85945963860,-1,-3,-1,-2,-1,-1,-1,1
85945963860,0,1,-1,2,-2,0,0,-1
85945992226,-1,0,1,3,1,-3,-1,-1
85945992226,-1,-2,-3,-8,-2,14,0,-2
85945993861,-1,-3,-1,-3,-6,-13,-1,-2
85945993861,-2,-1,-1,2,7,2,1,-1
85945998352,0,4,-2,1,-8,-3,-4,-2
85945998352,-2,-9,-1,-2,1,-5,-3,-3
85946007341,-2,0,0,0,0,7,2,-1
85946007341,-2,-1,-2,-5,-8,-9,-5,-3
85946022068,0,2,2,3,5,-5,-3,0
85946022068,1,4,0,4,8,2,3,5
85946028389,0,0,-1,1,2,7,-1,-2
85946028389,-1,-4,-1,-11,-15,-16,1,-2
85946044722,-4,-2,-1,-1,0,9,-1,-1
85946044722,-5,-1,-3,-1,-9,-17,0,0
85946046329,0,-2,-4,-2,5,14,1,-1
85946046329,-2,0,2,8,5,11,-7,3
85946058373,-1,-5,-5,-8,-6,-29,7,1
85946058373,-4,0,-2,0,0,2,-15,4
85946067369,0,4,4,3,0,4,8,34
85946067369,-7,-4,-4,-5,1,8,1,-14
85946081494,-6,-6,-1,-2,3,19,-4,1
85946081494,-9,1,0,-2,-7,-17,1,-4
85946088407,-3,-2,0,2,-13,-42,-18,-15
85946088407,3,4,-8,-6,5,8,1,0
85946104743,7,-5,1,-3,-6,14,-6,1
85946104743,-22,-1,0,10,7,-11,12,-16
85946106357,-6,-1,0,-23,8,21,2,-7
85946106357,5,8,9,26,-6,-14,0,-29
85946118363,8,0,-3,13,1,-2,10,58
85946118363,4,-4,-7,9,-5,43,-7,17
85946127377,3,3,3,9,-6,-33,-12,-21
85946127377,6,-6,-5,-32,-2,-34,-2,12
85946141559,-7,5,2,-11,6,43,20,-13
85946141559,-3,-3,0,8,0,-21,-11,-15
85946148331,11,-1,-1,0,3,47,6,32
85946148331,5,-12,-6,8,-14,-83,-20,-4
85946164748,-28,-4,-6,-7,-5,21,-25,-54
85946164748,-1,-12,0,-8,-6,-23,26,38
85946166303,-50,-11,-4,-8,-9,3,0,-70
85946166303,9,4,1,-2,18,48,11,100
85946187198,2,-6,-5,-2,-6,-45,-17,-26
85946187198,11,16,3,-9,14,20,6,-33
85946188849,22,0,-2,2,-17,1,-7,52
85946188849,-9,-3,-8,-8,-10,-4,17,13
85946201572,-1,3,0,0,-3,22,6,-23
85946201572,-4,5,5,-1,-22,-59,-37,-32
85946208391,22,0,-1,6,12,13,12,16
85946208391,-5,-4,-2,0,12,42,14,-11
85946224769,-1,2,-2,-22,-19,-44,-16,9
85946224769,37,1,-3,0,0,20,5,-9
85946226363,-59,-25,-5,1,13,6,-22,1
85946226363,-25,-3,5,12,0,-21,8,-20
85946247208,4,3,0,6,6,50,17,13
85946247208,-14,-11,3,-5,0,-24,-13,-42
85946248812,25,2,-13,-11,-9,-41,-4,1
85946248812,4,4,-4,8,6,41,-16,-20
85946261529,6,-7,-5,-11,-9,-37,-3,20
85946261529,-5,6,14,11,3,13,-1,-17
85946268369,2,-19,-22,-19,1,-3,17,17
85946268369,3,1,-3,-2,8,28,-3,-18
85946284718,-6,2,7,4,-15,-45,2,3
85946284718,19,7,-10,-11,-9,27,-9,-1
85946286345,-15,9,13,16,17,15,-4,-21
85946286345,10,-4,-5,-12,-20,-27,-3,-17
85946307200,-2,-9,-3,3,8,-3,5,24
85946307200,4,-4,-9,-6,-7,7,0,20
85946308862,13,7,2,-7,-8,-12,-15,-20
85946308862,0,-13,-5,-5,-1,-11,12,4
85946320884,16,8,2,11,11,37,0,-8
85946320884,-7,-6,-1,-3,11,-21,-6,6
85946337379,5,2,-3,-1,-8,-12,6,-7
85946337379,-8,4,9,9,6,12,-4,10
85946344731,2,0,5,-3,-2,-25,6,-3
85946344731,6,-1,-1,-11,-5,28,16,2
85946346312,6,-6,3,4,0,-28,-17,-1
85946346312,-12,9,2,6,2,10,-12,-17
85946367213,-6,-3,3,6,0,21,12,13
85946367213,-25,1,-3,-3,2,-22,-19,-16
85946368846,35,17,7,5,-15,3,20,35
85946368846,-6,-3,1,7,14,14,-6,-2
85946380818,0,0,-4,-8,6,14,-9,-14
85946380818,-4,-2,-1,1,-12,-15,16,30
85946389856,-11,4,3,8,12,10,-9,-27
85946389856,4,-2,-4,-7,-14,-18,0,15
85946404772,1,-2,-10,-7,-6,3,-6,-10
85946404772,-2,-3,-2,-4,-1,19,3,2
85946406321,-15,1,2,21,9,-41,-12,-6
85946406321,9,3,2,-36,5,29,28,-4
85946427281,-4,-4,-6,15,2,-1,-8,-7
85946427281,-4,-2,4,15,-7,7,5,12
85946428885,0,-2,-17,-67,-12,6,-1,-7
85946428885,-6,-1,-7,12,-8,-17,-13,-2
85946440853,3,4,1,10,9,2,7,9
85946440853,-4,0,0,8,7,-11,2,-3
85946449883,8,1,12,36,14,21,10,-2
85946449883,-7,-4,-5,-13,-21,-15,-10,-10
85946471278,-4,-3,-9,-12,-8,-18,2,-4
85946471278,6,-3,-5,-13,8,13,-1,10
85946479829,-8,-1,-1,-8,1,3,1,-4
85946479829,3,0,-7,-2,-4,-2,-1,-4
85946487213,-3,1,3,22,-7,-12,-10,-3
85946487213,-4,-1,4,-10,8,7,1,8
85946488864,-4,-7,-7,-5,-7,2,4,5
85946488864,7,4,1,5,-2,-5,-11,-7
85946500872,2,-4,0,5,2,-6,-5,4
85946500872,-32,-4,-5,-3,-3,-8,-4,-18
85946509872,-1,1,-2,-17,-18,6,6,7
85946509872,1,5,5,14,9,-1,-2,16
85946524733,-10,-2,5,-7,-5,-7,-9,-37
85946524733,17,2,0,-6,3,1,2,15
85946526325,9,-2,-4,0,-7,0,4,14
85946526325,-20,-1,-1,0,-1,0,0,-24
85946547231,3,5,0,-2,6,-6,-4,5
85946547231,3,-2,3,6,-3,-1,2,1
85946548802,2,-3,12,15,-6,1,1,7
85946548802,6,3,-27,-29,-6,-10,-6,2
85946560852,3,-4,12,-1,-2,-1,6,9
85946560852,7,2,-3,4,4,-2,-9,2
85946569846,-14,-9,6,-17,7,11,12,0
85946569846,-11,-17,-12,7,-10,-10,-20,-54
85946584724,-1,5,1,-5,2,-3,0,-5
85946584724,31,-2,-2,0,3,9,6,76
85946586344,-22,-15,7,59,-2,-3,-2,-80
85946586344,-38,-15,19,-25,-4,4,3,-56
85946607222,41,-3,-13,-26,-8,-5,5,83
85946607222,-61,2,-11,16,-1,-8,-18,-109
85946608872,45,0,-3,19,-1,-5,4,73
85946608872,-20,-2,19,33,7,3,-11,-48
85946620816,15,1,-13,-13,-4,-3,8,33
85946620816,-13,6,-7,17,-6,-4,-17,-64
85946629870,3,13,-11,15,-1,-1,15,49
85946629870,3,-6,-12,-4,7,1,-2,46
85946644728,11,10,13,39,3,2,30,33
85946644728,-5,-6,-4,-5,2,8,-7,12
85946646343,0,7,3,-3,-8,-7,-16,-59
85946646343,-16,-14,8,23,4,-10,32,104
85946667180,14,5,2,-18,5,-6,-16,-7
85946667180,15,-2,2,4,-4,-5,-6,79
85946668800,-29,5,15,10,13,24,50,-9
85946668800,53,7,-9,-22,-15,-13,-21,-18
85946680867,-27,-2,3,4,-28,-32,-10,16
85946680867,23,-5,-2,-21,30,57,10,19
85946689896,-31,-3,-2,-20,9,-2,-20,10
85946689896,40,14,2,12,34,16,27,5
85946704698,-18,-6,-6,9,-13,-12,-22,-40
85946704698,-7,2,5,28,28,22,-20,-9
85946706355,25,-3,-13,-48,-19,31,-18,10
85946706355,-4,5,-7,4,-15,-80,16,18
85946727211,-40,-17,-16,7,5,36,-20,-44
85946727211,12,-4,-9,0,-7,-7,51,-5
85946728803,12,2,6,-1,15,37,47,-6
85946728803,13,-1,21,0,-6,-2,-10,0
85946740869,-4,-4,5,-32,-15,2,-17,-29
85946740869,-19,-6,6,-8,-26,-24,-25,5
85946749839,-12,-3,-3,2,-4,-29,-30,-21
85946749839,-10,2,-6,-15,-14,2,-19,-16
85946764710,5,6,2,11,22,8,27,13
85946764710,5,1,4,-49,-5,0,-5,-18
85946766305,21,-4,-9,12,-3,-37,-11,17
85946766305,-20,1,-4,-4,-4,34,18,26
85946787257,-25,0,2,19,18,8,-23,-25
85946787257,28,3,9,-2,-10,-27,12,14
85946788866,-24,0,-10,-8,0,-5,-5,-33
85946788866,22,5,2,6,8,19,9,-1
85946800857,-3,-3,0,3,2,0,-4,-20
85946800857,-15,-4,-10,-3,-10,-18,-2,-16
85946809851,2,3,0,-7,-8,-3,-8,4
85946809851,-10,0,2,10,-1,-4,-10,-40
85946824732,-10,-10,-16,-18,-4,-11,6,0
85946824732,29,-1,4,0,-9,-4,5,42
85946826301,-37,5,-4,-7,-1,3,-3,-18
85946826301,-6,0,5,4,2,3,3,14
85946847243,-9,-8,-10,-12,-5,2,-6,-46
85946847243,16,4,-4,-6,-9,-12,-3,-1
85946848846,10,0,3,8,10,4,2,13
85946848846,-5,-4,-5,-4,-8,2,-12,-6
85946860832,8,2,1,-6,7,2,17,12
85946860832,-13,-1,-2,9,-7,-6,-15,-7
85946869857,7,-6,-4,-21,-12,-11,-8,-6
85946869857,-16,0,4,3,-5,6,-7,-5
85946884054,5,-3,-6,-8,0,2,-5,23
85946884054,7,4,5,0,-13,-11,6,5
85946890861,8,-11,1,6,2,-4,-4,5
85946890861,16,1,0,2,3,5,-3,18
85946907191,-3,4,-4,-19,-7,-1,5,1
85946907191,-20,-7,1,7,4,-4,-7,-29
85946908824,-1,-4,-2,1,-3,-4,-2,16
85946908824,-8,-2,-6,-7,-5,0,-2,-27
85946920844,8,2,5,16,6,-2,1,-5
85946920844,5,1,5,4,2,3,16,9
85946929833,-4,1,0,-6,-8,-6,-11,6
85946929833,-1,-4,0,-1,2,3,-5,-3
85946944089,2,2,4,1,2,-2,-4,-4
85946944089,-7,-3,-8,-5,-2,-1,0,-5
85946951065,7,2,4,4,3,-1,0,6
85946951065,-13,-5,-16,-11,-7,-6,-11,-21
85946967201,0,-2,-1,-1,2,2,6,0
85946967201,-24,-2,-5,2,2,-2,2,22
85946968858,9,0,2,3,-6,-4,-2,-21
85946968858,-6,0,0,-3,-1,1,0,1
85946980848,18,-8,-3,-3,-3,-2,-3,9
85946980848,-1,-7,5,5,7,-4,-7,-4
85946989880,-4,-2,-11,-15,-36,-8,-8,4
85946989880,1,-4,7,7,4,3,7,13
85947004036,16,7,-6,-11,-14,-8,-4,26
85947004036,-14,0,7,7,1,2,2,-34
85947010814,-15,-7,-14,-11,0,-9,-12,-38
85947010814,18,-4,1,7,9,5,2,34
85947027186,-30,-11,-5,5,-5,-6,-2,-32
85947027186,45,7,1,-20,2,-3,3,26
85947028806,-75,-13,9,9,-2,6,-7,-80
85947028806,75,10,-2,-9,-1,-3,9,93
85947040901,-54,1,-6,-2,4,2,1,-15
85947040901,-13,-6,11,6,1,5,8,14
85947049817,35,4,-16,2,7,-2,0,20
85947049817,-4,-1,9,3,0,-5,-22,-5
85947064089,3,1,3,-21,-4,0,33,-13
85947064089,25,9,-17,6,-9,-8,-24,-15
85947070862,-14,-18,-4,4,11,7,20,30
85947070862,-10,0,-5,8,0,-2,-5,-24
85947087259,-11,-16,-2,5,1,1,-13,-4
85947087259,-12,-3,-11,-12,-5,-3,-29,-105
85947088812,13,18,13,10,7,-3,-7,8
85947088812,25,-10,-27,-35,-18,-6,14,22
85947109734,5,10,21,20,11,10,61,7
85947109734,16,-14,-3,-5,-2,1,-29,9
85947111266,-32,-10,-2,2,2,-10,-29,-19
85947111266,1,7,16,16,14,4,39,42
85947124026,22,14,-2,16,-8,-11,-115,-38
85947124026,-42,-3,-7,-16,-9,21,117,21
85947130874,30,14,1,3,14,-16,-36,-9
85947130874,-44,-9,4,0,-5,17,-34,-31
85947147199,14,-9,-5,7,3,2,32,9
85947147199,-6,5,5,28,2,-20,-49,9
85947148796,11,-2,-4,-21,2,83,71,43
85947148796,4,3,-8,-3,-5,-101,12,-28
85947169727,12,-1,-4,-22,0,-5,-3,35
85947169727,-2,-4,2,6,9,10,-8,-6
85947171344,19,4,7,-2,-4,-10,2,23
85947171344,-28,-3,3,-3,-6,30,-19,-15
85947183380,-16,-6,1,11,-8,-2,1,-44
85947183380,0,-3,-11,-11,-7,-19,1,16
85947192370,-1,-2,0,-7,-3,-10,-16,-8
85947192370,0,1,1,11,-2,15,8,0
85947207186,-9,-5,-11,-32,-7,-16,-12,-25
85947207186,-6,8,-7,-2,0,6,-5,5
85947208857,3,-6,-7,-24,-5,-9,-1,4
85947208857,-9,-2,0,14,0,5,-2,-27
85947229758,5,1,6,6,2,2,10,25
85947229758,4,-1,-4,-2,-2,1,-6,6
85947231319,3,0,-2,-1,-3,-12,1,-10
85947231319,-5,-2,-4,-4,-2,-1,-6,-6
85947243324,0,1,-2,-2,0,4,-8,6
85947243324,0,5,1,5,-2,2,5,8
85947252353,-3,-3,-2,10,-5,-20,-5,-3
85947252353,-4,-2,-1,-8,-1,7,-4,-10
85947267665,4,-2,-1,5,-2,2,0,9
85947267665,-6,-4,3,-2,-2,-6,-1,-5
85947273327,3,-1,1,1,-2,-5,3,5
85947273327,-1,0,0,16,2,7,-6,-10
85947289729,4,2,-1,-22,-4,-3,3,9
85947289729,-5,-6,-2,6,-1,-6,1,1
85947291371,-2,1,-2,-11,0,0,-5,-4
85947291371,-3,-4,-2,11,-1,4,0,-2
85947303354,-1,-2,1,7,3,-3,0,1
85947303354,0,-3,0,19,2,1,-1,-1
85947312333,0,-1,0,-7,-2,-2,-3,0
85947312333,-5,-1,-7,-33,-2,-1,-1,-8
85947327233,-2,-1,-2,-36,-12,-1,-2,3
85947327233,-3,-2,-7,-5,2,7,-1,-2
85947328860,-3,0,5,19,1,-25,-3,-1
85947328860,-2,-10,-2,2,0,5,-1,1
85947349724,0,1,-3,47,8,7,4,1
85947349724,-5,-2,5,-10,-3,9,0,1
85947351332,-3,-4,-3,-56,-7,-2,-3,-3
85947351332,-3,-1,-1,24,-5,-9,-6,-2
85947363379,2,1,4,102,7,0,-1,4
85947363379,0,-4,-4,3,-9,-19,-6,-2
85947372324,1,4,10,102,16,7,5,0
85947372324,-2,1,-6,-105,-10,-2,-3,-2
85947387149,13,1,5,-15,4,9,1,0
85947387149,-2,-2,-5,8,-3,-6,-1,0
85947388764,-1,-1,-1,-27,-10,-2,0,2
85947388764,-1,-2,3,34,6,1,-2,-2
85947409792,-8,-4,-2,-24,-3,-9,-1,-1
85947409792,2,1,1,-10,4,11,0,-2
85947411321,0,-2,-3,-7,-3,-6,-2,0
85947411321,-3,1,-1,1,-3,3,0,-4
85947423318,-1,-2,-3,-20,-1,-5,-5,0
85947423318,2,0,1,-3,-2,-3,1,0
85947432314,-2,-2,-2,2,0,6,0,-1
85947432314,0,0,-1,5,0,11,0,-2
85947447214,-3,0,-1,-6,-2,-15,1,1
85947447214,-2,-2,2,-3,1,0,2,2
85947448779,-2,-2,-6,-7,-4,3,-2,-2
85947448779,0,0,0,4,0,-1,-1,-3
85947469737,0,-1,-2,-5,-3,0,-1,-2
85947469737,-2,-1,-3,-16,-2,-4,-1,-1
85947471334,-1,0,-2,10,-2,-1,-1,0
85947471334,0,-2,-1,13,-1,-1,-1,-3
85947483320,-1,0,-3,-21,-5,-7,-3,0
85947483320,0,0,1,-7,4,0,-2,0
85947492347,1,-2,-3,-3,-5,3,-1,0
85947492347,0,-1,-2,-8,0,-3,-2,-1
85947507166,-2,-3,-2,22,0,4,0,-2
85947507166,-1,-3,2,-24,-3,-1,-2,-5
85947508815,-1,-2,-6,14,-2,-7,-4,-1
85947508815,-2,-2,0,3,2,0,-1,0
85947529693,-1,0,-1,-12,0,1,2,0
85947529693,-1,0,0,17,1,1,-2,-1
85947531313,-1,-1,-3,-5,-3,1,0,0
85947531313,0,0,-2,-7,-3,-6,-1,-1
85947543336,-1,0,-3,-6,1,0,-1,0
85947543336,-2,-1,-1,0,-2,-1,0,0
85947552383,-2,0,-2,-12,0,-2,-1,-4
85947552383,0,-1,0,2,1,-5,-2,0
85947567258,-2,0,-1,-1,-2,0,-1,-1
85947567258,-1,-1,-2,-4,-3,-1,0,0
85947568843,-1,0,-1,-4,-1,-4,-2,-1
85947568843,-1,1,1,8,1,1,-1,-2
85947589756,-1,0,-1,0,-2,3,-1,0
85947589756,-2,0,-4,-4,-2,-3,-1,-2
85947591302,-1,-1,-2,2,-2,-1,0,-1
85947591302,-1,-2,0,2,-1,-1,-1,-1
85947603360,-1,-2,-1,-8,-2,0,-1,-2
85947603360,-1,0,-4,0,-2,-1,-2,-3
85947612330,1,0,0,2,0,-1,0,0
85947612330,0,-2,-1,-3,-1,0,1,-2
85947627222,-2,-1,0,-2,-2,-3,0,0
85947627222,1,-1,-2,4,0,-1,1,-1
85947628840,-1,-1,0,-4,2,-1,0,-2
85947628840,0,1,-2,-2,0,-2,-1,1
85947649739,-2,0,-4,0,-2,0,-1,0
85947649739,-1,-1,-1,-1,-1,0,-2,-2
85947651354,-1,-1,-1,-3,-2,-2,0,1
85947651354,-1,-2,-1,0,-1,-3,-2,-1
85947663387,-1,-3,0,-2,-1,-1,-1,-2
85947663387,0,-3,0,-1,-1,-2,-1,0
85947672325,0,-3,0,-3,-2,0,-2,-2
85947672325,-1,-2,-1,1,-1,-1,-1,-1
85947694757,-2,-1,-1,-3,0,-1,-1,-1
85947694757,-1,0,-1,-3,-1,-3,-1,-1
85947696335,-1,-1,-2,-1,0,-2,-3,-2
85947696335,-3,0,-2,0,1,-2,1,-1
85947709732,-1,0,0,-3,-4,0,-3,0
85947709732,-1,0,-2,-3,-3,-3,0,0
85947711379,-3,0,-3,-2,-2,0,-2,-1
85947711379,-1,-1,1,-1,-2,-1,-2,-1
85947723331,0,-2,1,0,0,-1,-3,0
85947723331,-2,-2,2,1,1,-2,0,-2
85947732370,-1,-1,2,-2,-2,-2,0,-1
85947732370,-2,-1,-1,-3,-3,-2,-1,-3
85947747156,-1,-1,3,0,-1,-2,-1,-2
85947747156,-3,-3,1,0,0,0,0,-1
85947748806,-2,0,1,-1,2,-2,-1,-4
85947748806,-2,-1,-1,-1,-2,-2,-1,-2
85947769703,-1,0,-2,-1,0,-3,-4,-1
85947769703,-1,-2,-1,-2,-3,-2,-2,0
85947771307,2,-3,-4,0,-1,-1,-2,-2
85947771307,-2,-1,0,0,-3,-1,-3,1
85947783331,-1,-3,-1,-1,4,2,-1,0
85947783331,-2,-1,-2,-1,0,-1,-1,0
85947792374,0,-1,-4,-2,-5,0,-1,0
85947792374,1,-1,0,0,-1,-3,-2,-1
85947806554,1,1,-3,7,5,2,1,-1
85947806554,-1,-1,-4,-4,-3,-1,0,-6
85947813359,-1,1,1,2,5,0,0,3
85947813359,-1,1,-4,-9,-7,1,1,-1
85947829709,-10,-17,-2,-3,1,-2,-1,-5
85947829709,-3,1,0,1,-5,0,-1,-5
85947831349,1,-1,-4,1,0,-4,-4,-11
85947831349,-5,-5,-4,1,3,0,1,18
85947843437,0,3,1,-2,-2,-3,0,5
85947843437,-3,-1,0,-1,4,0,2,1
85947852329,-1,-1,-1,7,-7,-1,-4,-6
85947852329,-3,5,-2,-4,-3,-4,0,-11
85947866538,12,6,1,-3,-1,0,0,-1
85947866538,-4,-2,-2,-3,-2,-2,-8,-19
85947880940,5,1,0,1,3,2,5,9
85947880940,-3,2,3,4,0,-1,-6,-31
85947889787,-5,-13,-1,15,-4,-1,2,24
85947889787,0,0,-2,-19,-3,0,-3,-9
85947891410,-1,-2,-2,-26,-4,0,-1,-5
85947891410,4,-1,2,14,1,-1,0,2
85947903548,-15,-7,-7,-11,-5,-3,-4,-53
85947903548,46,16,2,10,3,-2,2,26
85947912401,-3,-9,1,4,-2,-3,0,7
85947912401,-2,-3,-4,-17,-2,1,3,7
85947926788,3,4,-5,10,-1,1,1,10
85947926788,-14,-2,-5,0,-5,-2,-2,2
85947933412,-4,5,2,-10,-4,-2,-3,-6
85947933412,7,-1,-8,-2,2,1,-2,3
85947950264,3,3,-1,14,-1,-1,-2,5
85947950264,-8,-7,-6,-33,-10,-3,-2,6
85947951869,-1,-12,-3,12,2,-1,-3,3
85947951869,-8,-4,-2,-14,-1,-2,-2,-1
85947963607,2,3,4,5,-1,0,-2,3
85947963607,-9,-7,-4,26,3,1,2,-2
85947972408,3,1,-1,-20,-3,-1,0,6
85947972408,1,0,0,0,-3,1,-1,1
85947986780,1,2,0,-17,-3,-2,-2,3
85947986780,-2,-1,2,6,1,0,-1,-3
85947993610,-1,2,-4,9,-3,-3,-1,0
85947993610,-2,-1,2,-5,1,-2,-1,-2
85948009744,12,7,4,15,3,1,0,-1
85948009744,6,-4,-7,-45,-4,0,3,0
85948011344,-1,-6,5,-13,5,2,2,-4
85948011344,0,5,-6,2,-11,-3,0,14
85948032253,-6,-5,-2,16,5,-3,-3,3
85948032253,1,0,2,-20,0,1,0,0
85948033845,-2,1,-2,54,-4,-5,-5,-7
85948033845,4,5,3,-27,4,3,-1,-1
85948046600,-9,-4,-7,-18,-6,-2,-2,-5
85948046600,-11,-3,2,33,4,-1,-3,-2
85948053473,-1,3,-2,-5,-2,2,-1,2
85948053473,-4,-5,1,12,7,-1,-2,-5
85948069767,-3,0,-4,-24,-9,-1,-2,-1
85948069767,-6,-3,-2,1,1,-2,-2,-3
85948071406,-6,-1,-5,-11,-5,-1,-2,-1
85948071406,0,-3,4,11,0,-2,-2,-7
85948092397,11,2,1,19,2,0,0,14
85948092397,-10,-19,-7,-58,-7,-3,-2,-37
85948093832,-6,-2,-2,10,1,-3,2,11
85948093832,9,3,2,8,0,-1,-2,-25
85948106581,-3,-3,-8,-23,-7,-5,1,19
85948106581,19,11,9,39,9,3,0,24
85948113571,10,2,-1,9,4,1,-3,-3
85948113571,-6,-7,-2,-32,-6,-1,-5,-55
85948129876,-8,4,-1,5,4,1,4,64
85948129876,-5,-2,1,12,-7,-2,-4,-16
85948131364,-3,2,-2,4,4,-1,0,-29
85948131364,2,4,-4,2,0,-2,-1,8
85948152844,-14,1,3,12,-1,0,-5,-7
85948152844,8,3,0,24,1,0,4,8
85948154404,-5,-5,-2,-62,-16,-3,-5,-6
85948154404,-4,-8,-8,14,-3,-2,2,36
85948165934,-5,-4,-1,-17,0,0,0,-35
85948165934,-7,-1,-2,12,2,0,-1,-4
85948174940,-1,-1,-1,-14,-1,-1,1,11
85948174940,3,-1,-2,2,-2,-1,-1,8
85948189969,7,-5,-1,-3,4,2,-2,-26
85948189969,-6,3,-5,-14,-6,-2,-1,2
85948191354,7,-4,3,10,2,3,1,-6
85948191354,2,-3,0,9,1,0,1,23
85948212383,-2,0,0,6,0,-3,-1,0
85948212383,-15,2,-1,8,0,-1,1,-15
85948213887,-3,1,-5,-1,-1,-1,-1,9
85948213887,-6,-2,-1,-1,-3,-1,-2,-4
85948226610,3,1,1,0,0,-2,-1,-4
85948226610,-5,-17,-4,-2,-3,-1,-3,2
85948233568,-2,2,1,9,3,0,-1,5
85948233568,-9,0,-1,-20,-7,-3,-1,10
85948249845,-2,-3,-4,6,-3,-4,-1,-16
85948249845,-4,3,-1,-1,0,-2,-4,9
85948251392,-4,-1,0,11,3,0,-3,-5
85948251392,-4,-1,-1,-1,1,0,-1,1
85948272109,-10,-4,-1,-4,-2,-1,-2,-12
85948272109,13,2,-3,-35,-6,-3,0,17
85948278609,-1,2,0,6,0,-1,0,-2
85948278609,1,0,1,6,1,0,-3,-6
85948286656,-5,-1,2,0,-4,-3,-2,-2
85948286656,-9,1,-1,-10,1,1,-2,-14
85948293389,-4,-6,-4,22,-3,-3,-2,1
85948293389,0,1,-1,-2,0,-1,3,36
85948309973,-21,-12,-4,-2,-2,-4,-8,-15
85948309973,3,-2,1,6,3,0,-3,-2
85948311430,-2,1,-1,-16,-3,-2,0,-8
85948311430,-4,-1,-1,8,-1,0,-3,-10
85948332471,3,1,0,-1,1,4,-3,-1
85948332471,-1,2,-2,2,0,1,1,5
85948333889,-6,-3,-2,6,0,-1,-1,2
85948333889,-5,-2,-1,-8,-5,-3,-3,-22
85948346799,4,2,0,-15,-2,-1,0,-4
85948346799,-1,-1,0,18,-1,-1,-1,-1
85948353517,2,1,0,-2,-1,-1,3,7
85948353517,1,-6,-2,-8,0,-1,1,-30
85948369916,10,5,0,4,-2,-1,0,2
85948369916,6,1,0,4,-2,-3,0,13
85948371364,-4,-2,0,22,1,-1,-2,-2
85948371364,0,1,-2,-18,-5,-2,1,25
85948392555,5,-1,-2,-5,-2,0,2,0
85948392555,-8,-10,-2,16,-1,2,1,-2
85948393902,7,5,-1,-5,0,1,0,0
85948393902,-2,0,0,5,0,-2,-1,-9
85948406805,-2,-1,-1,-3,-1,-2,1,-4
85948406805,-13,1,-4,-7,-2,-2,-4,-12
85948413595,-1,-3,-1,-13,-5,-2,-3,0
85948413595,0,5,-1,8,1,0,-2,1
85948429912,3,3,1,-3,-1,-1,-1,1
85948429912,-4,-2,-3,-3,-1,-3,-6,-19
85948431392,0,-1,0,-11,-3,-2,0,-1
85948431392,2,-1,-1,8,-1,-2,-2,-8
85948452201,-6,-3,-6,-8,-1,0,-1,-10
85948452201,-1,-2,-1,3,0,1,1,9
85948453825,0,-2,0,-4,-2,0,-2,-4
85948453825,-2,-3,-1,-8,0,-1,-1,4
85948465904,2,0,-1,3,0,-2,-1,2
85948465904,-5,3,-1,-2,-1,-1,1,11
85948474918,-6,1,-2,-4,-1,-2,-1,-2
85948474918,1,1,1,7,0,-1,-2,-5
85948489798,-3,-3,-4,-13,-3,-1,0,-2
85948489798,6,4,1,10,1,-1,-1,2
85948491400,-8,-8,-5,-31,-7,-3,-2,6
85948491400,5,-2,1,6,1,0,5,-11
85948512223,5,2,0,-3,-1,0,-2,4
85948512223,2,-1,-1,-2,0,-1,-1,6
85948513847,2,-3,-3,-3,-2,0,1,8
85948513847,-5,-3,0,-1,-1,-1,-3,2
85948525940,1,-2,0,-5,-3,0,-2,3
85948525940,-1,-1,-1,-5,-1,-2,0,-8
85948534965,-1,-2,-1,-2,1,-2,-3,-1
85948534965,3,-6,-1,6,-2,-1,0,-1
85948549985,5,1,0,1,-1,0,1,1
85948549985,7,10,0,1,-2,-1,-3,5
85948551302,-3,0,-1,2,-2,-2,-2,-14
85948551302,-2,-4,1,13,0,-3,-4,0
85948572433,-2,8,-2,-9,-2,-1,-2,-1
85948572433,3,-1,0,-10,-2,0,-1,29
85948573816,0,1,0,3,1,-1,-1,-35
85948573816,-3,0,-1,-4,-1,-1,1,14
85948594795,-1,1,2,3,-3,-1,-1,-3
85948594795,-7,-3,-1,-3,-3,-2,-5,-6
85948596451,8,-1,-2,-2,0,1,1,8
85948596451,2,-2,-3,1,-1,1,-4,-4
85948609978,-1,-5,-1,1,-2,-1,-1,4
85948609978,-2,-3,-2,4,-3,-2,-1,-7
85948611395,-2,-1,0,3,0,1,-1,8
85948611395,-4,3,-1,-7,-2,-3,-1,-4
85948632373,3,-11,-3,0,0,1,0,9
85948632373,-7,-2,1,-1,-1,-1,-1,-19
85948633887,-6,1,-3,-5,-1,-2,-1,4
85948633887,-4,1,-2,4,-2,-2,-3,5
85948646068,-4,-1,0,2,0,-2,-3,-9
85948646068,0,-3,-1,2,1,-1,0,-2
85948654847,-21,-4,-1,-9,-1,-2,-2,-24
85948654847,-5,-6,-1,-3,-1,-1,1,10
85948669770,5,-1,1,2,-1,0,1,2
85948669770,0,-4,-2,2,1,0,-1,-1
85948671351,2,-1,-4,1,-2,-1,-3,9
85948671351,-4,-2,0,9,-1,0,-2,-7
85948692427,-7,1,-2,-3,-2,-3,0,-4
85948692427,5,-3,0,-3,-2,0,1,11
85948693875,-2,-4,-2,4,0,-1,-2,1
85948693875,0,-1,-1,-6,-2,-2,-2,-3
85948706203,-9,-1,-2,-1,1,-2,-1,4
85948706203,2,3,0,0,-1,-1,-1,-6
85948714875,1,-2,1,-3,-2,-1,-1,32
85948714875,-3,-2,-2,15,2,1,0,-12
85948729749,4,1,-1,-20,-5,-1,-1,1
85948729749,-5,-4,-2,-7,-1,-1,0,-2
85948731269,2,-1,-1,0,-2,-2,-2,5
85948731269,-16,2,2,8,2,-1,-3,-12
85948752186,0,-2,-2,3,1,0,-1,4
85948752186,-3,-3,-2,-4,-1,-3,-2,2
85948753814,3,2,-1,9,0,1,-1,-10
85948753814,2,-1,-4,-11,-1,-2,-2,-2
85948765811,1,-1,-2,4,-1,-1,-1,0
85948765811,-9,-1,0,-3,-2,-2,-1,3
85948774832,3,0,-1,1,-1,-2,0,2
85948774832,1,-5,-2,-10,-3,0,-4,-30
85948797203,-1,0,-2,2,0,-1,-4,-1
85948797203,23,5,-1,-1,-2,0,0,-7
85948798770,-8,-10,0,-2,0,0,-1,0
85948798770,2,1,-2,-6,-2,0,-1,10
85948819742,2,0,1,0,-1,-2,-1,1
85948819742,-8,-3,-2,-4,-1,-1,-2,-13
85948821330,4,2,-2,1,1,-1,0,2
85948821330,2,-10,-1,-6,0,-2,-3,5
85948825899,-5,-3,0,-1,0,-3,-2,-4
85948825899,-2,3,-1,2,0,-1,-1,4
85948834885,-1,-6,1,1,-2,-1,-2,-7
85948834885,-10,5,0,-5,-1,-1,-1,11
85948849727,3,2,-1,11,2,1,0,-10
85948849727,-5,0,-1,-11,-7,-2,-1,-11
85948851337,3,2,0,1,-1,0,1,-2
85948851337,1,-1,-1,0,-1,-2,1,-1
85948872200,1,-3,-2,-4,-3,0,-1,-2
85948872200,-4,-3,1,6,3,0,-2,3
85948873848,-4,-1,-2,-6,-1,-2,-2,-7
85948873848,6,-3,-2,-4,-2,-2,-1,6
85948885823,-3,2,-1,2,2,-1,-1,3
85948885823,0,-4,-3,0,-1,1,0,-1
85948894920,0,-1,-1,-9,-2,-1,1,2
85948894920,0,-11,-1,1,-1,-1,0,4
85948909754,-3,0,-3,-7,-4,-2,-3,-22
85948909754,-2,-1,-1,4,-1,0,1,7
85948911342,-2,-2,-1,1,0,-2,-2,-6
85948911342,5,3,0,-3,-2,-1,-2,-7
85948932203,-4,-6,-3,1,-2,-2,1,22
85948932203,3,-3,0,-6,0,0,0,-18
85948933759,0,4,-2,3,1,1,-1,2
85948933759,0,-1,-2,-4,-1,-2,-1,2
85948945916,4,-1,0,0,0,-1,1,13
85948945916,-17,1,0,2,-1,-2,-1,2
85948954827,2,-2,0,-2,-2,-3,0,5
85948954827,0,1,-2,0,0,-1,-1,-7
85948969083,-6,-2,-1,-2,-1,-1,-1,-8
85948969083,3,1,-2,1,-3,-3,-2,4
85948975832,-9,5,-2,-1,-4,-1,0,-10
85948975832,11,6,2,2,1,1,1,6
85948992240,-7,-9,-3,-3,-2,-2,-3,-5
85948992240,1,-4,1,-3,1,-1,-2,0
85948993822,-3,0,-1,4,-3,0,-1,0
85948993822,-9,-3,-3,-1,-1,-1,-2,11
85949014735,2,1,0,-4,-2,0,-2,-1
85949014735,3,0,-1,4,-1,0,-1,-2
85949016269,4,-3,-3,-2,0,-1,-1,2
85949016269,-6,0,-3,-4,-2,-1,-1,-26
85949029697,-2,1,-2,-1,0,-1,1,-7
85949029697,-4,-3,-4,-1,-3,-1,-2,7
85949031346,6,-1,1,0,-2,-2,-1,-4
85949031346,-4,-1,-1,-3,-2,-2,-2,3
85949052199,-4,1,3,-2,0,-1,-2,-3
85949052199,4,-4,-2,1,-2,-2,-2,-3
85949053785,1,-1,-1,-2,-1,-1,-2,5
85949053785,1,0,-2,3,-2,-1,0,1
85949074729,3,9,0,1,-2,-1,0,-1
85949074729,-18,-1,-1,-7,0,-3,-1,5
85949076316,-1,0,-2,-4,-2,-1,-2,-4
85949076316,-3,-2,-2,-3,-2,0,-2,-1
85949089766,-3,1,1,0,-1,-1,-2,2
85949089766,2,-3,-1,3,-1,1,-3,-2
85949091338,-2,-1,1,-5,-1,-3,-2,-2
85949091338,-3,0,1,2,-1,-2,1,1
85949112204,12,-3,-2,-1,-1,-1,-1,-1
85949112204,1,-1,-1,-2,-1,-1,0,-4
85949113801,-3,-5,-2,-2,0,-2,0,2
85949113801,2,1,-1,-3,0,-3,-1,-2
85949134762,-5,-5,-3,-1,1,-1,0,-2
85949134762,1,-1,-1,-1,0,0,-1,1
85949136342,1,1,-2,0,-1,0,-2,9
85949136342,-3,-3,-1,-3,0,0,-1,-2
85949149139,-3,-2,-1,0,-2,-1,-1,-1
85949149139,1,0,-1,0,1,-2,-2,-4
85949155930,-3,-2,-3,-2,-1,-2,-2,0
85949155930,0,-2,-1,-3,-5,-2,-2,-1
85949172387,-6,-3,-4,-4,0,-1,0,-7
85949172387,7,10,1,1,-3,-1,1,7
85949173930,3,2,2,-1,-2,0,-1,-7
85949173930,2,-1,-2,-1,-2,0,-2,0
85949194764,-6,-2,0,-1,-1,0,-3,-5
85949194764,-2,-2,-1,-3,-1,-3,-1,-5
85949196292,-2,-2,-2,0,-2,-2,-4,-4
85949196292,-13,-6,-3,-2,-2,-1,-1,-2
85949217475,-9,-16,-6,-4,-3,-4,-4,-33
85949217475,-3,-3,-1,0,0,0,-3,1
85949218897,-7,-15,-2,-1,1,0,0,1
85949218897,24,9,2,-1,-2,-1,3,24
85949232217,-2,0,-1,-2,-1,-1,-1,8
85949232217,0,-3,-1,1,0,-2,0,-2
85949233941,3,-1,-1,2,-3,-1,2,-11
85949233941,-9,2,-2,-2,0,0,-3,1
85949254755,2,0,0,0,1,0,0,5
85949254755,3,-2,-1,-3,-2,-3,-1,1
85949256363,-2,4,-1,-1,-2,0,-1,4
85949256363,-4,-6,-1,-1,1,0,-2,-6
85949269155,15,6,0,1,0,-1,1,4
85949269155,-5,-7,-2,0,1,0,-2,-8
85949276120,-2,1,-3,-2,-2,-2,0,-1
85949276120,-4,-1,-1,-1,-2,-2,-4,-9
85949292289,-6,-2,-1,-1,-1,-1,-1,6
85949292289,3,1,-3,-3,-3,0,-1,5
85949293856,3,8,3,0,1,-2,1,-5
85949293856,-4,-4,-3,0,-4,-3,0,2
85949314843,-2,0,-3,-2,-1,0,-1,-2
85949314843,2,-3,-3,-1,-2,1,0,-2
85949316389,-4,-1,-2,-2,-2,1,-3,6
85949316389,-2,-3,-1,-1,-2,-2,-2,-9
85949329058,-3,3,0,-2,-1,0,0,-2
85949329058,-3,-2,1,-1,0,0,0,-1
85949335875,5,-2,0,1,-1,-2,-2,-2
85949335875,-1,-2,-1,-1,1,-1,-2,-1
85949352292,0,-2,0,-1,-5,-4,-1,1
85949352292,-3,-2,0,-2,-2,-1,-1,0
85949353824,-14,-5,-5,-1,-2,0,-4,-38
85949353824,12,8,1,0,2,1,1,9
85949374772,-3,-10,0,-1,0,0,-2,8
85949374772,-3,0,-1,1,1,-2,-1,-5
85949376310,-1,4,-2,-1,-1,-2,0,11
85949376310,-3,-13,-2,-2,-2,-2,0,-5
85949389034,1,3,-2,1,0,-2,0,-8
85949389034,-4,-1,-1,-2,-1,-2,-1,3
85949395913,2,-1,-2,-1,-1,0,1,2
85949395913,3,0,-2,-1,-1,-1,0,-3
85949412395,-1,-1,0,1,0,0,-1,7
85949412395,-1,-4,-3,2,-1,-2,-2,-4
85949413902,3,-1,0,-2,-1,-2,0,6
85949413902,-2,-1,-2,-1,-2,-2,-1,-5
85949434745,-5,0,-1,-3,-1,-1,-2,0
85949434745,-2,1,0,-1,0,-1,-2,2
85949436302,0,-2,1,-1,-1,0,0,-2
85949436302,-1,-2,-1,0,-1,0,-1,-8
85949449285,-1,2,-2,0,-2,-1,0,-3
85949449285,-3,-13,-2,-2,-1,-1,-1,2
85949456009,-1,-2,0,-2,0,-1,-1,6
85949456009,-3,-3,-2,-3,-2,-1,-1,-1
85949472433,2,2,-1,0,0,-1,0,4
85949472433,3,1,-1,-2,1,-2,-2,-5
85949473847,-2,-3,-2,-2,0,-1,-1,-2
85949473847,-2,-1,-1,-2,-2,0,0,0
85949494739,-4,-4,-2,-4,-1,-2,-2,-3
85949494739,0,4,-1,-2,-2,-1,-1,0
85949496457,-8,-5,-1,-1,-3,-2,-3,-5
85949496457,18,7,1,-1,0,-1,0,12
85949508575,4,-2,-2,-1,-1,0,0,-3
85949508575,-1,6,-1,0,1,2,-1,-11
85949518107,1,5,0,-1,-2,0,0,2
85949518107,-7,-10,-4,0,-2,-1,-1,0
85949531665,-2,2,0,-2,-3,0,-1,-6
85949531665,5,0,0,0,-2,-3,0,9
85949532331,0,1,0,0,-1,0,-1,5
85949532331,-7,2,0,-1,0,-2,-2,-5
85949554242,-3,-2,-1,0,1,-2,-2,-5
85949554242,-6,-2,-3,-2,-3,-2,0,-3
85949554849,-1,-4,-1,-1,0,-1,-2,-2
85949554849,-2,-2,-1,-2,-2,-1,-1,1
85949577442,-3,-2,-1,-1,-2,-2,-2,0
85949577442,-1,-1,1,-1,-2,-1,-1,-1
85949578044,3,-3,-4,-1,-2,-1,-1,1
85949578044,-3,0,0,-3,0,-2,-2,-5
85949591780,0,-1,-3,-2,-1,0,-1,4
85949591780,-6,-2,-1,0,-1,0,0,-35
85949592332,6,0,-1,0,-1,1,-1,-2
85949592332,0,-2,-1,0,-1,0,-1,6
85949614292,-4,-15,-2,-2,0,-2,-2,-2
85949614292,0,6,1,0,0,-2,0,15
85949614866,8,0,-1,-1,-2,-3,-1,-5
85949614866,-6,-2,-2,0,0,1,0,-9
85949637303,5,3,-1,-1,0,-1,-2,1
85949637303,4,-4,-2,0,-2,-1,-1,6
85949638069,-8,-1,0,-3,-2,-2,0,1
85949638069,-2,3,0,0,-1,-2,-1,4
85949651547,-1,0,-2,-2,0,-1,0,9
85949651547,-2,-1,-2,-3,-1,0,-1,-17
85949652362,-5,-1,-3,0,0,-1,0,1
85949652362,-12,-19,-4,-3,-4,-1,-3,-11
85949674205,3,3,2,0,-3,-2,1,10
85949674205,0,-2,-1,-2,-2,-1,0,11
85949674831,0,-2,1,-1,1,-2,-1,-3
85949674831,-3,1,-1,-1,2,0,-1,-9
85949697219,-4,-1,0,0,-3,0,-3,-5
85949697219,-2,-1,-1,0,0,-1,-1,4
85949698002,0,0,0,-2,1,0,-3,-2
85949698002,0,3,-1,-1,-1,-1,-2,5
85949713873,-1,2,-2,-1,0,-1,-1,-7
85949713873,-1,1,0,-3,-2,-1,-1,3
85949713898,-2,-4,-3,-2,-2,-1,0,0
85949713898,2,2,0,-2,-2,-2,-2,-3
85949734046,0,0,-1,0,-2,-2,-2,-2
85949734046,-3,-6,-3,0,-1,-1,-1,-2
85949734803,7,8,0,-1,-2,0,-1,13
85949734803,9,8,2,3,2,2,3,-12
85949757274,-2,2,0,-3,0,0,-1,1
85949757274,-2,0,-2,-1,-1,-1,-1,3
85949758005,1,-3,-2,-2,-1,-2,1,2
85949758005,4,8,-1,-2,-2,0,1,11
85949771726,-2,-3,-1,-1,-1,-1,-1,-7
85949771726,1,1,1,-2,-3,1,-3,-5
85949772321,-7,-3,-3,-1,0,-3,0,-6
85949772321,-4,-1,-2,1,-2,-2,-1,-6
85949794114,-2,-2,0,-2,0,-1,1,-3
85949794114,-2,-5,-2,-1,0,-1,-1,2
85949794835,-2,-1,-1,-1,0,-1,-2,-6
85949794835,-3,-3,0,-3,-2,-3,-1,2
85949824855,4,1,-1,0,-2,-1,-2,5
85949824855,-1,-3,-2,0,-1,0,-1,0
85949825513,-10,-2,-1,-3,-4,-1,-4,-10
85949825513,-6,-16,-4,-1,-1,-1,-2,6
85949831613,-4,2,1,1,0,0,-1,-6
85949831613,-1,3,0,-1,-2,-2,-2,3
85949832368,-6,-5,-2,-1,0,0,-1,-15
85949832368,1,-1,0,-1,0,-2,0,4
85949854026,-13,2,-1,-2,-1,-1,-1,-1
85949854026,-3,-2,-1,-1,1,-1,-4,-3
85949854838,1,2,0,0,-2,-2,-1,5
85949854838,1,2,-1,-1,0,-1,-1,1
