timestamp,emg1,emg2,emg3,emg4,emg5,emg6,emg7,emg8
59658258137,-6,-22,-2,-2,-2,-3,-1,-1
59658258137,0,6,-1,0,0,-1,0,-7
59658273035,-4,-12,-3,-3,-1,-1,1,2
59658273035,-3,-1,1,-1,-2,0,-1,-4
59658274610,0,3,-2,-1,-1,1,-1,-3
59658274610,5,2,1,-1,-2,-1,-2,4
59658295454,-6,0,-5,-2,-1,-3,0,-3
59658295454,1,-5,-1,0,0,-2,-1,-1
59658297033,-1,-2,-2,-2,-1,0,-1,1
59658297033,-3,-1,-1,-1,1,-2,-1,-4
59658309803,-1,3,0,0,0,0,0,8
59658309803,-1,-4,-5,-2,0,-1,-1,-8
59658316695,-11,5,2,0,-2,-1,0,-3
59658316695,-1,1,-3,-2,-3,0,0,4
59658332976,-2,2,0,2,-1,-1,0,-3
59658332976,-2,-5,-2,-2,-2,-1,-3,4
59658334606,2,-4,-1,2,-1,-1,0,1
59658334606,4,8,-1,-2,0,-1,-1,-2
59658355462,-1,3,0,-1,-1,0,-2,-1
59658355462,-2,-3,-1,0,-1,-2,-1,-1
59658356992,15,4,-2,-2,-1,-3,-1,-1
59658356992,-1,-2,-2,-1,0,-1,-1,-3
59658369858,8,3,-1,-1,0,-1,-3,-2
59658369858,-5,-2,-1,0,0,-2,0,-5
59658376615,-3,0,-2,0,-3,-2,-2,0
59658376615,-3,-5,-2,-1,-3,-2,-2,-1
59658393175,1,11,-1,-2,0,-2,-3,-3
59658393175,-8,-1,-3,1,1,0,-2,-12
59658394607,-1,-3,-3,-2,-2,-2,-1,6
59658394607,-2,-2,-2,-3,-2,0,-2,-1
59658423193,-1,1,-1,0,-2,-2,-1,-2
59658423193,15,13,0,-2,-3,-2,-1,3
59658424636,-1,-7,-3,-2,0,-1,1,0
59658424636,10,10,3,2,-1,-1,0,2
59658429872,-3,-4,-1,-1,0,-2,0,-4
59658429872,3,1,-2,-3,-1,-1,-3,6
59658436732,8,-1,0,-2,-1,-1,-3,-1
59658436732,-10,-10,-2,1,0,-2,-1,0
59658453035,3,-1,-2,0,1,0,-1,-2
59658453035,-2,-8,0,2,-1,0,0,-2
59658454592,-8,1,-2,-1,-1,1,0,-3
59658454592,-9,-2,-2,-1,1,-3,-1,-8
59658475658,-1,-3,1,0,-2,-2,-1,1
59658475658,-7,-3,-3,-1,-2,-3,-3,-2
59658477183,-3,0,0,-1,-1,0,-1,-2
59658477183,7,-1,-2,0,-1,-1,0,15
59658490058,-10,-3,1,-4,-3,0,-1,-24
59658490058,3,7,2,0,-2,-2,0,9
59658496624,-6,-6,1,-2,-2,1,-1,-2
59658496624,-2,-1,-3,-1,0,-2,-1,-1
59658513027,0,0,-2,0,-1,-2,-2,5
59658513027,2,-2,-2,-1,-2,-2,-3,-2
59658514611,-2,2,-3,-2,0,0,-3,-8
59658514611,-6,-7,0,-5,-1,-2,-1,1
59658535467,1,-3,-2,0,-1,0,-1,-2
59658535467,-1,-5,0,1,-1,2,0,-3
59658537103,2,1,-1,1,-1,-3,0,5
59658537103,-4,1,1,-1,-3,-1,-3,-7
59658549147,4,10,-2,-2,-1,-3,0,4
59658549147,-3,-12,-1,-1,0,-1,0,-1
59658558160,1,1,0,-3,-1,-1,-2,0
59658558160,-7,-19,-4,1,0,0,-2,-3
59658572966,7,4,-2,-1,-4,-4,-3,16
59658572966,-18,1,-1,-1,-2,1,-2,-13
59658574636,-5,-6,-4,-1,-4,0,-2,4
59658574636,-1,0,-1,-2,-2,1,2,0
59658595497,6,-7,-3,-3,0,0,0,-7
59658595497,0,-5,-3,-2,2,-1,-2,0
59658597035,0,2,1,0,0,-1,-1,-2
59658597035,2,3,-1,0,0,-1,-1,1
59658609205,-9,-9,-3,0,-2,2,-1,-1
59658609205,10,4,0,-3,-3,-1,-1,-3
59658618142,2,4,2,0,-1,-2,-1,-9
59658618142,0,0,-3,-1,0,0,-1,0
59658632927,-6,-4,1,-1,0,-2,-1,-2
59658632927,-6,-4,-1,1,1,-1,0,-2
59658634673,1,-1,-3,-2,-2,-3,-3,3
59658634673,4,11,-2,1,1,0,-2,-3
59658655566,-6,-7,1,-2,-1,-2,-2,-2
59658655566,0,0,1,-2,-1,0,0,6
59658657125,-3,-2,-4,0,-3,-1,-1,-3
59658657125,6,4,-2,0,-2,-2,0,9
59658669384,-9,-4,-2,-1,0,0,-1,-5
59658669384,3,3,-1,0,-1,-1,-2,-6
59658678168,-6,-4,2,-1,2,-1,-3,-3
59658678168,-2,-7,-4,-1,-3,-1,-1,0
59658693213,3,1,0,0,0,0,1,3
59658693213,-4,-7,-4,-1,-2,-3,-1,2
59658694657,9,19,1,2,1,0,-2,1
59658694657,-10,-22,0,-2,-1,0,-2,-9
59658715762,1,5,-2,0,-2,-1,1,-1
59658715762,-3,2,0,-2,-1,-2,-2,-3
59658717181,13,2,-1,-1,1,-2,1,5
59658717181,-1,5,0,-3,0,-4,1,-5
59658738203,-2,-6,-3,0,-2,-3,1,-2
59658738203,-7,-7,-2,1,0,-2,-1,1
59658739645,0,-6,2,-2,-1,-1,0,2
59658739645,6,2,-1,-2,-2,-1,-1,11
59658753194,-4,-2,2,-1,0,1,-2,-5
59658753194,3,4,-4,-4,-2,0,-2,0
59658754618,-4,-10,-7,-4,-2,-2,-1,-6
59658754618,-1,1,-1,0,-1,-2,-1,-1
59658775761,2,11,1,1,0,-2,-1,4
59658775761,-4,-5,1,-2,-3,0,-1,-3
59658777051,-3,3,-1,0,-2,-2,-1,2
59658777051,-3,-15,-2,1,0,0,-3,-3
59658789411,-5,-5,-4,-1,-2,-1,-2,0
59658789411,3,-1,1,0,-1,-1,-2,-2
59658798197,-4,4,-2,1,-2,-1,-1,-3
59658798197,0,3,-1,-2,-1,-1,0,-6
59658813096,-1,-5,-1,0,-1,-1,-2,0
59658813096,-8,-1,0,-2,0,-1,1,-2
59658814643,-11,-4,-1,-2,-2,1,0,-19
59658814643,-1,1,0,-3,-2,-1,-2,-1
59658835722,2,-5,-1,-1,-2,0,-1,3
59658835722,3,1,-1,1,0,-2,-2,3
59658837161,2,8,1,-1,-1,0,-1,5
59658837161,-7,0,2,1,1,-2,-2,-3
59658849287,-2,3,0,-1,0,-1,-1,-11
59658849287,1,-1,-1,-1,-3,-2,-2,4
59658865651,-5,-2,-1,1,2,-1,0,0
59658865651,-3,-1,-3,-1,-1,-1,1,0
59658873234,3,-1,-1,-1,-1,0,-2,3
59658873234,-4,-1,1,0,0,0,-2,-2
59658874670,0,-10,-3,-1,-1,-1,-2,3
59658874670,-6,1,1,0,-3,-1,1,-4
59658895751,1,-2,0,-1,-1,-1,-1,-1
59658895751,0,-1,-3,-2,-3,-1,-1,-2
59658897197,-3,-5,0,-2,-3,-1,-1,-1
59658897197,18,1,-2,-1,-1,-2,-1,18
59658909365,-15,1,3,-3,0,1,1,-23
59658909365,1,-2,-3,-1,0,-2,-3,3
59658918214,1,-2,-3,-2,-1,-2,0,8
59658918214,1,7,0,-1,-1,-1,-1,-4
59658940749,8,1,-5,-2,-2,-3,-3,4
59658940749,0,5,3,-3,1,0,-1,-6
59658942086,-5,0,0,1,-1,-1,-3,-5
59658942086,-4,-1,0,0,-1,-3,-1,-12
59658955667,-8,-3,-4,-4,-1,-1,-2,-5
59658955667,-4,-3,-3,-1,-2,0,0,-2
59658957080,-1,-4,-2,-3,-4,-1,-2,-2
59658957080,1,4,-1,-1,-2,1,-1,-3
59658978108,1,2,-3,0,-1,-1,0,4
59658978108,-5,-23,-2,0,-3,-1,0,2
59658979653,-4,-3,-2,-2,0,0,0,-2
59658979653,15,0,0,0,0,-1,-1,19
59658993105,-8,0,-1,0,0,0,1,-14
59658993105,-4,1,0,-1,0,-1,0,1
59658994662,4,0,1,-1,-1,-1,-1,4
59658994662,-5,-7,-4,-2,0,-1,-1,-6
59659015523,3,-1,0,0,-1,-2,-1,9
59659015523,3,7,0,0,-1,-1,-4,-3
59659017127,-3,-4,0,-7,-4,-1,0,-3
59659017127,0,1,-2,-2,-1,-2,-1,-4
59659037971,-1,-2,2,1,-1,0,-1,0
59659037971,4,4,0,0,-2,1,-1,-13
59659039601,-5,-18,-3,1,0,1,0,1
59659039601,-7,-1,-1,-1,-1,-1,-2,-6
59659052967,0,2,1,0,-2,-2,0,10
59659052967,0,2,-1,-4,-1,-1,-1,3
59659054597,1,2,-1,3,-1,-1,-2,-1
59659054597,-4,-2,-1,-2,-2,0,0,-9
59659083183,9,-2,0,3,-1,-3,-1,11
59659083183,-10,0,-4,0,-1,0,-1,-15
59659084665,1,2,-2,0,0,1,-1,0
59659084665,-20,-8,-1,-3,-2,-1,-1,-12
59659097960,11,11,1,-1,1,-1,-1,6
59659097960,0,-3,-4,-2,-1,-3,-2,7
59659099595,-3,0,0,-1,0,-3,0,-3
59659099595,4,2,-1,1,0,-1,-3,-1
59659112425,-2,-19,-4,-1,0,-1,-2,-3
59659112425,-3,0,0,-1,-3,0,1,0
59659119330,2,4,0,2,0,1,-2,-1
59659119330,-3,-3,-6,-2,-3,-1,-1,4
59659142976,-5,0,1,-3,-2,0,-2,-5
59659142976,-2,-1,0,1,0,-1,-2,3
59659144677,-1,2,1,-2,-4,-1,0,0
59659144677,-3,1,0,0,-1,-1,-1,6
59659158326,-5,-5,-4,-3,-2,-1,-1,-8
59659158326,4,4,0,-1,0,-1,-1,4
59659159720,-1,0,0,0,-1,-2,-1,-3
59659159720,-1,0,1,1,1,-1,-2,-2
59659172363,3,-3,-5,-5,-2,-4,-3,15
59659172363,-2,-4,2,1,-1,-1,0,-14
59659179087,1,-2,-3,-1,0,-2,0,2
59659179087,3,2,2,-4,-3,0,0,-1
59659195718,-2,-1,-1,0,0,0,0,-2
59659195718,1,9,0,-1,-2,-2,-1,2
59659197097,-4,-15,-2,-2,1,0,-1,-2
59659197097,-3,0,-3,-1,0,0,1,-8
59659218228,-5,0,0,-2,-2,-1,0,-3
59659218228,10,3,-1,-3,-1,0,0,7
59659219714,-10,3,-1,0,0,-2,0,-10
59659219714,-4,-5,-3,-7,-2,-2,-3,1
59659240447,-1,-2,-2,-1,-1,0,0,-1
59659240447,-5,-8,-1,0,0,0,0,9
59659242088,3,7,2,-1,-2,0,-2,-6
59659242088,1,-1,-2,1,0,-1,-1,-1
59659255589,1,9,2,1,0,-2,-1,-1
59659255589,-7,-5,-3,-3,0,-2,0,-1
59659257112,1,0,-1,-2,0,-1,0,2
59659257112,3,4,-2,0,1,-1,-1,-3
59659278220,-1,-1,-1,-1,1,1,1,-12
59659278220,-7,-24,-3,-1,-3,1,-1,0
59659279666,2,-1,0,-1,-2,-3,0,2
59659279666,-5,0,-1,-3,-3,0,-1,-2
59659292458,0,-3,0,-1,-2,-2,-2,1
59659292458,1,4,-1,-3,-1,-1,-2,-4
59659299084,-1,-1,0,-1,0,0,-3,-1
59659299084,-4,-6,-2,0,0,-1,0,-1
59659315733,-3,-1,-1,1,-1,-1,-1,-2
59659315733,1,3,0,1,-1,0,0,-1
59659317117,0,0,-4,-2,-2,-3,-2,0
59659317117,3,3,-2,-3,-4,-3,-1,-1
59659345515,-2,-3,-1,1,-1,1,-2,-1
59659345515,-1,0,-1,1,-1,-2,-3,-2
59659347034,-1,-1,-2,-2,-2,-1,-2,1
59659347034,1,-1,3,2,0,0,-1,-2
59659352364,-1,8,-1,-1,0,-2,-1,-2
59659352364,-6,-12,-1,1,0,-1,0,0
59659359069,-2,1,-6,0,-1,-3,-2,0
59659359069,2,0,1,0,0,-1,-1,-2
59659383026,-4,1,-2,-3,-2,-1,-1,0
59659383026,1,4,-3,-3,-2,-1,0,0
59659384597,-1,-3,-1,0,-2,0,0,0
59659384597,-2,-3,-2,-1,-1,-1,-1,-1
59659398071,-3,-2,-1,0,-1,-1,0,0
59659398071,-2,2,-4,-6,-3,-3,-1,-2
59659399847,-2,-2,1,-2,-1,-1,-1,0
59659399847,3,0,-1,-1,-3,-1,-2,2
59659412636,-16,-8,-2,-1,-3,-1,-2,-11
59659412636,4,6,0,-3,0,1,0,2
59659419135,3,1,0,0,1,-1,1,-1
59659419135,2,0,0,0,0,0,0,0
59659443194,-4,-16,-2,1,0,0,1,2
59659443194,-1,1,1,4,1,-1,0,-2
59659444643,-3,-1,0,-16,1,-1,-3,1
59659444643,-4,-4,-3,3,0,0,-1,-1
59659457982,5,0,-5,-1,-3,-2,-1,0
59659457982,-2,1,3,22,2,-1,-1,-3
59659459545,-1,0,-1,-9,-4,-2,1,3
59659459545,-2,0,2,6,1,-1,-1,-3
59659471572,3,2,2,6,3,1,-2,1
59659471572,2,-2,-3,4,-5,0,-5,-1
59659480678,-4,-2,-7,-3,0,-2,-4,-2
59659480678,-5,-1,1,-2,1,0,0,1
59659495950,8,2,-1,-2,-2,-3,0,1
59659495950,0,12,4,-12,0,0,1,-3
59659501637,-2,-5,-1,15,-1,1,1,-2
59659501637,-3,-3,-1,-2,-3,-1,-3,0
59659518001,3,2,-3,-1,-2,-4,-1,-1
59659518001,-2,1,-3,-12,0,7,-2,0
59659519590,-2,0,-3,2,-1,-10,-3,-3
59659519590,1,-1,0,6,1,0,3,0
59659531617,-2,0,0,-9,-6,0,-2,-1
59659531617,1,-4,0,-18,1,1,3,2
59659547994,-5,-4,-2,-6,-4,-3,-1,-8
59659547994,-2,-2,0,0,0,-2,-1,-5
59659555429,-4,-2,-2,-15,0,-10,-1,-3
59659555429,-1,-2,-1,13,-3,3,0,6
59659557020,3,-1,0,4,0,-2,-2,6
59659557020,-4,1,-1,-6,6,3,-3,-1
59659578004,8,2,0,14,1,7,2,3
59659578004,-8,-21,-4,-4,0,2,1,-4
59659579597,0,2,-1,4,-3,-1,-2,2
59659579597,0,-2,-1,-2,-8,-17,-5,-2
59659591634,-1,1,0,-2,2,3,-2,3
59659591634,-2,-1,-2,7,1,-2,2,-2
59659600638,1,4,4,5,4,9,2,-2
59659600638,-1,-5,-4,-16,-2,-2,-2,-3
59659615603,-8,1,-3,3,-3,-4,-4,3
59659615603,-4,5,-7,0,-1,-15,-6,-22
59659616990,-9,-4,0,0,-1,6,0,-2
59659616990,-2,0,-2,0,0,3,4,4
59659645499,-2,7,1,-4,0,-3,0,-6
59659645499,20,-2,-1,-8,-4,-5,-4,17
59659647072,-17,-1,-6,4,1,-3,-5,-9
59659647072,-6,-5,-1,0,-2,7,1,-2
59659651550,1,-7,-2,-6,-1,8,2,1
59659651550,4,4,1,2,0,-9,-2,11
59659660674,2,-2,-1,0,-4,-6,-3,-3
59659660674,1,-2,-1,14,-4,2,4,0
59659675563,-2,-4,-1,-17,0,2,-6,-4
59659675563,2,-2,-1,17,4,11,1,14
59659677107,5,7,-1,0,-4,-26,-3,-7
59659677107,-4,-9,-2,-5,-3,-5,-4,1
59659698028,-1,1,4,-16,-2,5,4,-1
59659698028,-7,-1,-4,-17,-8,2,0,-4
59659699600,6,2,-2,9,1,9,0,1
59659699600,7,5,1,13,6,0,3,5
59659711915,-7,-7,-7,-27,-14,0,0,-1
59659711915,5,-1,1,8,-1,-5,-1,-9
59659720635,1,-5,-3,-19,-4,-3,0,-1
59659720635,-1,0,-7,3,0,-2,-6,3
59659735018,3,-8,0,14,4,-4,-1,-3
59659735018,0,17,5,-6,0,4,0,-5
59659741640,-6,-10,1,16,-1,13,1,-2
59659741640,-1,1,0,-16,-6,-13,-5,-6
59659757984,1,-1,-3,13,-4,-19,-2,10
59659757984,-10,0,-2,-17,1,-8,-8,-32
59659759575,1,2,0,15,6,18,7,8
59659759575,-4,1,4,4,2,20,3,-8
59659771846,5,-2,-2,-10,-2,-9,2,15
59659771846,-2,-7,-2,2,-9,-8,-7,-8
59659780675,-3,0,-2,-20,1,-1,-3,11
59659780675,1,2,2,-5,-2,-7,3,-16
59659794800,-4,-1,-3,7,2,-2,-2,1
59659794800,-1,-4,-3,-2,-1,8,-3,-7
59659801677,4,14,-1,-24,-6,2,2,3
59659801677,-3,-4,-2,5,-3,-10,-6,6
59659818279,-3,0,-6,7,0,2,3,-5
59659818279,-2,-2,-1,4,8,-10,3,8
59659819626,0,-1,1,-4,-4,-7,-9,-1
59659819626,11,1,2,1,2,10,12,25
59659831579,-6,3,2,4,2,9,-10,-35
59659831579,-9,-6,-1,-28,-13,-24,-1,-6
59659846781,1,-4,-2,1,5,11,-4,-2
59659846781,-1,-2,-1,-4,0,-2,3,25
59659855083,3,-3,0,-1,6,19,-5,-2
59659855083,6,2,-4,9,-9,-3,-2,-4
59659861894,-35,1,6,10,-1,-45,2,-10
59659861894,-8,-14,1,-14,-5,8,2,-20
59659885500,-1,2,1,7,1,5,6,8
59659885500,-9,-3,-1,8,4,8,-31,-22
59659887112,11,-6,-4,-17,-5,1,25,34
59659887112,-1,6,-5,7,-3,1,-15,-20
59659891613,-3,1,2,4,1,-8,10,19
59659891613,-9,-6,-8,-6,-2,3,-5,4
59659900751,16,-1,4,2,-3,4,-3,0
59659900751,-9,-4,-8,-12,-5,6,5,-6
59659914841,15,1,3,-3,-8,-18,3,31
59659914841,-1,1,-1,-3,8,23,7,-10
59659921577,1,2,1,20,10,-18,-4,2
59659921577,-6,-2,-5,-30,-18,-15,-6,-9
59659937981,-2,2,-8,-2,0,7,-16,-21
59659937981,0,1,7,19,4,12,23,32
59659939602,3,15,-1,3,2,-4,-23,-32
59659939602,0,-5,1,2,0,-5,10,-5
59659960408,1,5,-1,-4,-4,-11,-7,-7
59659960408,3,-1,-2,6,3,-5,8,15
59659962088,-4,-5,-5,0,3,36,2,-13
59659962088,6,8,2,16,1,-12,-16,-28
59659974768,-2,-4,1,-17,-3,0,6,15
59659974768,-12,0,2,1,-1,-22,-8,-10
59659981635,-4,-9,-2,18,-2,15,-8,-10
59659981635,2,2,-2,-18,0,8,10,22
59659998098,-15,-8,-1,18,-8,-31,-5,-1
59659998098,2,-3,-5,-58,-1,15,-4,-4
59659999667,5,-2,2,1,-1,-16,12,14
59659999667,-5,0,4,2,1,-1,-9,-11
59660020565,3,9,-4,3,1,10,-3,-7
59660020565,-5,2,3,2,1,1,-3,11
59660022172,-1,-3,1,-6,-3,4,7,0
59660022172,1,-1,-4,5,2,-5,-5,2
59660035068,-5,-2,-2,-10,-2,3,-3,-12
59660035068,3,0,1,6,-4,-9,-5,-3
59660041824,3,-5,-2,-1,0,4,-6,-3
59660041824,0,4,2,1,6,0,8,15
59660058261,-1,-3,0,29,-4,7,7,-8
59660058261,1,-1,-4,1,8,5,8,2
59660059634,0,-6,-2,-30,-25,-35,-13,-1
59660059634,6,1,-1,22,10,5,10,4
59660080613,-9,-13,-1,-16,-3,26,3,-15
59660080613,5,1,2,-3,-2,-11,-15,-9
59660082175,0,0,-4,-8,-3,-17,4,9
59660082175,-7,-4,-1,-7,-5,-3,-5,-2
59660094209,4,1,4,19,8,2,-6,-5
59660094209,-5,-3,-5,-9,-9,14,14,-6
59660103169,3,-6,-9,3,-4,-18,-5,13
59660103169,1,4,-2,-3,-5,-6,-5,-13
59660118124,-9,-3,-5,-12,6,-3,-5,2
59660118124,1,-2,4,7,12,15,10,0
59660119696,3,4,0,0,-6,10,1,-14
59660119696,-4,-2,-7,-23,0,-10,-5,-11
59660140732,2,-4,-2,-10,-11,-26,-8,0
59660140732,-2,-2,-5,2,-2,-3,0,12
59660142136,1,-2,6,15,13,12,10,-10
59660142136,-6,-9,-5,-8,-8,12,8,18
59660154198,-1,1,2,4,3,-14,-2,0
59660154198,-2,2,-3,9,-8,-9,-15,-18
59660163172,-2,-3,0,-14,2,0,-7,5
59660163172,1,2,-1,4,2,0,17,11
59660178231,-1,-3,0,2,5,12,0,-3
59660178231,-2,-6,-4,12,-17,-20,-4,4
59660179664,-3,4,1,-2,-1,12,-4,1
59660179664,0,0,0,-14,3,12,-9,-6
59660200432,-2,-1,-1,-3,1,-10,7,-6
59660200432,5,1,-1,-5,8,29,17,14
59660202030,-4,-4,-3,-5,-4,-15,10,6
59660202030,3,3,12,16,3,-16,-15,-2
59660214334,-3,-1,-7,0,-3,6,-2,1
59660214334,-3,-15,-3,5,-1,-2,8,11
59660223139,-4,0,0,-14,4,16,0,-15
59660223139,0,-2,-8,23,1,-8,7,22
59660238136,-3,3,3,2,-6,-6,-8,8
59660238136,1,1,2,4,1,-7,-13,-11
59660239615,3,1,1,34,4,9,13,17
59660239615,-8,-7,-4,-30,-3,2,-11,-24
59660260698,0,-5,1,16,-7,0,3,7
59660260698,1,-1,-6,-44,-4,-22,-5,-7
59660262194,-2,-1,-2,38,6,13,2,-7
59660262194,0,0,-6,11,-8,-4,-15,-7
59660274222,-3,-2,-5,-17,-5,-8,9,7
59660274222,2,15,9,-6,-3,0,-1,-5
59660283180,-6,-6,-3,24,0,-1,-8,-14
59660283180,3,2,-6,-11,-4,-9,-7,4
59660298205,2,-1,-1,4,1,12,19,-1
59660298205,-1,2,0,-13,-4,-10,-12,2
59660299586,-2,-3,-4,-14,-3,-4,-8,-23
59660299586,2,-1,1,34,14,2,12,14
59660320758,3,2,7,-33,-3,12,2,-10
59660320758,-4,-5,-6,36,3,-4,-10,-7
59660322139,0,-2,0,-32,3,15,12,24
59660322139,0,-3,3,-5,-7,-11,-6,-4
59660334231,1,1,-2,12,2,-8,-12,-4
59660334231,-2,-4,-1,22,-2,-4,1,9
59660343201,-1,1,1,-7,-3,10,-7,5
59660343201,-1,1,4,3,4,0,-1,2
59660358229,-2,-1,2,5,-2,-1,-2,-3
59660358229,0,0,5,-21,-10,5,-14,-10
59660359624,-1,-3,-2,-15,-3,-27,-2,7
59660359624,-2,3,-1,-39,0,12,2,0
59660380708,3,-3,-3,3,-5,-9,-2,-7
59660380708,-5,-4,-9,1,2,18,-2,-8
59660382141,6,1,0,-6,0,-7,27,-2
59660382141,-8,5,-2,-12,-8,-3,-9,-10
59660394367,2,-6,-5,-1,0,-9,-14,5
59660394367,-17,-22,-3,21,7,5,20,5
59660403185,1,8,1,-17,-2,6,-21,-19
59660403185,-5,3,3,20,-12,-16,-2,-8
59660418236,2,3,-5,-16,1,4,-4,-9
59660418236,5,15,4,-7,9,-8,-1,11
59660419626,9,-2,-7,10,0,12,2,22
59660419626,-14,-6,2,8,-2,7,-6,-10
59660440585,3,3,1,-27,-7,-31,-1,-1
59660440585,-16,-2,7,11,6,8,-9,-10
59660442178,-3,-1,-5,-9,-8,-9,-6,-4
59660442178,-15,-7,-4,-9,3,15,-5,-1
59660454269,9,13,3,25,7,25,-2,3
59660454269,-1,-3,-2,-4,-9,-19,1,-12
59660479470,1,0,-3,-32,-6,-17,-10,-1
59660479470,0,-4,-4,26,1,25,0,-4
59660480392,-7,-3,-3,-10,-1,-13,-20,-16
59660480392,2,0,5,-1,-4,11,18,-6
59660484109,16,12,3,3,-7,-11,-33,-33
59660484109,-5,-17,0,-7,-4,-18,1,2
59660500487,-21,-4,-12,-2,7,23,-13,32
59660500487,0,2,1,-8,-6,-24,0,-10
59660502079,-2,-4,-1,11,3,13,-1,1
59660502079,14,6,-1,-3,2,2,-1,0
59660514186,7,-3,-3,-2,-4,0,22,-17
59660514186,-15,-5,-4,-3,-4,-2,-11,5
59660523133,4,-2,-2,9,-3,-8,13,42
59660523133,-1,0,-1,-10,-7,-3,-28,-29
59660538193,-4,-5,-2,0,4,-5,10,3
59660538193,-17,-1,-4,0,6,-5,-17,-53
59660539612,8,-4,2,-1,-7,-14,15,-36
59660539612,31,11,-8,-7,-11,-3,19,5
59660560480,-8,3,8,8,17,5,-9,-106
59660560480,25,-7,-2,-3,-6,3,11,48
59660562010,-7,-9,-3,-1,11,20,13,24
59660562010,-1,7,3,4,1,17,-15,2
59660574382,-5,-3,1,-6,-20,-37,-20,-5
59660574382,31,3,-7,-11,1,-3,12,49
59660583187,-4,4,-4,7,0,-8,16,-32
59660583187,-14,-9,1,2,8,17,23,55
59660598201,1,-4,-3,0,1,10,-19,31
59660598201,-4,3,1,-1,-3,0,6,-2
59660599649,-5,-4,0,-10,-1,-5,-8,56
59660599649,-7,0,-1,11,-7,-33,-23,-47
59660620695,4,-1,-3,-1,5,10,15,33
59660620695,4,1,-5,3,-7,-1,-3,-12
59660622180,-17,-4,-5,-14,9,12,-8,-20
59660622180,7,-1,-2,-2,1,-9,-6,-2
59660634088,-6,-4,0,-1,-8,2,28,78
59660634088,-3,-11,0,1,-3,1,-2,-12
59660643098,-4,-1,0,5,-4,-14,-41,-28
59660643098,-2,1,-1,-3,6,-2,19,15
59660657318,18,-4,-1,2,3,10,16,10
59660657318,-11,8,-3,-7,-6,11,-19,-8
59660671690,-16,-14,3,-1,-5,-15,7,-25
59660671690,-4,0,2,1,-1,-12,-22,-43
59660680443,1,-2,-11,-2,-1,2,-23,3
59660680443,12,2,3,1,3,2,3,12
59660682131,-2,-1,1,-1,-3,10,4,11
59660682131,-6,1,-3,-3,-1,-2,0,0
59660704393,4,2,7,4,0,-4,-14,-17
59660704393,-15,-2,-2,-3,3,3,1,-14
59660706024,-4,-1,-3,11,-2,-5,-10,4
59660706024,16,-3,1,1,-1,-10,-8,-13
59660718030,-17,13,2,-7,-8,-5,-10,-5
59660718030,-8,-3,1,12,0,4,-6,12
59660719602,-3,4,-3,-5,-3,-17,-8,-31
59660719602,-3,-9,-3,-5,2,13,-4,-54
59660740443,7,3,-2,-5,-1,1,10,48
59660740443,6,3,-2,-4,-1,1,1,-20
59660742052,-4,-6,-3,0,-3,8,-11,-18
59660742052,-7,2,2,-2,1,-1,13,6
59660754153,10,-3,0,-1,1,-10,7,37
59660754153,-12,-6,-3,-3,-2,-4,7,-2
59660763131,5,2,-1,-5,1,11,-1,17
59660763131,14,0,-1,-2,-3,-5,-4,27
59660778050,-21,-7,-2,1,0,7,28,-49
59660778050,11,-1,-2,-3,-4,3,-5,40
59660779658,-12,0,1,-1,-3,-21,6,8
59660779658,-7,7,3,3,8,-10,-22,-22
59660800740,-5,-9,-3,1,3,13,7,0
59660800740,9,5,4,2,2,7,-6,-15
59660802095,-4,-2,-2,-6,-16,-7,-27,-14
59660802095,4,-1,-1,0,15,17,44,53
59660814347,6,-16,0,-3,-8,-8,24,18
59660814347,-15,-9,-4,-2,0,-5,-3,20
59660823306,1,4,4,1,-1,-1,-14,-1
59660823306,3,-4,-7,2,-6,13,10,11
59660838171,-8,-1,-3,-19,-5,-27,-23,-21
59660838171,-2,-1,0,-3,0,6,24,-3
59660839585,8,-1,2,6,2,10,35,22
59660839585,-3,0,3,0,-4,-5,-14,1
59660860756,-3,0,3,6,-3,3,-1,-17
59660860756,-4,7,-3,-3,-4,-12,-11,-8
59660862147,0,-3,0,-2,10,9,-11,-8
59660862147,-3,-9,-11,-9,-10,-4,-5,19
59660883030,-23,8,6,2,3,0,-26,-53
59660883030,3,5,0,-1,-2,-15,-15,-72
59660884625,-3,7,1,2,6,10,37,71
59660884625,-2,-4,1,-5,-6,2,4,-12
59660898191,-18,-8,-6,-2,-10,-19,-29,-37
59660898191,32,2,0,5,8,20,-4,1
59660899598,-35,-2,1,4,3,-9,-18,-85
59660899598,-1,2,-1,0,-1,-6,6,12
59660920548,20,19,2,-2,-2,-3,2,1
59660920548,-19,-6,1,-1,-8,-3,-6,-55
59660922125,13,-2,-8,3,-2,0,4,44
59660922125,4,1,3,-2,4,-15,4,9
59660942956,11,-2,1,7,0,19,5,14
59660942956,-2,1,0,-2,-3,-8,3,-12
59660944543,37,3,-6,-7,-2,8,15,48
59660944543,-22,-3,2,3,-6,4,-3,-14
59660958144,1,-2,-1,-1,7,-3,-7,0
59660958144,-2,-1,2,-1,-8,-23,-5,14
59660959677,2,-8,-2,-2,2,8,-7,-15
59660959677,-5,-2,-9,-7,-3,4,15,23
59660980683,12,-11,2,1,0,7,21,31
59660980683,-12,-3,-1,-2,0,-11,-9,-44
59660982102,8,4,-2,0,0,2,-8,2
59660982102,9,1,-1,1,0,8,5,-13
59661003239,-1,0,0,1,1,-2,-14,8
59661003239,3,-4,-2,-1,-1,-13,12,31
59661004655,-7,-8,0,-2,-8,-1,-16,-13
59661004655,2,0,6,5,6,2,-10,-12
59661017929,-2,-3,-2,-5,-3,-2,-5,-34
59661017929,7,-5,-1,-1,-2,-1,0,50
59661019627,-9,-1,-2,-4,-1,5,0,-22
59661019627,0,2,-2,-3,2,-8,-1,-9
59661040593,-3,-3,-1,2,-4,-8,-1,-18
59661040593,-16,-3,-2,-7,1,22,1,0
59661042116,9,-1,3,1,-5,-21,-13,11
59661042116,-5,-4,-3,-1,-4,2,12,-19
59661062961,2,0,-4,2,2,4,11,49
59661062961,2,1,-4,-4,3,9,1,13
59661064569,2,8,1,1,-3,-2,10,32
59661064569,6,-2,-1,-1,-4,-9,-17,-18
59661085593,-3,-8,-2,1,2,7,-2,-14
59661085593,5,-1,-2,0,-6,-20,-1,11
59661087099,-9,2,-1,2,14,21,5,-16
59661087099,0,-1,-4,1,-7,-9,-4,6
59661100799,0,1,-4,-17,-4,6,3,-8
59661100799,1,3,1,2,0,-8,2,-4
59661102145,-8,-4,-3,-4,-6,-6,-4,-24
59661102145,-1,2,4,7,-2,-5,-4,2
59661122983,-7,-1,-1,-9,0,5,-5,-8
59661122983,-1,0,-1,-14,-3,-1,3,1
59661124563,-3,1,2,-4,-9,-11,2,-8
59661124563,-1,-2,-2,3,6,6,1,6
59661137536,1,2,-2,-12,-2,3,-8,-6
59661137536,-1,-5,-1,8,-1,-19,0,14
59661144268,2,-1,-4,0,3,24,18,3
59661144268,-3,-9,-1,34,-2,-16,-6,1
59661160751,-2,1,-5,-43,-7,-11,1,-6
59661160751,-3,1,1,20,1,13,-3,-1
59661162060,-5,-7,-2,-19,-8,-6,-7,-13
59661162060,1,0,-3,-17,10,16,3,7
59661183069,-2,-2,-8,1,-3,-3,0,-4
59661183069,-3,-2,1,5,-3,-6,3,1
59661184619,0,2,-4,-4,-3,-13,-12,-9
59661184619,0,-1,-2,11,-2,5,-3,-1
59661197503,1,0,6,10,3,-1,5,-4
59661197503,3,-1,-5,-11,-4,-3,-7,-7
59661204362,-13,-1,2,22,-2,-11,-10,-10
59661204362,0,3,0,-3,3,6,7,4
59661220552,0,-2,-1,-13,-2,9,-1,-3
59661220552,-2,-3,0,-11,-3,1,6,4
59661222096,2,-1,0,-3,12,-2,-4,13
59661222096,-1,8,1,6,-10,-11,-2,-4
59661243075,0,-1,0,12,0,-10,-8,-4
59661243075,-1,0,-2,-11,-1,9,0,2
59661244612,7,2,1,10,-4,2,9,-5
59661244612,-11,-1,-2,-28,-12,-13,-3,-1
59661256597,-3,-4,0,46,6,2,-1,0
59661256597,0,0,-1,-2,8,3,-4,-6
59661265617,0,-3,-5,-17,-9,-1,3,-6
59661265617,5,-4,-3,-5,-2,-4,-2,4
59661288084,-4,0,1,16,0,-1,-3,-14
59661288084,-2,-2,-2,-26,-3,4,-2,-4
59661289609,-4,-1,6,-2,-5,8,4,-8
59661289609,-2,-2,-2,-4,-2,-37,-2,4
59661302078,-4,1,-1,1,-10,-4,-4,2
59661302078,-1,0,-2,6,10,8,1,0
59661310602,-1,-2,0,5,-1,-1,-2,-9
59661310602,-2,-3,0,-16,-3,10,-5,-8
59661316866,0,1,-4,2,1,-4,-4,-4
59661316866,-1,1,0,11,0,-4,3,8
59661325779,-1,-3,-2,-7,-2,-11,-12,0
59661325779,-1,-3,-2,-1,-1,18,11,5
59661340578,0,1,1,0,0,-14,2,3
59661340578,1,6,-3,-8,-9,-3,-6,-20
59661342077,-4,-3,-2,16,11,1,-2,4
59661342077,3,2,3,-8,-1,5,-5,-7
59661363131,-1,-4,0,2,-6,4,2,5
59661363131,-3,-5,-7,-20,1,1,-5,-5
59661364572,1,-1,-1,1,-5,-21,5,1
59661364572,0,-2,0,0,-1,5,-8,-12
59661385726,-1,2,0,-1,-2,2,3,-2
59661385726,-4,-3,2,7,0,-7,-4,-6
59661387149,-1,1,-3,-6,2,6,0,6
59661387149,-7,-3,2,3,-2,4,-2,-8
59661400612,-2,-2,-1,-11,2,-2,-1,-3
59661400612,4,0,0,8,0,0,-8,-2
59661402276,0,0,-1,-5,-1,7,6,5
59661402276,0,-2,-1,0,0,-18,-6,-2
59661423255,1,-1,0,3,0,-11,-6,2
59661423255,1,0,3,6,-10,-11,-4,4
59661424653,-2,0,-3,-7,4,18,2,6
59661424653,0,-1,1,0,5,8,2,9
59661436554,-4,-2,-3,1,-1,-10,4,-3
59661436554,1,1,-1,1,-3,-2,-2,-8
59661445664,-1,-2,-6,-5,-11,-8,-6,5
59661445664,-2,-4,-3,-3,0,-7,1,2
59661460650,-2,-1,-1,-2,0,18,4,2
59661460650,-5,-3,-3,2,4,-10,1,2
59661462052,-2,-3,-1,-1,0,2,-6,-16
59661462052,0,2,-4,-3,-1,6,-1,1
59661490472,0,0,2,-3,-5,-9,-8,-8
59661490472,-3,-2,-3,1,1,18,3,5
59661492080,-2,0,1,-1,0,-18,-4,-10
59661492080,-6,-2,-1,-2,0,1,-1,-4
59661496639,2,-1,3,0,1,12,2,1
59661496639,-4,-3,-1,-4,-4,2,-3,2
59661505693,-3,-1,-1,1,0,-13,-3,-5
59661505693,-2,-1,0,0,2,4,1,8
59661520613,-2,-2,-5,-3,-4,-11,-6,-7
59661520613,-1,0,-4,2,4,11,13,17
59661522084,1,-1,-1,-2,3,6,5,0
59661522084,4,3,-2,-4,-10,-11,-12,-22
59661543030,-3,-8,-3,-1,1,5,2,9
59661543030,1,0,0,0,8,-4,-4,-1
59661544579,0,0,0,0,-7,-4,-2,-3
59661544579,1,0,-3,-1,0,11,9,-6
59661556701,-2,2,0,-3,-3,-11,-4,-4
59661556701,-1,-3,-1,0,-4,3,-7,-4
59661565645,0,0,-1,-4,-6,-10,4,5
59661565645,-2,-2,2,2,5,-2,-1,-34
59661579591,2,-1,-1,2,4,31,4,32
59661579591,1,-2,1,-2,-9,-36,-2,2
59661588163,-1,1,1,-1,-3,0,-4,-7
59661588163,0,-5,-4,-1,-4,19,-2,10
59661603037,-2,-1,-3,-3,1,-24,0,-9
59661603037,2,1,-2,0,1,19,2,-5
59661604628,-2,-3,-4,-3,0,5,-4,2
59661604628,0,-2,-4,-2,-8,-18,-1,7
59661616845,-11,-2,-2,-4,-1,4,-3,1
59661616845,0,-2,0,2,4,-1,2,2
59661625680,-5,-2,-1,-1,-2,4,0,-13
59661625680,1,-3,0,-2,2,4,1,9
59661639829,3,2,0,1,-3,-11,-11,-12
59661639829,-6,-2,-1,-3,-5,-6,7,1
59661646648,2,-1,1,0,-1,-8,6,-11
59661646648,2,-2,1,2,3,-2,-12,8
59661663056,1,-1,2,1,-1,3,9,0
59661663056,-2,5,2,3,3,4,-10,-8
59661664551,0,-4,-3,-8,-5,2,6,6
59661664551,0,-1,-1,-2,0,1,-1,-1
59661676628,0,-3,-5,-4,-10,-21,-8,-8
59661676628,2,-1,-1,3,8,-4,0,5
59661685610,-1,-3,0,-2,-1,9,-1,-1
59661685610,-2,-1,1,1,-6,-10,-2,2
59661699779,2,2,0,-1,1,11,1,-16
59661699779,-3,-4,-2,-2,-5,1,2,8
59661706836,-6,0,2,3,0,-12,-11,-35
59661706836,7,-1,-3,0,4,14,5,25
59661723235,1,-1,0,-1,-2,-11,6,6
59661723235,-1,-3,-1,-1,-5,-1,-4,-4
59661724677,-4,-3,2,0,1,0,-1,-2
59661724677,-1,0,1,-1,-4,-9,-2,-2
59661736865,-5,-3,-2,-4,2,9,-7,-8
59661736865,3,-1,-2,1,-4,-8,7,1
59661745702,1,2,1,0,2,10,-2,14
59661745702,-4,-1,-3,2,3,4,2,-4
59661759357,6,-1,-1,1,-1,-2,-3,7
59661759357,-4,-1,-2,-5,-8,-3,-9,-7
59661768194,2,-4,-6,-3,-8,-10,6,5
59661768194,-2,0,2,2,2,-8,-4,2
59661782982,-5,0,-2,1,1,-1,-4,-13
59661782982,-7,-2,-4,-2,-1,14,6,-10
59661784617,2,-1,-2,-3,2,10,7,10
59661784617,-1,-2,-3,-3,-5,-8,-8,-8
59661796667,-5,1,-4,-3,-1,3,4,1
59661796667,1,-1,0,-3,-4,-22,-8,8
59661805571,3,1,0,-4,-1,4,-4,-21
59661805571,-13,-19,-4,-1,-3,-3,5,-1
59661819821,0,-1,2,6,7,12,7,1
59661819821,2,-2,-3,-3,-6,-7,-4,2
59661826631,-2,-2,-3,1,1,0,-4,5
59661826631,1,6,0,-2,-1,-7,-4,-4
59661843033,2,0,-1,-4,-7,-4,-3,-9
59661843033,-2,-3,0,-2,4,5,0,-7
59661844563,2,0,0,2,2,-14,0,13
59661844563,-9,3,-1,-1,-3,10,-3,-6
59661865481,-1,-4,-2,-3,-1,-3,2,35
59661865481,-4,1,-1,-5,-2,5,-2,-12
59661867042,-2,-1,0,-3,-2,2,-2,-6
59661867042,5,0,1,-5,-1,-12,3,10
59661879884,-3,0,2,1,1,-8,-6,17
59661879884,-3,0,-1,5,2,8,3,-5
59661886890,4,-1,-1,-1,-3,1,-8,8
59661886890,-3,-1,-2,-2,-2,-5,-2,-12
59661903036,-1,-1,-2,1,0,6,-1,-6
59661903036,1,-1,6,1,2,5,-1,-4
59661904644,0,-1,-7,1,0,-4,-4,0
59661904644,5,4,4,2,2,0,4,6
59661925769,-2,-2,-1,-6,-2,4,1,-11
59661925769,-2,-2,-1,-4,-5,-7,-3,1
59661927171,-4,-1,2,0,-2,-3,-3,-7
59661927171,7,1,-3,-1,0,0,3,-6
59661939797,-1,1,-3,1,0,1,1,2
59661939797,-1,-2,0,4,1,-2,-1,-4
59661946733,-4,-4,-2,-8,-3,-1,-3,3
59661946733,-5,-1,-2,-2,-1,-3,-3,2
59661963187,11,-1,0,4,1,-2,2,5
59661963187,-7,-2,-3,-9,-2,0,0,-32
59661964634,-2,0,-1,-2,-1,-2,-2,11
59661964634,-3,-1,1,2,0,1,-1,-2
59661986975,-4,-3,-6,-2,-2,0,-1,-14
59661986975,1,-2,-1,1,0,-1,-1,14
59661988580,2,3,-1,6,1,-1,-1,18
59661988580,1,-3,-1,-4,-3,1,-1,-11
59661999108,12,3,4,6,-1,-4,-1,6
59661999108,-3,0,-1,1,1,1,-1,-5
59662008133,-3,-3,-3,-2,0,-2,-1,-3
59662008133,1,4,-2,-1,-2,2,3,9
59662022920,-4,-4,0,0,0,-1,-4,-7
59662022920,2,1,-1,-2,-2,-4,-2,2
59662024539,1,-1,0,0,0,1,-2,-11
59662024539,5,-3,-1,-4,-4,-3,1,23
59662045725,-18,-5,-2,-2,-3,-2,-4,-19
59662045725,0,-4,-2,-2,-1,-3,0,0
59662047042,-8,1,-2,3,0,0,-1,-7
59662047042,-7,-2,-3,-2,-1,-1,-5,-31
59662059227,-7,-1,0,0,0,-1,-3,0
59662059227,4,3,-1,-4,-2,1,0,9
59662068124,-2,-1,-1,-4,-1,-4,0,-6
59662068124,-3,0,0,1,2,0,-2,-13
59662083091,8,13,-1,-12,-2,0,0,10
59662083091,-6,-5,-4,15,0,0,-2,-2
59662084688,4,1,-2,-5,-4,0,1,2
59662084688,-5,-2,0,-1,-1,1,-2,-9
59662105779,-7,0,0,2,0,0,1,-9
59662105779,1,-2,-1,-1,-4,-2,0,7
59662107107,2,-3,0,-7,-2,-2,-1,-3
59662107107,3,3,-5,-6,-2,0,-2,11
59662119110,-3,-3,-1,20,-1,-4,-2,-9
59662119110,1,0,-1,-14,-2,-2,0,4
59662135641,-10,-2,-1,10,1,1,-2,-15
59662135641,2,-1,1,-8,-2,-3,-1,5
59662143164,-2,-5,-1,-8,-1,0,-1,-10
59662143164,0,-2,-1,-1,-3,-3,-2,-4
59662144642,5,1,-1,0,-1,-1,0,8
59662144642,-8,2,-1,3,0,1,1,-17
59662165642,-4,-23,-5,-6,-2,0,-2,4
59662165642,5,3,3,7,1,-1,-1,3
59662167119,-10,-4,0,3,-3,-1,-1,-6
59662167119,4,-2,0,11,3,-1,-1,9
59662179103,4,4,-2,-12,-7,-2,1,5
59662179103,-2,-1,0,-6,-1,-1,-2,-5
59662188146,-3,-3,1,6,2,0,-1,3
59662188146,0,-2,-2,8,-1,0,-1,13
59662210690,0,4,2,6,-2,0,1,-8
59662210690,-3,-1,0,7,0,-1,-1,1
59662212172,3,3,2,0,1,-2,0,2
59662212172,-2,-4,-8,-16,-5,-3,-2,0
59662225648,2,1,-1,-16,2,-1,0,1
59662225648,0,-1,-1,-3,-5,0,-1,4
59662227130,1,-3,-1,-11,-1,-1,0,-7
59662227130,-1,1,2,-7,1,-1,0,-2
59662239196,0,-2,0,9,-3,-2,-1,2
59662239196,-1,-1,-2,11,1,0,-1,-6
59662248053,-1,-1,-2,0,1,-1,-1,1
59662248053,6,-4,-1,-18,-4,-3,-4,2
59662263021,-3,1,-1,9,1,-1,0,-3
59662263021,0,0,-3,-14,0,-2,0,1
59662264612,0,-2,-2,10,-4,0,-1,1
59662264612,-1,0,-1,4,0,0,-1,-1
59662285728,-3,-1,0,21,5,-1,-1,-3
59662285728,0,-2,-3,-43,-8,-2,-2,-5
59662287224,0,-1,-1,-13,-2,-1,-3,1
59662287224,3,0,0,37,4,1,1,3
59662299107,3,-1,-5,-48,-8,-2,-2,-3
59662299107,-7,-1,2,27,8,1,1,-17
59662308054,3,-2,-4,-21,-10,-1,-1,9
59662308054,-2,0,1,8,0,-2,-2,14
59662323075,-2,0,-2,1,0,-2,-1,-6
59662323075,-1,-2,-2,0,-1,-2,-2,6
59662324623,4,0,0,4,-1,-1,-1,-2
59662324623,-2,0,0,-1,-1,0,-1,-8
59662345755,-3,-1,-2,3,-2,0,-2,2
59662345755,-6,0,-2,0,-3,-2,-2,1
59662347115,-4,-3,-2,-18,-3,-3,0,-5
59662347115,-1,-3,-1,3,0,0,0,-2
59662359080,4,7,-1,-11,-1,-1,-2,-4
59662359080,-5,-15,-2,-2,-2,1,0,3
59662368205,10,0,0,3,-2,-1,-2,9
59662368205,-6,0,-2,5,1,-2,-2,-12
59662383088,-1,1,0,-19,-6,0,-2,1
59662383088,1,4,-1,6,-1,-1,-4,0
59662384607,-7,-1,1,11,2,0,-1,0
59662384607,-5,-2,-6,-17,-3,-2,-1,12
59662413005,-5,-4,-2,13,2,-1,-1,-6
59662413005,4,2,-1,1,1,-1,-1,2
59662414642,-3,-2,-1,2,0,0,-1,-2
59662414642,-1,1,-1,0,0,-1,0,-7
59662419224,-1,-3,-1,-8,-2,-3,-2,1
59662419224,-2,2,-1,2,0,0,0,22
59662428206,2,2,0,2,0,0,-1,-14
59662428206,-4,0,3,17,-2,-2,-1,-3
59662443182,11,-5,-3,-1,-1,-1,-1,10
59662443182,-3,2,2,4,0,0,1,-4
59662444660,-6,-20,-1,8,1,-1,1,-5
59662444660,2,1,-2,-8,-2,0,-1,3
59662465493,-2,0,0,1,0,0,1,-1
59662465493,-14,0,-1,-5,-5,-1,-3,-7
59662467095,5,3,-4,0,0,-1,0,7
59662467095,-7,-1,-1,-13,-3,0,1,-21
59662479136,-4,-3,-2,13,2,-1,0,2
59662479136,5,0,-2,-7,-3,-2,-1,-10
59662488125,3,2,-3,-6,0,0,0,20
59662488125,-1,-2,-2,-6,-1,0,-3,0
59662503116,0,2,2,10,-1,1,-2,-4
59662503116,2,-2,-1,3,1,-1,-1,-6
59662504657,-5,1,0,-2,-1,-1,-2,-7
59662504657,4,-2,-1,-2,-1,-1,-1,1
59662525644,-2,-2,-2,0,1,0,0,-3
59662525644,2,0,-1,-4,-2,-1,0,1
59662527120,-4,9,-3,-2,0,0,-1,-6
59662527120,0,1,2,-4,0,-1,-1,0
59662539148,-3,0,1,-2,-3,-1,0,-2
59662539148,-13,-7,-5,3,-1,-1,-2,5
59662547993,-2,3,-2,-6,-3,-2,-2,-10
59662547993,-12,-2,0,-3,-2,-3,-3,-3
59662562282,5,3,2,1,0,0,1,3
59662562282,2,1,0,1,2,-2,1,-2
59662570761,-3,-1,-2,2,0,-1,-1,-11
59662570761,12,-4,-3,-8,-1,-3,-2,16
59662585786,-6,-5,-2,-1,0,-3,-4,-3
59662585786,10,1,0,-1,0,0,-1,0
59662587032,-8,-5,-2,0,-2,0,-1,-5
59662587032,7,8,0,-3,-2,1,1,4
59662599384,3,0,-2,0,-2,-1,0,13
59662599384,0,2,2,-6,-1,1,0,-18
59662623210,-2,-3,-3,-5,-1,-3,-2,4
59662623210,-1,3,-1,0,0,-1,-1,-2
59662623822,-8,-5,-2,-4,-3,-2,-2,-1
59662623822,-4,-3,0,3,-1,-1,1,3
59662629381,-1,2,2,-4,-1,-1,-1,0
59662629381,-7,-6,-1,-2,-2,0,-1,-10
59662645623,-4,-1,-3,-2,-1,0,0,-4
59662645623,0,-7,0,3,0,-2,0,3
59662647080,3,3,2,-6,-1,0,-1,-1
59662647080,-1,-7,-2,0,-1,-1,0,-3
59662659444,2,2,-2,1,-2,-3,-1,-1
59662659444,3,0,-4,0,0,-1,-2,0
59662668087,-3,3,-2,6,-2,-2,0,8
59662668087,-13,-20,-2,-4,0,0,-2,-5
59662682495,0,1,-1,-5,0,-1,-1,-3
59662682495,3,2,1,1,-1,0,-1,3
59662689147,1,-4,-4,1,-1,-2,-2,-4
59662689147,0,5,1,-4,-1,-1,-1,-2
59662705514,-2,-1,-1,0,1,-1,-1,-5
59662705514,0,-3,-2,-5,-2,-3,-3,-1
59662707104,-11,-7,-3,-1,-1,-2,-3,-3
59662707104,1,2,0,0,-2,-1,0,3
59662719366,3,-3,-2,1,1,1,-1,-1
59662719366,0,1,0,-1,0,-1,-1,14
59662728125,-6,-2,0,0,-2,1,1,-17
59662728125,0,2,-2,-1,-2,-3,-3,1
59662742515,1,1,0,-1,-2,-1,1,-1
59662742515,1,-3,-2,-4,-3,-2,-1,2
59662743186,4,5,1,1,-2,-2,1,2
59662743186,-2,-1,-3,0,0,-1,-1,-3
59662764844,-1,0,-1,-2,-1,-1,-3,-4
59662764844,0,-2,-1,0,0,0,-1,-2
59662765602,2,-2,-2,-2,0,-1,-2,3
59662765602,1,1,-1,-2,-2,-1,1,-4
59662787370,-3,-4,-3,0,-1,-1,-3,-2
59662787370,10,2,0,0,-3,-1,-1,6
59662788201,1,-2,0,2,1,-1,-1,-2
59662788201,0,1,-2,-3,-2,-1,-1,4
59662802313,-2,-2,-3,-2,-1,-2,0,-3
59662802313,-4,-3,-2,-2,0,-1,-3,-13
59662803110,-3,-5,0,0,0,0,-2,-1
59662803110,13,14,-1,-1,-1,0,-1,2
59662825015,-3,-9,-1,1,0,-1,1,-4
59662825015,-1,5,0,-2,0,-3,-1,-4
59662825597,3,-3,-3,-1,-3,0,-1,19
59662825597,-7,0,-1,0,0,1,0,-17
59662847247,-2,-1,2,-3,-2,0,-3,1
59662847247,-2,-3,-2,-1,-1,-1,-1,-1
59662848042,-3,-2,-2,-1,-1,0,1,1
59662848042,3,-5,-4,0,-2,-2,-2,3
59662862331,-2,0,-2,0,-1,1,1,0
59662862331,-5,-5,-3,-2,-1,0,-2,-6
59662863150,3,2,2,0,-1,-3,-1,-3
59662863150,-8,-5,1,-2,-1,-1,-2,-1
59662884916,1,-2,-2,-2,-1,-2,-2,-3
59662884916,-19,3,-1,1,0,-1,-1,-11
59662885562,0,-3,0,0,-3,0,-3,-1
59662885562,7,10,2,2,1,-1,0,3
59662907493,-3,-1,1,-1,-1,1,-2,-2
59662907493,5,-4,-5,-3,-2,-1,0,1
59662908108,13,5,1,1,2,0,-1,0
59662908108,3,-4,-2,-3,1,-1,0,15
59662923849,-4,3,2,1,-1,-1,-1,-13
59662923849,0,-5,-2,-2,-3,-3,-1,1
59662924614,-2,-1,-2,0,0,1,2,-2
59662924614,1,-6,-3,-1,-2,0,-2,1
59662945038,-11,-23,-5,0,-2,-1,0,0
59662945038,-3,-3,1,-3,-3,0,-3,-3
59662945623,-2,-1,0,-2,-1,-3,-2,-1
59662945623,-4,-4,-1,-2,-1,-1,-3,3
59662967334,2,3,0,-1,0,0,0,2
59662967334,-1,2,0,-1,-1,-1,0,-2
59662968087,-16,-4,-3,-2,0,-1,0,-12
59662968087,-2,-2,0,-1,-1,-1,-1,-2
59662982586,0,3,-2,-2,-1,0,-3,0
59662982586,4,-3,-3,-1,-3,-2,0,7
59662983144,9,7,2,0,-2,0,0,1
59662983144,-2,-5,-2,0,0,-2,-2,-6
59663004746,-1,0,-2,-1,-3,-2,-1,1
59663004746,3,0,1,0,1,-1,-1,-3
59663005600,-5,-6,-1,0,-2,0,-3,-1
59663005600,-2,-1,-3,-1,-1,-1,1,-7
59663027579,6,-1,-2,-2,-2,-2,-1,3
59663027579,-2,3,-2,-1,-1,-1,-2,1
59663028132,-3,1,0,0,-1,-1,0,-4
59663028132,-7,-3,-1,-2,0,2,0,2
59663042502,2,4,-4,0,-1,-2,-4,-14
59663042502,-1,-1,-3,-1,-1,-1,0,3
59663043137,-1,-2,-1,-1,1,-1,-2,2
59663043137,0,1,0,1,-3,-2,0,-1
59663065054,-3,0,1,-3,-2,-2,1,7
59663065054,-10,-4,-1,0,0,-1,-1,-14
59663065589,3,6,3,0,0,-1,-1,2
59663065589,-3,-2,0,-2,0,-1,-3,-5
59663087425,0,2,-2,-1,0,0,-1,0
59663087425,3,-2,0,-3,-4,-2,-1,1
59663088167,-5,-7,-4,-4,-1,-2,-1,-3
59663088167,0,1,-2,-1,1,-1,0,-3
59663102459,0,9,5,1,2,0,-3,2
59663102459,-5,-12,-4,0,-3,-2,-3,1
59663103103,0,-1,-3,-1,-4,-1,0,-1
59663103103,-2,-1,-1,-2,-4,-1,0,-7
59663125362,1,2,-1,-1,-2,-1,-1,5
59663125362,0,1,0,-1,-2,0,-1,-3
59663126138,-3,-3,-4,0,0,-2,-2,-1
59663126138,1,-3,-2,0,-2,-1,-3,-1
59663147312,9,-3,-2,-2,-1,0,1,16
59663147312,-9,1,0,0,1,-1,2,-13
59663148119,2,0,-2,-1,-1,1,0,2
59663148119,-2,1,0,-2,-2,-1,-1,1
59663162510,-2,-3,-1,1,-1,-2,-1,1
59663162510,5,1,0,-1,0,-1,-1,5
59663163128,1,3,1,-2,-2,-2,0,-4
59663163128,-1,-2,0,-2,-2,0,1,-2
59663184777,-3,-1,-1,-1,-1,-1,-1,-6
59663184777,-1,1,-1,-1,0,-1,-1,3
59663185580,-3,-3,-2,-1,-1,-2,-1,-3
59663185580,-10,-4,-3,-3,-2,-4,-4,0
59663207319,-3,0,0,0,-2,-1,0,-5
59663207319,0,1,-1,-1,0,1,0,1
59663208079,-3,-6,-1,-3,0,0,0,7
59663208079,12,13,0,0,0,0,-1,-1
59663230514,-3,-1,-2,-1,-2,-1,0,-3
59663230514,-1,2,-5,0,-2,-1,-2,-1
59663231267,-1,-6,0,-2,-2,-3,-2,1
59663231267,-1,-1,-2,-1,-2,-3,-2,-2
59663244756,-3,-3,-2,-4,-2,-2,-1,-5
59663244756,5,3,-2,-2,0,0,-1,2
59663245539,-3,0,1,0,-2,0,-1,-4
59663245539,2,-5,0,0,1,0,0,0
59663267247,-4,2,2,2,0,1,1,-2
59663267247,7,5,-1,-3,-4,-3,-2,0
59663268024,-4,-1,-2,-2,-2,-2,-1,-2
59663268024,-1,0,1,0,-2,1,0,-3
59663282252,-13,-9,-2,-1,-1,0,-4,0
59663282252,-4,0,0,-2,-1,0,-3,-2
59663283036,1,0,-1,-1,-3,-3,-2,-6
59663283036,2,-5,-4,-2,-1,0,0,1
59663304715,4,3,0,0,-3,0,-1,-1
59663304715,2,-2,-1,0,1,-2,-1,2
59663305533,-21,-23,-3,-2,-2,0,-1,-10
59663305533,-6,-5,-2,0,-1,0,-3,0
59663327317,2,-1,-6,-2,-1,-2,-1,-1
59663327317,-3,-3,2,-1,-2,-1,-2,-2
59663328087,5,0,-1,0,-2,0,-1,2
59663328087,-3,0,-1,-2,-2,-2,0,-5
59663342230,-3,-2,1,-2,-1,1,0,-4
59663342230,-1,1,-1,-2,-2,-1,1,0
59663343031,7,4,-3,-3,2,-1,-1,1
59663343031,-4,-2,0,1,0,-1,-3,-11
59663364766,5,2,-2,0,-2,-1,-2,3
59663364766,-3,3,-2,-4,-3,-1,-1,-3
59663365569,0,1,0,1,-1,-2,-1,2
59663365569,0,-1,-2,-1,1,-2,-1,1
59663387262,0,-5,-5,-2,1,-2,0,-1
59663387262,-2,-2,-1,0,-1,-2,-1,-2
59663388085,1,2,2,1,-1,0,-3,-1
59663388085,4,0,1,-2,-1,-1,-3,1
59663401580,-1,0,1,0,-1,1,0,-3
59663401580,-1,-4,0,-2,0,0,-3,2
59663409760,0,-5,-4,-3,0,-2,-1,-2
59663409760,-2,-3,0,-2,-1,-1,1,1
59663432937,0,-2,-1,-1,1,-2,-2,2
59663432937,-5,-3,-1,0,-2,0,-2,0
59663433734,9,13,1,0,-1,-1,-1,-1
59663433734,-4,-15,-3,-1,-1,-1,0,2
59663455456,-2,-1,1,-1,-1,-3,-1,-4
59663455456,0,2,-1,-3,-2,-2,-1,3
59663456212,8,4,0,-2,-2,-1,-1,-3
59663456212,-21,-9,-3,-3,-1,-2,-2,-12
59663461551,1,1,-3,0,-1,-2,-1,-1
59663461551,2,-4,-1,0,0,-2,-1,-1
59663469804,0,-8,-1,-2,-2,1,1,19
59663469804,0,3,-1,1,0,0,2,-11
59663484795,2,-4,1,-1,-1,1,1,1
59663484795,0,0,-1,-1,0,-2,-1,-1
59663485570,1,2,-3,-1,-1,-1,-1,0
59663485570,4,6,1,-1,-1,-3,-1,5
59663515439,0,4,3,2,0,-1,-3,-3
59663515439,1,-1,-3,1,0,-1,1,-3
59663516274,-3,5,1,0,0,-1,-1,-6
59663516274,-5,1,-2,0,-3,-2,-1,0
59663521645,-4,0,0,-2,-2,-1,0,-7
59663521645,-2,-5,-2,-2,0,-2,-1,-1
59663529815,-6,1,0,1,0,0,-3,-5
59663529815,9,2,-1,-1,0,1,0,7
59663544727,-8,-3,-2,0,-2,-1,1,3
59663544727,-1,2,0,0,-2,1,-1,-2
59663545523,-1,-5,-3,-4,-3,-2,-1,-5
59663545523,3,-1,-3,-1,-1,-1,-3,4
59663567209,2,-4,-1,-1,0,-2,-1,-2
59663567209,-3,-1,0,0,1,-1,0,1
59663568025,2,-7,-3,-1,-2,-1,0,-2
59663568025,10,9,3,2,1,0,-1,3
59663581614,10,1,0,0,-1,1,-1,16
59663581614,-6,11,1,0,-1,0,1,-21
59663589832,4,5,-1,-2,-3,-2,0,-1
59663589832,-5,-12,0,0,-1,1,-1,0
59663604715,-5,-5,-4,-1,0,-4,-2,-2
59663604715,8,7,3,0,-1,-2,-2,-2
59663605587,-7,-8,1,-2,-1,-1,-1,-1
59663605587,-5,2,1,-1,0,-1,0,-1
59663627241,-2,1,-1,-1,-1,-2,1,-5
59663627241,-4,-11,-1,-1,0,-3,-3,2
59663628017,-4,0,-2,0,0,-1,-2,-5
59663628017,-4,-2,-3,-1,-2,0,0,-2
59663641548,-2,-4,1,-3,0,-1,-1,-4
59663641548,-1,-3,-3,0,-2,-2,1,0
59663649769,0,-1,-1,0,1,-1,-2,-1
59663649769,0,1,-2,-2,-2,-2,-1,-1
59663664757,-2,2,0,-3,-2,-2,-3,-5
59663664757,0,-4,-3,1,-2,-1,-1,1
59663665563,-4,1,0,1,-1,0,-1,-5
59663665563,2,-2,-2,-1,-1,0,-2,0
59663687258,-1,-3,-1,-1,1,-1,-3,-3
59663687258,-1,-4,-3,-2,0,-2,-1,0
59663688054,5,7,-1,-1,-2,-2,-1,3
59663688054,-8,-14,-3,-2,-1,-2,-3,-13
59663710421,2,3,-2,-1,0,1,-1,0
59663710421,-18,-6,-3,-2,0,-1,-1,1
59663711224,3,4,0,1,-2,-1,0,-1
59663711224,-1,5,-1,0,-2,-3,-1,1
59663724784,2,3,0,-3,0,-2,-2,-10
59663724784,3,-30,-6,-2,-4,-3,-2,24
59663725591,-6,-1,1,1,-1,2,0,-10
59663725591,3,2,2,-2,-1,-3,-1,1
59663747256,-8,-7,-3,1,0,0,1,-3
59663747256,6,7,3,-2,-2,-1,-3,-3
59663748065,-4,-4,-1,1,0,-1,-1,-1
59663748065,1,0,-2,1,0,-2,1,-1
59663770504,2,5,-1,-1,-1,0,1,4
59663770504,-4,-16,0,-1,1,0,-2,-5
59663771402,-3,-3,1,-1,-1,-2,-3,0
59663771402,-3,6,0,-2,-2,-1,0,-3
59663784723,12,4,2,-1,-2,0,-2,6
59663784723,-12,7,0,1,1,1,1,-17
59663785548,1,-5,0,-1,-1,-1,-1,3
59663785548,7,1,-2,1,0,0,-1,5
59663807259,-6,-4,-2,-3,-2,-1,-1,-1
59663807259,6,5,1,1,1,0,0,1
59663808069,-1,0,-2,-2,0,1,-1,-2
59663808069,-2,-2,-1,-2,0,-2,-1,4
59663830435,-6,-3,1,0,-1,-2,-1,-1
59663830435,1,3,-2,-2,-2,-2,0,-5
59663831269,3,14,-1,-1,-4,-3,-2,-2
59663831269,-2,-8,-2,-3,-2,1,-3,4
59663844788,0,-2,-1,-2,-2,-1,-2,-2
59663844788,10,15,2,-2,0,-1,-2,1
59663845584,1,-17,-2,-1,-1,-1,-1,-1
59663845584,10,12,5,1,0,-1,-2,0
59663867293,-2,-5,-2,-2,-1,0,0,6
59663867293,-5,4,1,-1,-2,3,0,-21
59663868063,-4,-2,-4,-1,0,-2,-2,3
59663868063,-5,0,0,-1,-2,-1,-1,-13
59663890445,8,-4,-1,1,1,0,1,8
59663890445,-6,-5,-3,-3,-2,-2,-2,0
59663891234,-3,-2,-1,-2,0,0,-2,0
59663891234,-3,-4,-1,0,-1,0,0,-4
59663904798,3,6,1,-1,-1,-3,-2,-3
59663904798,-2,-5,-2,0,-1,-1,1,5
59663905561,0,8,2,-1,-1,-2,0,-2
59663905561,-8,-13,-3,-2,0,-1,-2,0
59663927246,-7,-3,-5,-3,-4,0,-2,-6
59663927246,2,1,-1,-1,1,-2,-1,5
59663928040,-3,-2,-4,-2,-1,-1,-1,-2
59663928040,2,1,-2,-2,-1,0,1,3
59663950438,-5,-4,-3,-1,-2,-3,-2,-4
59663950438,1,-4,-1,-1,-1,0,-2,1
59663951248,-4,2,-1,1,-1,-1,-1,0
59663951248,-6,-6,-3,-2,-1,0,0,-4
59663964763,-4,-3,0,-1,-2,-2,-2,-5
59663964763,7,1,-2,-1,-3,0,0,2
59663965527,3,2,4,-1,0,-1,2,0
59663965527,9,0,0,1,-1,-2,-2,-1
59663987276,-3,1,-1,-3,-2,-1,-2,-2
59663987276,3,-2,-6,-3,0,-2,-1,4
59663988114,-6,-6,-3,-1,-1,-1,0,-2
59663988114,-1,6,-5,-4,-2,-1,-3,0
59664010404,-2,-8,1,1,-1,1,-2,-2
59664010404,0,0,0,1,-2,-2,-1,0
59664011229,0,-4,-3,1,-1,-1,-1,-2
59664011229,2,5,0,-3,0,0,-2,3
59664024797,-5,1,0,-1,0,-2,-1,-18
59664024797,-6,-2,0,-2,-1,-1,0,0
59664025618,1,1,-1,-1,0,-1,-2,-3
59664025618,-1,-4,-1,0,0,-3,-1,2
59664047267,1,-1,-3,-2,0,0,0,5
59664047267,-3,-4,-2,0,0,-1,-3,2
59664048068,6,0,0,-2,-3,-2,0,-5
59664048068,0,0,-1,-1,-2,-1,-1,2
59664070423,-4,-3,-3,-3,-1,-1,-2,4
59664070423,0,-1,0,-1,-1,-1,0,-3
59664071231,-6,-3,-3,-1,0,-2,-1,3
59664071231,-3,0,0,1,-1,-1,-2,-3
59664084724,0,1,1,0,1,-3,1,2
59664084724,-3,-1,-2,-2,-2,-2,-2,-2
59664085547,0,-1,-1,-3,-1,-1,-1,0
59664085547,-11,-14,-4,-4,-3,-2,-3,-20
59664107242,-1,7,-1,0,0,0,0,-3
59664107242,-3,-3,-1,0,-1,0,1,2
59664108036,2,-3,-2,-1,-1,-3,-2,-5
59664108036,1,1,-1,0,-1,-1,0,2
59664130436,-3,-3,-5,-2,-2,-1,-3,1
59664130436,3,-2,0,-1,-2,0,-3,-4
59664131265,2,0,-1,1,0,1,-1,2
59664131265,-1,2,-1,-1,0,0,1,-1
59664152953,2,0,-1,-3,0,-1,-2,0
59664152953,1,2,-2,-1,0,-1,-1,1
59664153726,0,-5,-3,-2,-3,-1,-1,4
59664153726,-3,1,2,1,-1,1,0,-3
59664167225,0,-3,-2,-3,-4,-1,-1,-2
59664167225,-5,1,-2,-2,1,0,1,-3
59664168068,-2,-4,-2,1,-1,-1,0,0
59664168068,-5,-1,-2,-3,0,-1,0,0
59664190442,7,2,1,1,1,-2,-1,4
59664190442,0,-1,1,-1,-2,-3,0,-2
59664191272,-3,1,-1,-2,-2,-1,-2,-1
59664191272,5,15,0,0,0,-2,-1,3
59664204759,-2,-6,0,0,-3,-2,-1,-7
59664204759,1,0,0,-2,-1,-1,-1,4
59664205536,2,1,-1,-1,0,-2,-1,-3
59664205536,-3,1,-3,-1,-3,0,-2,0
59664227250,-3,0,0,-2,0,-2,1,0
59664227250,-3,-4,1,0,-2,0,-1,-2
59664228041,-3,-1,-4,-1,-2,-2,-1,-2
59664228041,2,-3,1,-2,0,-1,-1,-1
59664250426,2,-1,0,-1,0,-2,-1,-1
59664250426,-3,-2,-4,-3,0,-2,-2,0
59664251220,-8,-1,-1,-2,-1,-2,-4,-4
59664251220,1,-5,-2,-1,-1,-2,-1,0
59664265448,-6,-2,-1,1,-1,-1,0,1
59664265448,-5,1,-1,-2,0,-2,-2,-13
59664266206,2,0,-1,-3,-2,-1,-1,4
59664266206,0,-4,-3,-1,1,-2,-2,2
59664287236,-1,1,-2,-3,-2,0,-1,-4
59664287236,2,0,-1,0,-1,-3,-3,2
59664288062,-1,-5,-1,-1,-1,-1,0,1
59664288062,6,7,3,2,0,0,1,-1
59664310545,3,14,-2,-2,-3,-1,-2,-2
59664310545,-1,-3,2,0,-1,0,-2,0
59664311284,-1,-2,2,-1,-1,-3,-1,-2
59664311284,-4,-3,-4,-3,-2,-2,-1,0
59664332978,-2,-4,-1,0,-1,1,1,0
59664332978,1,2,-3,-1,-3,-1,0,-2
59664333747,-3,0,-1,0,0,0,1,-3
59664333747,0,-1,-1,-1,-2,0,0,0
59664347241,-4,-4,-1,-2,-1,0,-4,-3
59664347241,-1,-1,2,1,-1,0,0,0
59664348036,-3,-3,-6,-4,-2,-1,-2,0
59664348036,-4,-6,-2,-2,-3,-3,-3,1
