timestamp,emg1,emg2,emg3,emg4,emg5,emg6,emg7,emg8
83505844338,-7,5,0,0,0,-2,-2,-5
83505844338,2,2,0,-2,-2,-1,0,-1
83505845153,13,5,0,0,-2,-1,-3,-1
83505845153,-1,-8,0,1,1,2,1,2
83505859369,-6,-6,-4,0,-1,-1,-1,-1
83505859369,2,0,1,1,0,0,0,0
83505860174,-2,0,-2,-4,-1,-1,-2,-1
83505860174,-3,-5,-5,-3,-1,-2,0,-2
83505881846,2,22,0,1,1,-1,-1,-1
83505881846,-1,-10,-1,-2,-2,-2,-1,1
83505882699,-7,-2,-2,0,-1,-1,-4,-2
83505882699,-2,2,-2,-1,-2,-2,-1,-3
83505904342,-5,-1,-2,0,-2,-2,-1,-2
83505904342,1,3,1,0,1,-2,-1,-1
83505905146,-5,-3,0,1,0,1,0,0
83505905146,0,0,2,-2,-2,-1,-1,-2
83505919352,-4,-7,-5,-2,-3,-2,-1,-2
83505919352,4,2,-2,-3,-1,-1,-1,1
83505920264,-4,-5,-3,-2,-3,-3,-1,-1
83505920264,-6,-4,-2,-1,-2,-3,0,-1
83505941825,8,-3,-2,-3,-4,-2,-2,1
83505941825,-9,-3,3,5,-1,1,-1,-3
83505942724,-3,1,-3,-5,-1,-1,-2,-1
83505942724,-3,-2,1,-1,-1,-2,-2,-1
83505964332,3,-5,-4,-3,-2,1,-2,-2
83505964332,-3,-2,1,-1,-1,-1,0,-1
83505965139,0,0,0,1,-1,-1,-2,-2
83505965139,-17,-15,-3,0,-1,-2,-3,-1
83505978749,10,-4,2,-1,0,-1,-1,4
83505978749,-7,7,0,0,-1,-1,-3,-8
83505986861,-7,-4,-2,-2,-1,-2,-1,-4
83505986861,8,4,0,-1,0,-1,-1,3
83506001854,-4,-4,-1,-1,0,-1,-1,0
83506001854,12,-2,0,-3,-1,-1,-1,0
83506002604,-19,-4,-3,-1,-2,0,-1,-4
83506002604,-5,0,-2,2,-3,1,-1,-1
83506025042,-4,-2,2,13,2,0,0,-1
83506025042,3,-2,-8,-16,-5,-3,0,2
83506025812,2,0,0,0,-3,-2,0,0
83506025812,3,1,3,5,1,0,0,-1
83506038697,-5,-3,-2,-17,-4,-1,-1,-2
83506038697,-4,-2,-1,6,0,1,-2,-2
83506046911,1,-2,-3,-5,-1,-1,1,-1
83506046911,-1,0,-3,-2,-1,0,0,-1
83506061834,-2,0,0,1,-1,-2,-1,-2
83506061834,-2,-1,3,6,0,-1,-2,0
83506062639,0,-1,-3,-12,-2,-1,-1,-2
83506062639,2,0,-5,-4,0,-1,-2,-1
83506084339,-3,-1,-3,1,-2,-2,-1,-3
83506084339,-3,-3,-2,-7,-1,-1,1,1
83506085089,2,4,3,8,-1,-2,-2,-1
83506085089,-1,-1,-2,-4,-1,-2,0,-1
83506098751,1,4,-2,5,0,1,1,-2
83506098751,-3,-1,-3,-7,-2,-2,-3,-2
83506106927,2,-2,0,0,-2,-2,-2,-2
83506106927,0,-2,-2,-7,-2,0,-1,0
83506122310,-3,-3,0,-1,0,-1,-2,-1
83506122310,-1,0,0,4,0,-1,0,-1
83506123042,0,-1,0,8,1,2,0,0
83506123042,-1,-1,1,0,-1,-1,-1,-1
83506152495,-3,-2,-5,-8,0,-1,-1,-1
83506152495,0,-3,0,0,-2,0,-3,-2
83506153314,1,-1,-3,-8,-2,-1,-1,-1
83506153314,-2,-1,0,6,-2,-1,-1,-1
83506158705,0,0,-1,3,-2,-3,-3,-3
83506158705,-2,0,-1,10,3,0,1,0
83506166868,8,0,0,-5,2,2,0,3
83506166868,-2,-1,3,2,-2,-6,-4,-3
83506181846,-8,-3,-8,-8,2,0,0,-2
83506181846,-3,-3,-7,-7,-8,0,-2,-3
83506182694,-2,-3,-3,-3,-7,-4,-2,0
83506182694,3,-1,-5,-3,-5,-9,-2,-1
83506204420,2,2,3,2,2,-1,-2,0
83506204420,-1,1,0,8,6,-4,0,-1
83506205186,-1,1,2,10,5,7,3,-2
83506205186,-1,1,0,-8,-7,-5,-7,-4
83506218766,-2,-2,1,2,-1,-1,2,-1
83506218766,1,-4,-4,-8,-4,4,3,3
83506226828,-1,0,0,-8,-9,-8,-4,-5
83506226828,-6,-3,0,6,1,5,3,-1
83506242153,0,-3,-7,-12,-3,0,-4,-4
83506242153,-2,9,3,3,-1,-3,-2,-1
83506242689,2,-12,0,-2,6,2,2,4
83506242689,0,-3,2,4,5,15,5,7
83506264481,-2,-2,-7,-9,-13,-30,-3,0
83506264481,-2,2,-3,-3,-5,-3,-2,-2
83506265213,0,4,0,-2,-3,-9,-7,-6
83506265213,-13,-3,-1,3,6,9,-10,-5
83506278777,8,1,4,10,10,10,19,8
83506278777,19,1,1,-11,4,8,-2,9
83506286820,-54,-11,-4,-1,-7,0,-1,-22
83506286820,-8,-6,-7,-8,-7,0,3,-2
83506302107,-9,1,10,8,-1,-9,-9,-9
83506302107,1,0,-4,-3,0,5,-7,-6
83506302795,46,29,-2,-2,0,-15,-3,21
83506302795,-31,-5,-6,-10,1,-18,-19,-6
83506324394,3,5,-3,-2,-7,8,18,9
83506324394,15,-13,9,8,2,-4,19,1
83506325127,20,5,4,4,9,28,-7,-1
83506325127,-45,-3,-2,0,-4,-21,-2,-17
83506347781,11,8,4,3,0,6,-9,26
83506347781,6,5,1,0,1,11,4,-1
83506348454,4,-9,-9,-7,-8,-1,0,25
83506348454,55,8,6,3,1,-12,12,-1
83506362088,-19,-14,-7,-10,-8,-17,-13,-19
83506362088,4,3,-1,1,0,-14,-17,-3
83506362764,-2,-9,-8,-9,-7,23,11,-19
83506362764,47,10,6,1,1,11,10,-4
83506384590,-75,-11,-6,2,8,-13,-6,-10
83506384590,18,6,6,2,0,-9,-8,-13
83506385215,-12,-5,-6,1,0,-21,-16,25
83506385215,29,18,7,-4,-11,17,11,23
83506407512,24,4,-6,-2,5,18,20,-4
83506407512,6,-21,-12,-5,-8,-22,-33,-7
83506408278,21,12,7,7,16,19,8,-36
83506408278,-118,-32,-3,-1,-3,-5,14,45
83506422051,87,6,-5,-2,-4,17,2,44
83506422051,-34,0,-9,-5,-8,-1,-12,-87
83506422711,-58,3,2,0,-5,-27,4,8
83506422711,-6,5,-6,0,0,-36,-14,-20
83506444577,24,7,14,3,4,13,1,8
83506444577,8,-36,-15,-9,-16,-4,11,38
83506445248,22,-6,-3,-10,-2,19,-6,-11
83506445248,9,-2,13,21,0,8,0,-4
83506467572,-15,-10,-17,-32,-3,-15,-4,-12
83506467572,-19,15,0,2,-10,-2,-4,2
83506468338,-18,-4,-1,2,-6,-18,6,6
83506468338,18,-7,-8,-5,5,26,-12,-11
83506482100,-1,26,7,11,15,41,-7,4
83506482100,-22,-12,-8,-7,-1,-51,-12,11
83506482679,35,0,5,2,-3,21,25,12
83506482679,42,4,0,0,-1,-1,-2,44
83506504359,-7,-1,11,9,6,-18,1,-44
83506504359,19,34,14,10,9,17,13,36
83506505168,-35,-8,-10,-4,-2,-18,-13,9
83506505168,34,6,1,-4,-5,15,-2,-15
83506527514,-19,-14,-10,-6,-15,-13,-14,-23
83506527514,-5,-24,-4,-4,3,-24,-17,-10
83506528302,16,2,2,2,-9,5,18,17
83506528302,-3,-1,-5,-8,1,2,-1,-29
83506541913,-14,-3,7,7,2,11,5,6
83506541913,-14,0,7,-5,5,27,3,14
83506542751,6,-4,-6,3,-6,-38,-23,-13
83506542751,-1,-3,-2,10,-3,8,-11,-42
83506564363,-27,-7,-5,-14,6,-29,1,21
83506564363,-14,6,8,2,-8,34,17,-5
83506565141,-2,-2,-4,-5,-1,-28,-15,-7
83506565141,-10,3,2,6,9,10,8,-9
83506587294,20,-1,-2,5,-12,-30,-25,10
83506587294,-17,16,5,10,10,25,20,-14
83506588050,16,-6,-7,-16,-2,4,-7,-11
83506588050,3,-4,-5,-5,-4,-10,-7,-2
83506601828,-4,8,2,-1,-2,16,0,-18
83506601828,-17,-6,-10,-10,-10,-12,-1,18
83506602627,31,2,8,15,8,38,3,-11
83506602627,-13,-2,-4,-12,-5,-46,-18,0
83506624347,5,-7,-15,4,-1,22,11,-4
83506624347,-4,-2,-10,-17,10,-10,9,1
83506625151,46,7,1,8,-22,1,9,21
83506625151,5,18,6,-4,5,-4,4,17
83506647526,-4,-33,4,3,3,14,5,14
83506647526,2,2,1,13,3,1,0,-9
83506648314,-31,-16,-4,-14,-10,-1,-7,-16
83506648314,4,1,-9,-7,-4,-5,-4,-5
83506662070,1,6,6,5,-1,-6,5,6
83506662070,36,3,-5,0,-4,-3,-1,5
83506662656,-23,-4,4,8,30,-2,-5,-1
83506662656,-7,-7,-16,-8,-18,3,3,-1
83506684504,-8,0,5,-1,-6,-4,-4,-5
83506684504,5,-5,4,-1,-4,4,-8,-11
83506685243,-6,3,-9,-4,0,-4,1,13
83506685243,-19,-7,2,1,11,2,0,-13
83506707789,29,-11,-9,-2,-4,-1,-2,-2
83506707789,-10,6,7,4,4,-6,-7,-3
83506708367,12,1,-3,-5,-26,-9,-1,22
83506708367,-51,-12,-19,-32,0,3,0,-28
83506721915,18,7,-2,6,-8,-7,-5,-11
83506721915,-6,-5,-13,-17,-3,-6,-5,-3
83506722689,-14,-3,3,8,12,6,1,-5
83506722689,28,3,23,19,0,4,0,19
83506744622,-23,-9,-27,-32,-12,-4,-2,-16
83506744622,-14,-1,10,15,2,-4,2,7
83506745207,1,-1,-6,-7,4,0,-2,-16
83506745207,15,6,11,0,-3,-3,1,1
83506768793,-28,3,-4,13,7,4,8,27
83506768793,17,-1,1,9,-1,4,1,-20
83506769718,-27,-1,4,0,1,-3,0,-21
83506769718,12,-3,10,11,1,0,3,22
83506781644,-13,0,3,5,3,-3,-4,-11
83506781644,-9,-6,-4,-8,0,3,5,19
83506789454,-7,-4,-15,-23,-5,-5,-5,-5
83506789454,-4,-4,-6,13,1,-4,-6,-24
83506804367,-19,16,11,-1,-3,5,1,4
83506804367,-9,0,-4,-11,-8,-4,-3,-2
83506805126,-5,2,10,12,4,-4,-1,-2
83506805126,17,4,-14,-27,-6,0,1,40
83506827554,-8,2,17,10,-1,-1,5,-40
83506827554,43,1,-17,-19,1,-1,6,40
83506828325,15,1,0,-2,2,3,-9,-31
83506828325,-38,-10,-5,11,0,-1,9,20
83506841204,18,3,4,3,5,2,10,19
83506841204,-12,6,3,6,4,2,6,2
83506849470,34,6,7,12,5,1,3,39
83506849470,-4,1,-1,-15,-4,3,-9,-23
83506872584,10,5,-3,-8,0,-4,-13,-1
83506872584,-32,0,3,9,-2,0,-14,-33
83506873375,12,12,-7,-16,-2,2,15,15
83506873375,26,-15,-1,4,-4,-7,2,10
83506887629,-16,-1,2,4,-4,8,-17,-26
83506887629,37,6,-9,-23,-12,-10,-5,-3
83506888394,-33,-23,2,6,3,-11,-17,-18
83506888394,-4,-7,0,-3,-2,10,21,28
83506901183,14,-6,-7,-19,-5,-18,-6,14
83506901183,4,6,1,0,0,8,11,21
83506909354,-39,-15,-4,-5,-7,4,-39,-109
83506909354,43,12,1,8,2,7,40,96
83506924585,21,2,7,0,14,-2,-10,-4
83506924585,-21,-4,-3,3,-1,7,4,-2
83506925197,-11,3,2,-3,-16,-38,-24,-5
83506925197,-2,-15,0,14,14,-4,24,-11
83506947751,10,-1,-7,-5,1,22,22,34
83506947751,11,-3,1,0,17,28,-27,-16
83506948341,21,1,4,11,14,0,52,49
83506948341,-8,1,-2,0,-20,-50,-53,-41
83506961174,34,20,5,-4,-5,-17,33,-8
83506961174,-63,-13,11,9,-3,-8,-18,-43
83506969578,8,-1,-6,-18,-8,26,9,25
83506969578,-32,2,1,5,0,3,-32,-54
83506984583,3,-1,-11,-7,-13,-21,-3,10
83506984583,12,-6,0,0,-13,1,-3,-9
83506985175,-23,5,1,1,11,1,-4,-16
83506985175,1,3,-8,-13,6,1,3,2
83507007530,-11,-8,-6,3,-9,10,-12,-6
83507007530,19,-7,0,9,6,1,23,17
83507008344,-1,-5,-4,-11,-11,-7,-3,8
83507008344,-9,3,-5,-8,4,14,8,-7
83507021153,3,-15,6,6,11,6,-7,4
83507021153,-1,-4,-1,-2,-12,-16,-9,-13
83507029339,3,-2,-4,-4,-6,-16,2,15
83507029339,18,7,-3,-1,7,25,-5,13
83507044589,13,8,8,9,0,9,0,-16
83507044589,13,0,-1,5,8,-6,11,4
83507045225,17,5,9,14,4,7,-7,4
83507045225,1,-2,-6,-9,-10,-7,-7,-21
83507068221,-1,-8,-4,-10,-1,-11,-8,7
83507068221,-10,10,2,13,13,3,7,-4
83507068781,17,3,6,7,3,8,3,12
83507068781,-11,-9,-14,-2,6,-3,-10,-17
83507081198,-15,-4,4,3,-19,0,-2,-4
83507081198,4,2,-5,-5,-12,-7,-1,0
83507089391,-7,1,2,3,4,4,3,2
83507089391,-7,1,3,8,1,3,2,-1
83507104400,-6,0,-4,-2,9,3,-6,0
83507104400,-4,-7,7,-7,-8,-1,0,4
83507105142,-8,-5,-17,-6,-5,4,2,0
83507105142,12,-1,10,3,5,2,-2,2
83507127805,-42,-5,-7,3,-4,0,-3,-14
83507127805,31,-2,-6,-6,-2,-6,-5,2
83507128389,-16,3,6,5,18,-4,-2,-7
83507128389,30,1,0,-14,-49,4,-4,-5
83507142352,-45,2,-3,-5,2,-2,5,-29
83507142352,-9,-6,1,1,0,-3,1,13
83507149538,11,-2,-2,-1,-4,-4,-13,-13
83507149538,-10,-1,-3,-10,1,-2,13,14
83507164567,10,3,1,1,3,-4,-5,3
83507164567,-2,-2,-8,-11,7,4,1,8
83507165207,1,-7,-3,-2,-4,5,3,9
83507165207,-6,-6,0,3,7,0,-2,-4
83507187799,10,0,5,-6,-7,-7,-4,-3
83507187799,-14,7,-1,14,3,-1,2,3
83507188380,4,2,4,0,-5,-4,-5,0
83507188380,-6,-2,-10,-12,-2,-4,0,2
83507201392,-3,-6,6,21,16,7,2,-15
83507201392,20,-2,-6,-15,-3,-1,0,9
83507209455,-6,-4,-2,13,-1,3,11,12
83507209455,-2,-5,1,-5,3,-2,-3,-20
83507224435,33,10,11,-1,-3,-7,1,48
83507224435,-61,-2,7,11,6,5,-3,-62
83507225158,-3,-7,-1,10,-2,3,8,3
83507225158,18,3,-8,-10,18,-2,-5,4
83507247781,4,-5,8,10,9,0,-2,3
83507247781,12,5,-3,-11,-32,-7,-3,8
83507248413,-26,4,-4,-15,-1,0,-1,15
83507248413,-19,-2,15,23,7,3,5,-12
83507270050,7,4,-23,-31,-8,-4,2,-14
83507270050,8,-8,0,8,4,-2,-16,-4
83507270868,34,14,6,12,4,5,19,14
83507270868,-26,-14,-11,-13,-7,-4,-6,-24
83507284526,-5,0,1,-2,-3,-1,-3,3
83507284526,-2,1,-9,-6,1,-5,-5,69
83507285149,-38,-7,-7,-9,-4,0,-11,-48
83507285149,-6,21,1,9,-1,0,-10,-20
83507307619,71,13,-4,-14,-6,-1,-1,43
83507307619,31,17,2,4,-1,-1,-5,-26
83507308377,-13,-11,-6,-18,-7,-12,-11,-36
83507308377,-30,-3,-4,10,6,24,49,127
83507329999,-41,-1,-9,-13,-6,-28,-33,-93
83507329999,29,-4,-1,-6,1,1,8,72
83507330880,16,16,5,9,-4,7,14,38
83507330880,20,1,6,-1,-1,-17,-31,-48
83507343816,-24,-10,-6,-7,2,7,-6,-32
83507343816,-24,-5,4,1,0,-3,4,-16
83507352819,-7,-42,-1,-3,7,3,-17,-28
83507352819,-3,-8,-4,-7,-3,-3,-8,24
83507367810,4,-15,-2,3,-6,-9,-2,9
83507367810,-27,-3,3,13,-1,-18,-76,-84
83507369266,18,4,-6,-23,-6,8,57,57
83507369266,21,8,8,13,15,7,-19,-22
83507390066,2,-7,0,1,-5,21,56,58
83507390066,30,-5,-6,-8,-1,16,-2,-4
83507391615,-29,5,11,15,-4,-33,-23,-20
83507391615,3,0,-2,-1,0,-8,-7,-11
83507403874,-15,2,-6,-4,-1,-7,-24,-2
83507403874,-7,-9,2,-2,-7,4,25,18
83507412747,8,7,-2,1,-1,-2,-13,-13
83507412747,1,-1,3,4,-1,-5,8,-5
83507427674,-5,0,2,8,2,7,-6,-6
83507427674,1,-1,-3,-12,0,-1,23,4
83507429201,4,1,-5,0,2,5,-1,2
83507429201,1,-1,-1,5,0,-4,-6,-18
83507449998,-2,-5,2,6,5,9,4,10
83507449998,-3,0,-1,-2,6,-4,9,1
83507451677,-2,2,-4,-2,-9,-3,-14,-5
83507451677,4,-2,-3,-5,-2,8,5,6
83507463841,-3,-7,3,8,-6,-6,-4,-5
83507463841,-7,2,0,-2,2,-2,6,0
83507472713,2,3,-1,0,3,4,-7,-5
83507472713,6,-5,0,-5,-1,-2,7,-4
83507487572,0,1,1,6,0,-3,0,3
83507487572,-4,-1,-1,0,2,-2,-1,-7
83507489322,3,-4,-4,-3,0,3,-2,4
83507489322,1,5,3,4,-6,-4,1,0
83507510027,-5,-2,-14,-17,-1,-5,-10,-4
83507510027,-2,-2,1,6,1,5,9,5
83507511703,0,1,1,4,2,1,-1,-4
83507511703,-1,-2,-2,-8,-3,-3,-1,-3
83507523636,-2,0,0,3,-2,-4,-7,-3
83507523636,1,-3,3,-1,3,-7,4,4
83507532762,-4,-4,-8,-10,-5,6,-1,-3
83507532762,2,8,0,0,-3,0,-2,-3
83507547628,-13,-11,-1,3,-2,-4,3,0
83507547628,-3,-1,-8,-11,-2,3,-1,-1
83507549150,10,4,3,8,1,-9,-7,-9
83507549150,-14,-2,-4,-5,-1,2,4,1
83507570133,-11,0,0,14,2,-2,-2,0
83507570133,-5,1,-2,-18,-10,11,14,2
83507571709,0,-18,-1,-7,-2,-10,-7,-2
83507571709,-6,-9,-1,5,-2,-4,0,-2
83507583699,13,7,3,4,4,18,-1,4
83507583699,-2,0,2,20,9,-6,-2,-2
83507592748,1,6,1,-15,-5,-1,-1,1
83507592748,-3,-4,-8,-9,-11,-8,-4,2
83507607584,-1,-4,-4,-14,4,-5,-10,-6
83507607584,0,-1,0,66,-3,1,6,-1
83507609170,1,4,2,46,3,-6,1,-1
83507609170,4,10,-1,-78,-19,-3,-7,-5
83507630022,2,3,8,64,11,5,10,4
83507630022,2,-3,-9,-33,-3,18,3,-9
83507631606,-8,-2,-11,2,-12,-20,-5,21
83507631606,2,1,9,50,15,4,-1,-11
83507643738,2,0,-4,-19,-14,0,-2,1
83507643738,-5,-1,2,-5,2,-6,-1,1
83507652689,0,4,5,31,11,10,-3,-2
83507652689,0,-6,1,-32,-1,-1,7,6
83507667581,6,1,1,-48,-1,-2,5,7
83507667581,-23,-9,-3,-1,-9,-9,-6,-5
83507669139,17,5,2,5,9,7,3,0
83507669139,5,-2,-2,15,3,-2,-5,-8
83507690024,-7,0,3,-1,2,-2,-3,-4
83507690024,0,-1,-6,-54,-11,-25,-9,-2
83507691594,-4,1,1,-18,3,14,3,-5
83507691594,-3,-5,-4,63,7,16,3,2
83507703734,1,-2,2,7,-8,-11,2,0
83507703734,4,3,4,-25,-3,-14,-7,-1
83507712711,-6,0,-5,15,-7,-6,-3,-7
83507712711,6,-20,-2,-9,1,-1,-5,0
83507727833,-3,-3,-5,9,1,7,1,-2
83507727833,4,1,4,60,11,0,2,1
83507729240,-6,-2,1,-19,-3,4,2,-2
83507729240,-1,5,1,2,-1,0,4,1
83507750110,-3,-1,-2,45,3,-12,-4,-6
83507750110,3,-5,-6,-3,-1,6,-5,-11
83507751721,5,3,-2,-7,-7,-6,2,9
83507751721,-1,0,-2,-34,1,-5,-6,3
83507763822,-1,-3,0,19,-2,-13,-2,-3
83507763822,7,6,0,-12,3,14,5,2
83507772723,-4,-4,-5,-17,-4,7,2,-6
83507772723,-3,1,1,33,-3,-5,-4,-4
83507787607,0,-1,-1,-13,-3,3,-2,0
83507787607,-7,-2,1,-11,3,-18,-12,0
83507789150,-1,-1,1,-2,-3,9,4,-3
83507789150,-3,-1,-5,10,0,-1,3,1
83507810069,-1,-11,-3,-10,-2,5,-2,-3
83507810069,2,1,-3,-15,-10,-2,0,3
83507811682,-2,2,5,3,7,-8,-5,-4
83507811682,1,-4,-7,-41,-9,-9,1,-3
83507823614,0,3,-1,31,4,12,2,0
83507823614,-1,-2,-1,-18,0,11,2,0
83507832707,-5,-2,0,24,5,-12,-5,-2
83507832707,-4,2,-1,-37,-14,-5,-1,0
83507847642,-1,-1,-1,-17,-1,7,1,-2
83507847642,0,-2,2,14,3,3,1,-1
83507849194,-2,-3,-4,-23,-6,-7,-4,-3
83507849194,3,1,1,18,5,11,0,-2
83507870093,-2,1,-1,-7,-6,-24,-5,-2
83507870093,0,-1,-3,2,1,28,6,2
83507871749,-4,-3,-2,-4,-2,-27,-4,-1
83507871749,-1,0,0,23,3,3,0,-2
83507883847,-1,0,-1,-25,0,-2,-15,-1
83507883847,-3,0,-1,8,-2,9,11,-2
83507900203,-2,-2,-4,-11,-5,7,-3,-3
83507900203,-1,-1,-2,4,0,23,21,1
83507907555,-1,1,-1,-17,-9,-43,-15,-2
83507907555,0,0,2,1,4,-3,-7,-2
83507909214,1,0,0,-3,3,8,-5,-1
83507909214,0,-2,0,1,-3,-10,-6,-2
83507930068,-1,-1,-2,2,-2,21,7,-1
83507930068,-2,-2,-3,-11,-4,-16,-4,-1
83507931661,-1,-1,-2,30,1,-2,0,-2
83507931661,-1,1,-3,-47,-9,3,-2,1
83507943761,-1,-1,2,19,1,0,5,-2
83507943761,-2,-3,-7,-54,-10,-12,-5,-2
83507952709,-1,-1,-1,8,1,10,4,0
83507952709,-1,-2,-3,-15,1,-7,-6,-1
83507967749,0,0,-2,-9,0,3,2,0
83507967749,-1,11,2,26,1,-8,0,0
83507969207,1,-8,0,-8,0,7,2,1
83507969207,-1,-1,0,-2,-1,-10,-7,0
83507990118,1,3,-1,-21,-3,1,0,0
83507990118,1,2,0,14,1,-8,-1,-2
83507991706,-2,2,-3,-27,-5,4,0,-4
83507991706,0,-1,1,25,4,-4,-2,-1
83508003727,-1,-3,-2,-18,-6,8,2,1
83508003727,-1,-5,0,26,4,-14,-3,0
83508012673,0,-1,0,5,3,2,-3,-1
83508012673,-1,-4,-3,16,-1,-6,-3,-3
83508026840,-3,-1,0,-1,2,8,0,-1
83508026840,16,-6,0,-8,0,-1,-1,0
83508033712,3,4,0,17,-1,-4,1,1
83508033712,-3,4,-3,4,-1,0,-2,-2
83508050042,-4,-33,-4,-12,-4,-2,1,-2
83508050042,-3,-6,-5,31,-2,-3,-3,0
83508051731,-15,-6,2,20,13,2,0,-2
83508051731,0,-2,1,-9,-12,-3,-1,1
83508063944,9,11,3,-1,0,-2,0,1
83508063944,7,-1,-2,6,-4,-1,0,-2
83508072728,-7,1,4,8,1,2,0,-4
83508072728,-17,-1,-7,-36,-3,-8,-4,9
83508087149,-3,-5,-6,-11,6,-2,1,-3
83508087149,0,-34,-1,17,0,7,1,1
83508093838,19,19,4,-23,-7,-1,0,6
83508093838,6,-2,3,21,3,-2,-3,-4
83508110069,-2,6,0,16,-1,-1,-1,-1
83508110069,-5,10,-1,-21,-2,1,-1,3
83508111711,1,-16,-5,5,0,-5,-4,-5
83508111711,2,-4,0,5,-5,-3,-2,-2
83508123877,-6,3,-2,-2,-1,1,0,1
83508123877,-10,-17,-1,-12,-1,-3,-1,-3
83508132690,-1,-2,-5,-29,-5,-2,-1,2
83508132690,-5,4,1,2,1,1,1,-4
83508146894,2,4,1,4,1,-2,-1,1
83508146894,-7,3,1,43,7,1,0,-1
83508153632,6,-6,-7,-19,-15,-5,-1,-1
83508153632,-4,-3,5,19,8,1,3,2
83508170035,4,0,-10,-92,-24,-4,0,-1
83508170035,7,16,8,65,15,1,2,0
83508171640,0,0,0,-7,0,0,-1,-1
83508171640,1,-7,-5,23,-5,-2,-1,-3
83508183793,0,1,1,-8,1,-3,-3,-3
83508183793,-6,8,1,-4,-2,0,-1,-3
83508192717,-9,-9,-11,-71,-5,-3,-2,-2
83508192717,2,2,5,60,7,-1,-3,-4
83508206932,-9,-8,-10,-61,-10,-1,-1,-1
83508206932,25,30,-1,-16,-9,-1,-4,-2
83508213707,-5,5,6,36,8,1,-2,-3
83508213707,0,-3,-4,-11,1,0,-3,-1
83508230069,2,3,2,23,-7,-1,-1,-1
83508230069,-1,15,-8,-55,-9,-2,-2,-4
83508231720,-12,15,5,11,-1,-1,0,0
83508231720,11,-19,-3,-9,4,2,-2,1
83508252521,-6,-2,3,42,8,0,-1,-1
83508252521,-5,-9,-1,-22,-4,1,-2,1
83508254134,5,4,-2,31,-5,-3,-1,-1
83508254134,-4,-2,-5,-37,-3,-2,-1,-1
83508266864,-2,9,-1,17,4,-2,-3,-4
83508266864,-10,-9,-1,-27,-6,0,0,-2
83508273737,-6,-35,-5,7,1,1,-1,0
83508273737,4,5,2,-5,-4,-1,0,-1
83508290015,5,-2,0,-17,-11,0,-2,-2
83508290015,-7,14,5,3,13,0,2,1
83508291630,2,-4,-5,3,-12,-5,-3,-6
83508291630,-4,3,-5,-60,-11,-4,-3,-1
83508312575,-12,4,6,23,10,1,1,0
83508312575,-5,-7,-3,30,0,-3,-2,0
83508314151,6,9,-4,-11,-2,1,2,0
83508314151,1,0,0,22,2,0,1,0
83508326185,2,1,-1,21,7,-1,-1,-1
83508326185,5,-13,0,-15,-7,-1,-3,-1
83508335132,-21,-10,-4,-8,-1,0,1,0
83508335132,15,19,3,-8,-3,-1,0,-3
83508350015,3,4,3,16,2,2,2,-2
83508350015,-2,-7,-4,-4,-3,-2,-2,7
83508351611,-3,-3,-4,-10,1,-1,-2,-2
83508351611,-4,-6,-4,-2,-3,0,-1,-2
83508372528,-5,-23,-5,3,-1,-3,-3,-2
83508372528,-3,2,3,0,2,0,0,-3
83508374167,6,11,0,-16,-5,-2,-1,-1
83508374167,-31,-10,-1,12,2,-4,-2,-2
83508386166,6,1,-4,11,-1,-3,-3,0
83508386166,-10,-3,-2,-9,-3,1,0,-1
83508395267,-2,-5,-6,-3,-1,11,-2,-1
83508395267,-11,3,-4,5,-4,-14,-1,-4
83508410046,6,7,1,0,-2,-4,-3,-1
83508410046,1,-4,-6,-5,-5,-3,-6,-4
83508411713,-5,4,4,5,2,3,2,-2
83508411713,9,-17,2,7,6,8,-5,4
83508432517,-2,1,-2,-5,-3,0,0,-1
83508432517,8,-7,-2,-1,-2,-5,-1,0
83508434085,5,13,5,5,1,0,2,-5
83508434085,-23,5,-3,-2,-5,-6,-2,14
83508446307,-4,-7,0,5,-1,4,-2,4
83508446307,-10,17,-1,-1,0,0,-1,-3
83508455187,0,-4,-1,0,1,-2,1,3
83508455187,13,16,2,1,-1,0,0,-8
83508470030,-5,17,1,-2,-1,-4,-4,7
83508470030,-11,-5,1,0,0,1,1,-2
83508471708,2,4,-4,-4,-2,-4,0,2
83508471708,0,-7,-2,3,0,1,0,-6
83508492982,2,-18,-6,2,2,3,3,3
83508492982,18,16,6,-1,0,1,1,-2
83508494615,5,-8,2,2,0,-6,-3,0
83508494615,5,-4,-3,-2,-2,1,1,-3
83508506200,1,-3,-1,0,0,-1,-1,-1
83508506200,-6,-15,-4,-3,-3,-4,-1,0
83508515135,-9,-9,-1,0,0,-3,-3,-1
83508515135,3,10,0,1,-1,1,0,-2
83508530109,-9,-18,-4,-3,-1,-2,-2,-7
83508530109,-2,-13,-5,-5,-3,-2,-1,-4
83508531688,3,5,0,2,1,-1,-1,1
83508531688,-6,1,-5,-4,-1,-1,0,-4
83508552531,0,7,0,3,1,-1,1,-2
83508552531,-6,-9,-2,-3,-2,0,0,-2
83508554127,-2,-9,-3,-2,-2,-1,-2,1
83508554127,11,-6,-1,3,0,-1,-1,-2
83508566198,8,-10,-4,0,0,0,-1,-2
83508566198,7,21,4,4,3,0,2,2
83508575164,-9,-18,4,0,-2,-2,-3,-2
83508575164,-16,1,1,1,1,-1,-2,4
83508590056,4,6,0,-5,-1,0,-2,1
83508590056,-4,-5,-3,-2,-2,-1,-2,-1
83508591643,-5,-1,-3,-1,-1,-3,-3,0
83508591643,4,-5,-1,-1,0,-1,-2,-3
83508612496,-6,0,1,0,-3,0,3,-3
83508612496,-13,-4,-6,-3,-4,-3,-2,-1
83508614161,6,6,1,0,1,0,0,-4
83508614161,-2,-5,-1,-4,-3,-1,-2,-1
83508626202,2,-15,1,1,2,0,-2,-1
83508626202,2,-9,-2,-4,-4,-1,-1,-1
83508635227,2,14,0,1,1,-2,-1,-1
83508635227,4,-11,-2,-2,-2,-2,-1,-2
83508650034,-1,12,2,0,0,0,-1,-1
83508650034,-4,-3,-1,0,-1,0,-3,-2
83508651626,7,7,-1,-2,-1,-1,-1,-1
83508651626,-1,3,-2,1,0,0,0,2
83508672558,2,9,-2,-6,-2,-2,1,-1
83508672558,-1,-11,-1,0,-1,-1,-1,0
83508674166,24,5,0,-1,-2,-2,-3,-10
83508674166,1,1,-3,1,-3,-1,-1,0
83508686201,-7,-2,0,0,-2,-1,-1,-2
83508686201,6,0,2,-1,0,-2,-1,1
83508701201,-4,6,-1,-1,-2,0,0,-1
83508701201,-13,-21,-4,-2,-3,-2,-2,-3
83508710061,1,2,-3,-1,-1,-1,-2,-2
83508710061,-10,-1,-3,-2,-2,-1,-2,-5
83508711718,-2,-13,-5,0,-1,-1,-1,-1
83508711718,5,4,2,0,-1,1,-1,-2
83508732607,-5,20,-1,-1,0,-1,0,0
83508732607,-8,-36,-6,-1,-2,-2,0,-2
83508734140,-4,-7,0,0,0,-1,1,1
83508734140,6,10,2,-1,0,1,0,0
83508746224,-1,-7,-5,-1,-3,-1,0,-1
83508746224,5,10,1,-1,0,0,-1,0
83508755151,-4,-4,0,-1,-1,-1,-2,1
83508755151,5,3,-1,0,0,-1,-1,0
83508770019,-5,-2,1,1,-1,-2,0,-3
83508770019,-3,1,-2,0,-2,-2,-2,-1
83508771632,-6,-29,-4,-3,-2,-1,-1,1
83508771632,0,7,-1,-1,-1,-3,-1,-3
83508792531,-4,-5,-3,-2,-3,-2,-3,-3
83508792531,18,13,2,0,0,0,-1,2
83508794151,-25,2,0,-1,0,-1,-1,-3
83508794151,5,6,-2,-1,-2,0,0,-1
83508806209,8,-2,-3,0,-2,0,-1,-2
83508806209,-12,2,-2,-1,-2,-3,0,-2
83508815201,4,-11,-1,0,-1,0,-2,0
83508815201,-5,-14,-2,-1,-2,1,-2,-2
83508830020,-16,8,0,-1,0,-1,-2,0
83508830020,-6,-23,-3,0,-1,0,-2,-1
83508831637,3,22,1,1,-1,-1,0,-7
83508831637,3,-7,-2,-3,0,-1,0,4
83508852578,5,-9,-1,0,-1,-2,-2,-1
83508852578,0,26,0,-2,-2,-2,0,-2
83508854195,-7,-7,-2,1,-1,1,0,1
83508854195,-7,-2,1,2,1,-2,0,-3
83508866146,18,13,4,0,-1,-1,-1,1
83508866146,-9,3,-4,-3,-2,-2,0,-1
83508875188,0,3,0,-2,-3,-2,-2,-2
83508875188,-2,3,-2,-2,-1,-1,-2,-1
83508890065,-7,-11,-2,0,1,-1,-3,-3
83508890065,3,-3,0,2,-1,0,-1,1
83508891725,6,17,1,-1,-1,-2,0,1
83508891725,0,-15,-8,-3,0,-4,-2,-3
83508912597,11,-3,0,-1,-1,0,0,-2
83508912597,16,11,4,0,-1,0,0,0
83508914098,-9,2,0,-1,-1,-1,1,3
83508914098,-2,16,2,-1,-2,0,-1,-2
83508926181,-4,-15,-2,-1,-1,-2,0,-1
83508926181,2,-13,-4,-2,-2,-3,-3,-1
83508935213,2,-6,-2,0,0,-1,-2,4
83508935213,-6,4,1,4,1,-2,-1,-4
83508950052,-8,-6,-9,-7,-2,0,3,-1
83508950052,-4,5,0,-2,0,-1,1,-1
83508951724,3,-3,0,-3,0,0,-2,-1
83508951724,0,-5,-2,1,-1,-2,-1,1
83508972517,-13,26,3,1,-1,-2,-3,-2
83508972517,-8,-21,-6,-1,-2,-1,-1,-1
83508974142,11,16,2,0,1,-1,0,-1
83508974142,1,-10,-3,-4,-2,1,0,0
83508986147,-16,-15,-3,0,0,-3,0,0
83508986147,-3,3,0,-1,-1,-1,0,-2
83508995154,-11,-7,0,-1,-1,-1,-2,-1
83508995154,5,6,2,-1,0,0,1,-1
83509010067,7,-1,-4,-3,-1,-1,-2,-1
83509010067,-2,-1,0,-2,0,-1,-1,-2
83509011762,-11,-14,-4,0,0,-2,0,-1
83509011762,0,5,-1,-3,-1,-1,-1,-2
83509032563,3,-3,-1,0,-2,0,-1,-1
83509032563,-11,-12,-3,-4,-1,-1,-1,-2
83509034166,8,9,-3,-3,-2,-1,-2,-11
83509034166,8,1,-2,-3,-1,0,-1,6
83509046172,6,-6,0,2,-2,-1,-2,1
83509046172,-9,-2,-2,-2,0,0,-3,1
83509055197,15,-3,-3,-3,-4,-3,-1,0
83509055197,-3,3,1,0,-1,-1,-2,-4
83509070032,1,-4,2,0,-2,-1,-1,-2
83509070032,-14,-1,-8,-2,0,0,0,-1
83509071714,1,-7,-2,-1,0,0,-1,1
83509071714,3,19,0,-1,-1,0,1,0
83509092537,-6,-6,0,-1,0,-1,-2,0
83509092537,2,0,3,2,0,0,-2,0
83509094102,6,14,-5,-6,-1,0,-2,0
83509094102,-4,-51,-4,-2,-3,-3,-3,-1
83509106262,-17,3,1,2,2,1,0,-1
83509106262,5,8,-2,0,-3,-4,-1,-1
83509115175,1,4,1,0,-2,-2,1,1
83509115175,2,33,1,-1,0,-3,-2,-1
83509130025,3,1,-3,-5,-2,-1,-1,-2
83509130025,7,-2,3,2,2,0,-2,2
83509131710,8,-11,-1,1,-2,-1,-2,1
83509131710,-4,5,1,-2,-2,-2,-2,-3
83509152495,8,6,-5,-1,-2,-1,1,-1
83509152495,-4,19,1,-2,-1,-1,-1,-2
83509154137,-1,-3,-2,-1,-1,0,-1,-2
83509154137,-4,4,1,0,-1,0,-1,-1
83509175040,3,-33,-5,-1,-1,-2,-2,0
83509175040,5,0,-1,-2,-2,1,1,-1
83509176716,-5,-3,-4,-3,-4,-4,-4,-2
83509176716,-8,-12,-3,-1,1,2,3,1
83509190085,-1,9,3,0,-1,0,0,1
83509190085,0,-5,-3,-2,-1,-2,-2,-3
83509191715,-12,-11,1,1,1,0,-1,0
83509191715,-5,-4,-5,-1,-1,-2,-1,-3
83509212985,9,6,2,1,-2,-1,-2,-1
83509212985,-2,-8,-1,0,0,0,-1,0
83509214597,12,9,0,-2,-1,0,1,0
83509214597,-1,3,2,0,-1,0,-2,-2
83509235035,-7,7,-4,0,-2,-2,-2,0
83509235035,0,-17,0,0,-1,0,0,-1
83509236695,-8,0,-6,-4,-4,-1,-2,0
83509236695,-4,-9,-1,1,0,-1,2,-2
83509250042,-3,3,1,0,-1,-1,1,-4
83509250042,-16,-27,-5,-4,-4,-4,-2,-5
83509251681,-2,4,0,-1,0,0,0,0
83509251681,-6,-9,-2,-2,-2,-1,-4,-1
83509272557,-7,-23,-2,0,1,-1,-1,0
83509272557,24,16,3,1,-2,0,-1,0
83509274173,5,-7,-3,-1,-1,-2,0,-1
83509274173,-10,-9,-2,0,-2,-2,-1,-2
83509295033,-1,4,-2,-1,-2,-1,-1,0
83509295033,-5,6,-1,-1,-1,-1,-1,-1
83509296700,-7,-29,0,3,0,-1,0,0
83509296700,-1,18,-2,-2,-1,-2,-2,1
83509309469,1,4,-1,-1,-1,-1,-1,-2
83509309469,2,-2,-2,-1,-1,0,0,0
83509316153,-41,0,-4,-1,-3,-1,-1,-4
83509316153,15,5,2,0,-2,-1,0,-5
83509332530,4,4,0,-2,-1,0,-2,7
83509332530,-8,-8,-1,-3,-2,-2,-1,-1
83509334136,1,0,2,0,-1,-1,0,-2
83509334136,-3,-6,-4,-2,-2,-1,-1,-1
83509355038,1,13,1,-1,0,-2,1,-1
83509355038,10,-20,-2,-1,0,0,-2,-1
83509356705,-1,6,1,1,1,-2,-1,0
83509356705,3,5,3,-1,0,0,0,-3
83509369395,-1,-23,-6,-4,-1,-2,-1,-4
83509369395,1,14,2,-1,-1,-1,-1,1
83509376161,8,8,2,-2,0,-1,0,0
83509376161,6,-4,-1,-1,-1,-1,-1,3
83509392571,14,16,5,3,0,0,0,-1
83509392571,2,13,0,1,1,0,2,0
83509394133,-5,0,-4,-1,-2,0,-2,-1
83509394133,0,0,-1,1,-1,-2,-2,-1
83509415058,6,4,-3,-3,-2,-1,-2,0
83509415058,-11,-5,-1,2,0,0,-2,-1
83509416704,12,3,1,0,1,-2,-1,0
83509416704,6,1,-2,-2,-1,-1,0,1
83509429421,-14,-33,-4,-1,-2,0,1,-7
83509429421,1,2,-1,-2,-2,-1,-1,2
83509436184,-6,8,-1,-1,-2,0,0,-1
83509436184,-2,-13,1,-2,-3,-3,-2,0
83509452530,-8,6,-5,-2,-3,-1,-2,-2
83509452530,16,20,4,-1,0,0,-1,-2
83509454172,9,0,-2,-1,-1,0,0,-1
83509454172,-6,12,1,-1,0,0,-1,-2
83509475047,1,5,0,-3,-1,-3,-3,0
83509475047,-6,-6,-1,0,-1,-2,-2,-1
83509476624,1,-7,-3,-1,-2,-1,-1,-2
83509476624,-3,-1,0,-1,0,-1,0,0
83509489412,-7,1,-3,-2,-1,-1,-2,-2
83509489412,-4,0,-3,-1,-2,-4,-1,-1
83509496191,1,-2,-1,-1,1,-1,0,-3
83509496191,-4,-6,-5,0,0,1,-3,-2
83509520048,-14,13,-2,-1,-2,-1,-2,-2
83509520048,-15,-3,4,0,0,-1,0,-2
83509521718,-4,-4,1,-2,-2,1,-2,-1
83509521718,-6,-4,-1,-1,1,-3,-1,-2
83509535021,7,2,0,-2,1,-2,-2,-1
83509535021,-7,-3,-5,-4,-2,-1,-2,-4
83509536710,-4,-4,-2,-1,-2,-1,1,0
83509536710,-3,0,-1,-1,-2,-1,0,-1
83509549356,-1,-1,1,0,2,0,-2,-2
83509549356,-5,-8,-5,-2,-1,-2,-2,0
83509556170,7,21,2,1,1,-2,-2,-1
83509556170,5,3,-1,0,0,-2,-2,-1
83509572532,-16,-26,-4,0,-2,1,-1,-2
83509572532,-10,-37,-6,-3,-4,-1,-3,-4
83509574110,-18,-5,-5,-5,-2,-2,-3,-3
83509574110,-1,6,1,-1,-1,0,0,-2
83509594138,27,2,0,0,-1,-2,1,0
83509594138,3,21,3,2,0,0,-1,-2
83509602706,-9,-22,-4,0,-1,-1,-2,-3
83509602706,10,-9,-6,0,-2,-2,-3,-11
83509609385,-5,-3,0,-4,-3,-1,0,4
83509609385,4,0,-3,0,-2,-1,1,1
83509616179,2,-2,3,1,1,-1,0,3
83509616179,-5,-4,-2,-1,-1,-1,-1,0
83509632566,-1,11,2,1,0,0,-1,-2
83509632566,3,8,0,-1,1,1,-2,1
83509634187,3,-20,-4,-2,-1,-2,0,-2
83509634187,-6,-23,-3,-3,-2,-1,-1,2
83509655022,-7,-2,-1,-2,-3,-2,-2,-2
83509655022,-3,3,2,2,0,-1,-1,1
83509656641,-1,5,-2,-3,-3,-2,-3,-1
83509656641,-7,5,-2,-4,-3,-1,-2,0
83509668704,-3,0,-2,-3,-1,-2,-2,-2
83509668704,-5,4,1,-2,0,-1,0,-3
83509677718,4,15,-1,-1,0,-1,-1,-2
83509677718,-1,0,1,0,1,0,-1,1
83509692521,5,12,1,1,0,0,0,-1
83509692521,-12,-12,-6,-4,-2,-2,-3,-3
83509694163,0,8,0,0,-1,-2,-1,-2
83509694163,-5,3,0,0,-1,0,-1,1
83509714984,-3,-4,-1,1,-1,-1,0,-3
83509714984,13,20,-2,-1,-1,0,0,1
83509716623,-11,-8,-1,-2,0,-2,-3,-1
83509716623,7,2,0,-2,-2,0,0,0
83509728731,-3,3,0,-2,-1,-3,-1,-1
83509728731,5,2,-2,-2,0,-1,1,-1
83509737754,0,18,2,2,-1,-1,-2,-1
83509737754,13,-12,-3,-3,-1,-1,-1,1
83509752507,3,2,1,0,1,-2,-2,-2
83509752507,7,2,-1,-3,-3,0,-2,0
83509754091,-5,-12,-2,-2,-1,1,-1,2
83509754091,-4,-2,-1,1,1,0,0,-1
83509775041,0,-2,-4,-2,-1,0,0,0
83509775041,0,-29,-2,-2,-1,-1,-1,-2
83509776721,-11,-5,-1,-1,-2,1,0,-1
83509776721,5,10,-1,0,-1,0,-2,0
83509788732,-3,-10,-2,1,-1,-1,0,0
83509788732,-3,0,0,0,-1,-1,0,-1
83509797685,8,-1,-1,-1,-1,0,0,-3
83509797685,-7,-2,-1,-1,1,-3,0,0
83509812463,-15,3,-2,0,-2,-2,-1,-2
83509812463,7,1,0,-1,-1,-2,0,1
83509814107,18,-8,0,-1,0,1,-2,0
83509814107,1,33,2,1,0,1,-1,0
83509842537,1,-11,-1,-2,-1,0,1,-2
83509842537,-6,1,-3,0,-1,-1,0,1
83509844134,3,-6,-2,-2,-3,-2,-2,0
83509844134,-6,1,-1,-1,-2,-1,0,-1
83509848689,-1,0,-2,-2,-2,-1,-1,1
83509848689,21,6,0,0,-1,1,-1,2
83509857711,-5,4,0,-2,-1,-3,0,-3
83509857711,-8,-15,-4,0,-1,-2,-1,-2
83509872535,1,13,-2,1,-2,-1,-1,0
83509872535,-6,-16,-2,-4,-2,-2,-2,-2
83509874115,7,-1,-3,-2,-2,0,-1,-1
83509874115,-5,-2,-1,0,0,-1,0,-1
83509895015,1,-2,-2,0,0,-1,0,-2
83509895015,-5,8,-1,0,-1,-1,-2,-1
83509896620,20,-2,-1,0,-2,-1,-1,1
83509896620,-11,-23,-1,-2,-2,-2,-1,-2
83509908659,2,-3,-2,-1,-1,0,-2,-2
83509908659,-7,-2,0,-1,-1,-2,0,-3
83509917714,-7,4,-1,-2,-2,-1,-1,-3
83509917714,0,1,-1,0,-1,1,-2,-2
83509932547,2,1,1,0,1,-1,-2,-1
83509932547,-11,-14,-5,-4,-3,-3,-3,-3
83509934173,12,21,0,0,0,-1,0,2
83509934173,-6,9,0,-1,-2,1,0,0
83509955024,-1,-25,-1,-2,-2,-1,-1,1
83509955024,-2,5,0,0,-1,-1,-1,0
83509956583,-10,2,2,0,0,-1,1,-1
83509956583,-11,0,-4,-1,-1,-2,-1,-2
83509968737,-1,0,-1,-1,0,-1,-3,-1
83509968737,7,3,1,0,-1,-3,-1,-1
83509977710,-13,-10,-1,-2,0,-1,-2,-2
83509977710,9,-5,-2,-1,-2,-2,0,-2
83509992551,-9,-5,-1,-2,-2,-1,-1,-2
83509992551,0,7,2,0,-1,-1,-1,-1
83509994224,-2,-5,-2,0,-2,0,-1,-1
83509994224,12,12,-3,-3,-1,-2,-2,-2
83510015031,20,15,1,1,0,0,1,3
83510015031,-1,10,0,1,1,-1,0,0
83510016690,-8,-22,-2,-2,-1,-1,-2,-3
83510016690,10,22,2,-2,-3,-1,-2,0
83510028668,-15,-36,-3,0,0,-2,0,-4
83510028668,-1,-6,-2,-1,-2,-1,-2,0
83510037718,-1,5,-1,0,1,-1,-2,-1
83510037718,-4,-8,0,1,-2,-2,0,0
83510052549,-3,5,-1,-5,-2,-1,-1,-2
83510052549,-5,-7,-3,-3,-1,-1,0,-2
83510054159,23,-1,-2,-3,-2,-2,-1,-1
83510054159,-12,-7,1,2,-1,-1,-1,-2
83510075011,-1,8,0,-1,0,-1,-2,-1
83510075011,-3,-1,-3,-2,-2,-1,1,-3
83510076610,1,4,0,-1,-2,-1,0,1
83510076610,5,-3,-2,-2,1,-1,0,-1
83510088611,0,8,-2,-1,-2,-3,-1,-1
83510088611,-11,-6,-5,-3,-2,-1,-2,-3
83510097663,-12,2,-2,-2,-2,-2,-1,-2
83510097663,14,-6,-4,-4,-3,-3,-3,-1
83510112510,-6,6,4,3,1,0,2,0
83510112510,-6,-10,-2,0,-1,-1,-2,-3
83510114164,-2,15,0,0,-2,-1,-1,-1
83510114164,0,-5,-1,0,0,0,0,1
83510135009,2,-8,-4,-2,-2,0,-2,2
83510135009,3,10,1,-1,0,-1,-1,0
83510136607,-6,-3,-1,1,1,-1,-2,1
83510136607,3,-3,0,-2,-1,-1,-1,-3
83510157528,-14,14,-1,-1,-1,-1,-1,-3
83510157528,0,-21,-1,-1,1,0,0,-1
83510159176,0,-9,-2,-2,0,0,-2,-2
83510159176,-14,-7,-3,-3,-3,1,-2,0
83510172538,7,6,0,-2,-1,0,0,-2
83510172538,1,4,-1,0,-1,0,0,-1
83510174118,-7,-3,-3,-2,-2,-3,-2,-2
83510174118,-10,-9,-2,-1,-1,0,0,1
83510195013,0,-12,-5,-2,-2,-2,-1,-2
83510195013,0,16,1,0,0,-1,-1,-2
83510196593,-2,-5,1,-2,-2,-2,0,0
83510196593,-2,11,1,-1,0,-3,1,-1
83510217501,5,11,0,-1,-2,1,-1,-1
83510217501,4,-7,0,0,0,0,-2,-1
83510219153,18,5,1,-1,-2,0,-1,1
83510219153,-12,1,1,-1,0,-1,-1,1
83510232542,14,5,0,0,-2,-2,-2,-2
83510232542,-5,5,0,0,-3,-1,0,0
83510234121,10,-33,-3,-1,-2,0,0,-1
83510234121,3,4,0,1,-1,-1,-2,-2
83510254973,-4,-4,-1,-2,-2,-1,-2,-2
83510254973,1,4,2,1,0,-1,-1,0
83510256614,18,2,-4,0,-3,-2,-2,0
83510256614,-1,-8,-1,-4,-1,0,-2,-1
83510277557,-1,-7,-1,-2,0,-1,0,2
83510277557,5,0,-1,-5,-3,0,-2,-1
83510279135,-18,0,0,0,0,0,-1,-3
83510279135,-1,-6,-1,1,0,-2,-1,-1
83510291850,-2,3,-3,0,-3,-1,-2,-1
83510291850,1,-1,-2,0,1,-2,-2,0
83510298641,-10,28,1,-1,-1,-1,0,-2
83510298641,-1,-3,-1,-2,-2,0,-1,-1
83510315012,-5,-7,-6,-5,-3,-3,-3,-2
83510315012,0,-2,-3,-3,-1,0,1,0
83510316659,-9,-1,0,-3,1,-1,-2,-1
83510316659,-3,-5,-2,0,-2,-2,-2,-1
83510337553,-3,18,3,2,1,1,-1,-2
83510337553,-5,-3,1,0,-2,-2,-3,-1
83510339210,-3,1,-3,-1,-1,0,-1,-2
83510339210,0,-1,-1,-3,-2,-2,-1,-1
83510351869,2,-4,-1,-1,-1,1,-2,-1
83510351869,-9,-19,-2,-4,-2,-1,-2,-2
83510358662,-7,16,0,0,-1,1,-1,0
83510358662,-18,-16,-6,-2,-2,-3,-2,-5
83510374128,-1,-5,-1,-1,0,0,1,-1
83510374128,3,2,-2,-1,-2,-2,-1,0
83510382700,4,-8,0,-2,-1,-3,-1,0
83510382700,-2,-26,-5,-1,0,-1,-1,-2
83510397556,0,0,-1,-2,-1,-2,-1,-2
83510397556,2,3,-1,-2,-1,0,-1,-1
83510399088,5,-7,0,-2,-1,0,-3,0
83510399088,3,-8,0,2,0,-1,0,-1
83510411827,-4,-7,-1,-3,-1,0,-2,-1
83510411827,-1,-22,-5,0,-1,-2,-1,-1
83510418697,-8,-4,-2,1,-1,-1,0,-1
83510418697,5,13,1,0,0,1,-1,1
83510435040,-4,-3,-2,0,-1,-1,1,1
83510435040,-15,12,0,-2,-1,-1,1,0
83510436714,-5,-2,-1,0,1,0,-2,-2
83510436714,6,7,0,-2,-2,-1,-1,0
83510457520,16,-7,-2,1,-1,0,-1,1
83510457520,-20,2,-1,-3,-2,-1,-3,-4
83510459087,-1,-2,2,0,-1,-1,1,-1
83510459087,0,11,0,-3,-2,-2,0,-1
83510471870,-7,-8,-3,-1,-2,-3,-1,-2
83510471870,4,18,0,1,-1,-2,-1,-2
83510478683,-4,-6,-2,-2,-1,-1,-1,-2
83510478683,-1,-26,-3,-1,-1,0,-3,-2
83510495005,7,13,2,-1,0,1,0,1
83510495005,-11,7,2,1,0,0,0,0
83510496616,-14,-2,-3,-2,0,-1,0,0
83510496616,-1,5,2,0,1,0,-1,-2
83510517535,-9,-8,0,-1,0,-1,-1,-1
83510517535,22,-2,-2,-1,0,-1,-1,0
83510519177,11,-6,0,-2,-1,-1,1,1
83510519177,-10,7,0,-2,0,-3,-1,-2
83510531873,-5,-3,-1,1,1,-1,0,-1
83510531873,6,-20,-1,-2,0,-2,-1,-1
83510538658,-3,-1,-4,0,-2,-1,-2,-2
83510538658,11,8,1,0,-2,0,0,0
83510555003,-2,-5,-1,-1,-2,-1,-3,-1
83510555003,2,-1,-2,-1,-1,-1,0,0
83510556596,-2,-1,-1,-2,-2,-1,-1,-2
83510556596,-1,1,2,0,-1,-3,-2,-2
83510577561,-4,-17,-4,-2,0,-1,-2,-2
83510577561,1,-2,-1,0,-2,-1,-1,-2
83510579155,-2,16,-3,-2,-2,0,-3,-3
83510579155,6,16,3,2,-1,-2,-1,-2
83510591849,-13,1,-6,-5,-2,-3,-3,-3
83510591849,-1,8,-1,-2,-3,-2,-2,-3
83510598706,-5,-3,3,-1,0,-2,0,-3
83510598706,5,1,-4,-1,-1,0,1,-1
83510615012,-4,6,-1,1,-2,-2,0,2
83510615012,8,0,-2,-1,-1,-1,0,1
83510616744,-25,-8,-4,-7,-2,-2,-2,1
83510616744,5,-9,-2,0,-3,0,0,-1
83510637507,-4,-3,1,-2,0,0,-1,-1
83510637507,-1,2,1,1,0,-2,-2,-1
83510639118,4,14,2,0,2,-1,0,-1
83510639118,17,-6,-4,-1,0,0,0,2
83510651189,2,9,2,1,-2,-1,0,-2
83510651189,-8,-10,-3,-2,-1,-3,0,-2
83510660181,2,-3,1,0,-2,-2,-2,0
83510660181,-5,-1,-1,-3,0,-2,-1,-1
83510675012,7,2,-2,-2,0,0,0,-2
83510675012,-6,0,0,0,-1,-1,-1,-1
