timestamp,emg1,emg2,emg3,emg4,emg5,emg6,emg7,emg8
59938389136,-1,-2,1,1,-1,-3,-2,-2
59938389136,0,-1,-2,0,1,-3,0,-2
59938390720,0,-2,1,-1,0,-2,1,0
59938390720,-1,0,-3,-2,-1,0,-2,-1
59938411651,-1,-2,-2,-2,-3,-1,-1,-4
59938411651,-1,-2,-1,-1,-1,-1,-1,-2
59938413251,-1,0,-2,-3,-2,-1,0,0
59938413251,-1,-2,-1,0,-1,-1,0,-2
59938425254,-1,-2,0,-1,-1,-1,0,1
59938425254,-1,-1,-2,-2,0,-1,-1,0
59938434324,-2,-1,-1,0,-1,-1,-2,-2
59938434324,1,-1,-2,-1,-1,-2,-1,0
59938448434,-1,-1,-1,-1,1,-2,-3,-1
59938448434,0,1,0,-2,-1,-1,0,-2
59938455279,-1,0,0,-2,-1,-1,-1,0
59938455279,-1,0,0,-1,-2,0,-1,-2
59938471611,0,-1,-2,0,0,-1,-2,-1
59938471611,-1,-2,0,0,-1,-1,-3,-1
59938473234,-2,-2,-2,-1,-2,1,-1,-2
59938473234,-2,0,-1,0,-2,0,-1,0
59938494166,-1,1,-1,-1,1,0,0,0
59938494166,-1,-1,-3,-2,-1,1,-3,0
59938495743,0,1,-1,-1,-1,-1,0,0
59938495743,-1,-1,1,0,-1,-2,-1,-2
59938509116,-3,-1,0,-2,-1,0,0,-2
59938509116,-1,-1,-1,-2,-1,-1,0,-1
59938510736,-2,-1,-2,-1,1,-1,-3,0
59938510736,0,-2,-2,0,0,1,0,-1
59938531793,-1,-2,-2,-1,-3,-1,0,-1
59938531793,-2,0,1,1,-1,-1,-2,-1
59938533312,1,-1,-1,-1,0,-1,-1,1
59938533312,-3,0,-1,-2,-1,0,0,-1
59938554293,-1,0,-1,1,-3,-1,-1,-3
59938554293,-1,-1,0,-1,-2,-1,0,-1
59938555803,0,0,-2,0,-1,-1,-2,-1
59938555803,0,-2,0,-2,-1,-1,0,-1
59938569396,0,-1,-1,0,2,-1,-1,0
59938569396,-1,-2,-1,-2,-2,-1,-3,0
59938570810,-1,2,-2,-3,-2,-1,0,-2
59938570810,-1,0,0,0,-2,-2,-1,-1
59938591588,-1,-1,-1,-1,-2,-2,-1,-1
59938591588,1,-1,1,0,0,-1,-1,-1
59938593209,0,-2,0,-2,-1,0,-1,-1
59938593209,-1,-2,-2,-2,-1,-1,-2,-2
59938614130,-3,0,0,-3,-2,0,-1,1
59938614130,-1,0,-1,0,0,-1,-2,-3
59938615754,-1,-2,-1,-2,-2,-2,-1,-2
59938615754,-1,0,-2,0,0,-2,0,-1
59938628582,0,0,1,-2,-1,-2,-1,-2
59938628582,-1,-1,-1,0,-2,-2,0,-2
59938635464,-1,-2,1,1,-1,-2,0,0
59938635464,-3,-3,0,-1,-2,-2,-2,-1
59938651627,-3,-1,-3,-2,-1,-1,-2,-1
59938651627,-2,0,-2,-2,-2,-1,0,-1
59938653172,0,-2,-1,-1,0,-1,0,-2
59938653172,0,0,-3,-2,-2,0,-1,-1
59938674229,0,-2,-3,-1,-1,-1,-1,-2
59938674229,0,-2,0,0,-1,-1,-2,0
59938675808,-1,-2,-1,-2,-1,-2,-3,-1
59938675808,-2,0,-1,-1,-4,-1,-2,-1
59938688444,0,-1,0,-2,-2,-2,-1,-2
59938688444,0,-1,0,-2,-1,-1,0,-2
59938695234,-2,-1,-2,-1,-2,-1,0,-1
59938695234,-2,0,0,-1,-1,1,-2,0
59938711635,-2,-1,1,0,-1,-2,1,-1
59938711635,-1,-2,0,-1,-1,-2,0,-1
59938713182,-1,1,-1,-2,-1,-1,-3,-1
59938713182,0,-2,-2,0,-2,-2,0,-1
59938734029,0,-1,-1,-1,0,-2,-1,-1
59938734029,0,-1,-2,1,-1,0,-1,0
59938735641,-2,-1,-2,-2,0,1,0,-1
59938735641,-3,0,-1,0,-1,-1,0,-1
59938748406,-3,-3,-1,-1,0,0,-2,-3
59938748406,-2,-2,0,-2,0,-2,-2,-1
59938755187,0,-2,0,1,-1,-2,-3,-2
59938755187,0,-1,0,-1,0,-3,-2,0
59938771573,0,0,-2,1,-1,0,0,0
59938771573,-2,-2,-1,-1,-1,-2,-1,-1
59938773198,-2,-2,-3,-1,-1,-2,0,-2
59938773198,1,-3,-2,0,-1,-1,0,-2
59938794083,1,1,0,-3,-2,-1,-3,0
59938794083,0,0,-1,-2,1,-1,-1,-2
59938795712,0,0,-1,-1,-2,0,0,2
59938795712,-2,-1,-1,-1,-1,0,-2,-1
59938808642,-1,-3,-1,-1,-2,0,-1,0
59938808642,-1,-1,-2,-2,-2,-1,0,-1
59938815375,-1,-1,0,-1,-1,-1,-1,-4
59938815375,0,-1,-1,-1,-2,-3,0,-1
59938831828,-1,-1,-2,0,-2,0,1,0
59938831828,-1,0,-1,-2,-1,-3,-1,-1
59938833284,0,-3,-2,-1,-1,0,0,0
59938833284,-2,0,-1,-3,-1,-1,-1,-3
59938854164,0,-3,-1,-1,0,0,0,-2
59938854164,0,-2,-2,-1,-1,0,-2,-1
59938855788,-2,0,0,-2,-1,-1,-1,-1
59938855788,-1,-1,-1,-1,0,0,-2,1
59938868724,-1,-1,-2,-1,-1,-1,0,0
59938868724,1,-1,-1,-1,1,-2,-1,-3
59938875474,0,-1,-2,1,-2,-2,-1,-1
59938875474,-1,-3,-1,-1,-2,2,-2,0
59938891800,-1,-1,-1,-2,-1,0,-1,-4
59938891800,-1,-1,1,-1,-1,1,-1,-1
59938893292,-1,1,-2,0,-1,-1,-2,-1
59938893292,0,0,-1,-2,1,-3,0,-2
59938914386,-1,-2,-1,-2,-3,-1,-2,1
59938914386,-1,-1,-1,-1,-3,-1,-1,-3
59938915787,-1,-3,-2,-1,-2,-1,0,-1
59938915787,0,0,-2,0,0,-1,0,0
59938928695,-1,-2,-1,0,-1,0,-3,-2
59938928695,-2,-2,-1,-1,-1,-1,-1,0
59938935364,-1,0,-2,0,-1,-3,0,0
59938935364,-1,-2,0,-3,-2,0,1,-3
59938951841,1,-1,0,0,-1,-1,1,-1
59938951841,0,1,-1,-1,-1,-1,-1,1
59938953317,-1,1,0,-1,-1,-2,0,-1
59938953317,-1,-2,-2,-1,-2,0,-1,-2
59938974259,1,0,0,-3,-1,-2,-2,0
59938974259,-2,-2,0,-1,-1,0,1,0
59938975811,-1,-1,1,-1,-1,0,-3,-1
59938975811,-2,0,0,-1,-2,-2,-1,0
59938988024,-2,-2,-2,2,-2,0,-1,0
59938988024,-1,-1,-1,1,0,-1,-1,0
59938996808,-1,-1,-1,-2,-1,-2,1,-1
59938996808,-1,-1,-1,-1,0,-2,-2,-1
59939011734,-1,-1,-1,-3,0,0,-1,-2
59939011734,-2,-2,-1,0,-1,0,-1,-1
59939014187,-1,0,0,1,-1,-2,-1,-1
59939014187,-1,-1,0,-1,-3,0,-1,0
59939034365,-1,1,-2,-2,0,-2,0,-1
59939034365,-1,-1,-3,-2,-1,-1,-1,-2
59939035792,0,-3,-1,-1,-1,0,-1,-1
59939035792,-2,-2,-2,-1,1,-2,-1,1
59939047810,-3,-1,0,-2,-2,-1,-1,-1
59939047810,0,-1,0,0,-2,-2,-2,-1
59939056761,-1,-1,0,-1,-1,-1,-1,-2
59939056761,-1,-1,0,-2,-1,-1,-3,-1
59939071878,-2,-2,-1,-1,-2,0,-1,-3
59939071878,-3,0,0,-1,-2,-2,0,1
59939073330,-3,-2,0,0,-1,-1,0,1
59939073330,-2,-1,0,-1,-1,0,-2,-2
59939094412,-1,-1,-4,0,-1,-1,0,-2
59939094412,-1,-2,-1,-2,-2,0,0,-2
59939095786,0,-2,-2,-1,-1,-1,-1,-1
59939095786,0,-3,-3,-1,-1,-1,0,-2
59939107969,-1,0,0,0,0,0,-3,-1
59939107969,-1,1,-3,-2,1,-2,-2,-1
59939116817,0,-1,-1,-2,2,1,-1,0
59939116817,-1,-2,0,0,-3,-3,0,-1
59939131600,-2,-1,0,-1,-2,-3,-2,-1
59939131600,-1,-3,1,-1,-2,-2,1,-2
59939133261,0,-2,-1,-1,-1,-1,-1,-2
59939133261,-1,-1,-3,-1,-1,-1,-2,-2
59939154388,0,-1,0,0,0,-1,0,0
59939154388,-2,0,2,0,-2,-1,-3,1
59939155815,-2,0,-2,-1,0,-1,-2,1
59939155815,-1,-1,0,-1,-1,-1,0,0
59939168010,0,-1,-1,-1,-1,-1,0,-1
59939168010,-1,-3,-2,-2,-1,-1,0,-2
59939176777,-1,2,-2,-2,0,1,-1,-2
59939176777,-2,-1,-2,-1,0,-2,-1,-2
59939191867,-1,-1,0,-1,0,-1,0,-1
59939191867,-2,-1,-2,-2,-2,0,-2,0
59939193263,-1,0,-1,1,-1,-1,-2,0
59939193263,-2,-1,0,0,1,0,-1,0
59939214133,-1,-1,-2,-1,-1,-2,-1,-1
59939214133,-2,0,-2,-1,-2,0,-2,-3
59939215679,-1,-1,-1,-1,-3,-1,0,-2
59939215679,0,0,-2,0,-2,-2,-2,0
59939227843,0,-1,-2,-2,-1,-1,-1,0
59939227843,-1,-2,-1,0,0,0,-3,-1
59939236835,-1,-2,0,0,-1,-2,-2,-1
59939236835,1,-1,-1,-1,0,0,-2,0
59939251688,-1,-2,-2,-2,-3,-1,-1,-1
59939251688,-1,-2,-1,-2,-2,-1,0,1
59939253206,0,-1,-2,0,0,-1,1,0
59939253206,0,-1,-1,-3,-1,-2,0,-2
59939274163,-2,-2,-1,-1,-2,0,-3,0
59939274163,-1,0,1,1,1,-1,0,-1
59939275801,-1,-2,0,0,-2,0,-2,-1
59939275801,-1,0,-2,-1,-1,0,-1,-1
59939287905,-2,-2,-2,-2,-1,0,-2,-1
59939287905,0,-1,-2,-2,0,-1,0,0
59939296814,0,-2,0,-2,-1,-1,-1,1
59939296814,-3,-1,-2,1,-1,-3,-2,-1
59939311664,-1,-1,-1,-1,-1,-2,-1,0
59939311664,-1,-1,0,-1,0,-1,-1,0
59939313230,-1,-2,-2,-3,-1,-1,-1,-1
59939313230,-2,-1,-1,-1,-1,1,-2,-3
59939334352,-1,0,0,0,-2,-1,-2,-1
59939334352,-1,0,0,-1,-1,-1,-1,0
59939335818,-1,1,0,-1,-2,0,-1,0
59939335818,-1,-2,-1,-2,-1,-1,0,0
59939347974,1,0,-1,0,-2,-1,0,0
59939347974,1,-1,-3,-1,-2,-2,0,-2
59939356819,0,-1,-2,-2,-1,0,0,-2
59939356819,-1,-1,0,0,0,-1,-1,-1
59939371867,-3,-1,1,-1,-1,-2,-2,-1
59939371867,-1,-3,-2,-1,-1,-1,-2,2
59939373263,-1,-1,0,-1,-1,-1,-1,-1
59939373263,0,-1,-1,-2,-1,1,-1,-1
59939394335,-1,0,-2,1,1,1,0,0
59939394335,-1,-1,-1,0,0,-1,-1,-4
59939395756,-2,-1,-3,-1,-2,-2,-1,-1
59939395756,0,-2,-2,-2,-2,-2,0,0
59939416823,0,-2,-2,-1,1,-3,0,-2
59939416823,-2,0,-1,-1,0,1,-1,0
59939418290,-2,0,-4,-1,0,-3,0,-1
59939418290,-3,-1,0,0,-1,-1,0,-2
59939431891,0,-2,-1,-2,-2,-1,-2,-1
59939431891,-2,-1,0,-2,-1,-2,-2,-1
59939433242,-1,-2,0,-1,-2,-1,-2,-1
59939433242,0,-1,-2,-1,-1,1,0,-1
59939454274,0,0,-2,-1,-1,-1,-1,-1
59939454274,-1,-3,0,0,-1,0,-1,0
59939455802,0,-2,0,-3,-1,-1,0,-1
59939455802,0,0,0,-1,-2,-4,-1,0
59939476594,0,-1,0,-1,-1,-2,-1,-1
59939476594,-2,0,-1,-1,-1,-1,0,-1
59939478172,-2,-2,-4,-2,-1,0,-1,-2
59939478172,-1,-1,-1,0,-3,0,-1,0
59939491592,-1,-1,0,-3,-2,0,0,-2
59939491592,-1,0,0,-1,-1,-2,-1,-3
59939493249,-1,-2,0,-5,-2,1,0,-1
59939493249,-1,-3,-2,19,-1,-3,-3,0
59939514073,-2,3,-1,-6,-1,-2,-2,1
59939514073,0,-1,-1,10,-1,0,-1,-1
59939515696,-2,-2,-2,-2,-1,-1,-2,-2
59939515696,-1,0,-1,-5,0,-1,0,-2
59939536653,-1,-3,-2,1,1,-2,-1,0
59939536653,-2,0,1,-2,-1,-1,0,-1
59939538288,-2,0,0,1,-2,-1,0,-4
59939538288,-1,-1,-1,-3,0,-2,0,-1
59939550989,-2,0,-1,0,0,-1,-2,0
59939550989,0,-2,-4,-6,-3,-1,-1,0
59939557740,-2,-2,-1,0,-1,-2,0,-1
59939557740,-1,0,-1,-4,-1,-1,-1,0
59939574140,1,1,-2,-3,-2,0,0,-1
59939574140,0,-1,-1,-1,-1,-2,-1,-1
59939575731,-1,-1,-3,-1,-1,-1,-1,0
59939575731,0,-1,1,-2,-2,-1,-1,-2
59939596626,-1,-1,-1,0,-2,-1,0,-2
59939596626,0,1,0,-3,-1,0,-2,0
59939598180,0,-2,0,3,0,0,0,-1
59939598180,-1,0,-1,-3,0,0,-2,-2
59939619365,-2,-2,-1,-1,-1,-1,-2,-3
59939619365,0,0,-1,-4,-2,-1,-2,-2
59939620789,0,-1,1,-2,-2,-1,0,-1
59939620789,-1,-1,0,-2,-1,0,-1,0
59939634194,-2,0,0,2,-2,-1,-2,-1
59939634194,-1,1,-1,-2,-1,-1,1,0
59939635733,-1,0,-2,-2,-2,-1,0,-2
59939635733,-2,-1,-2,-2,-3,-1,0,-1
59939656656,0,-1,-1,0,0,0,-1,-4
59939656656,-1,-1,-1,0,-3,-2,-1,0
59939658303,-1,-1,0,-1,-2,-1,-2,-2
59939658303,-2,0,-1,-2,-2,-1,-2,0
59939670933,-1,-1,0,-3,-1,-1,-1,-1
59939670933,-2,-3,-2,-1,-1,-2,-1,0
59939677753,-2,-1,-2,0,-1,-2,0,-1
59939677753,0,0,-1,-3,-1,0,-2,-3
59939694174,-2,-2,0,0,0,-2,-1,1
59939694174,1,-1,-1,-1,0,-2,-1,-1
59939695727,1,0,-1,0,-1,-3,-1,0
59939695727,0,-1,-1,-2,0,-1,0,-2
59939716860,-2,-1,-1,-2,-1,0,-1,-2
59939716860,0,-1,-1,-1,-1,0,-1,-3
59939718263,-2,-1,-2,-3,0,0,-2,-2
59939718263,-1,-2,-2,-1,0,-1,-3,-1
59939731131,-1,-2,-1,-1,-3,-1,1,1
59939731131,-3,-2,-2,-1,0,-1,-2,-1
59939738038,0,-1,-2,-1,-1,0,-1,-2
59939738038,-2,-1,0,-2,-1,0,-1,-3
59939754346,-1,-2,-1,1,0,-2,1,-1
59939754346,-2,0,-1,0,-1,1,1,-1
59939755772,1,-2,0,-2,-1,-2,-1,1
59939755772,-1,-2,0,-1,0,-1,0,0
59939776163,-1,1,-3,0,-1,-1,-1,-1
59939776163,-1,0,-1,0,-1,-3,-2,0
59939776764,0,1,-2,-1,-1,-3,0,0
59939776764,0,-1,-2,0,-3,-2,0,1
59939790496,-2,-1,-1,-3,-3,-2,-1,0
59939790496,-1,-3,0,0,-1,0,-2,-1
59939798699,-1,-1,-2,-2,1,-1,-2,0
59939798699,-1,0,0,-3,-1,-1,-1,-2
59939821833,0,-2,-1,-1,-1,0,-3,1
59939821833,0,-1,-3,-3,-3,-2,0,0
59939822441,-3,-3,-1,0,-1,-1,0,0
59939822441,-2,-2,-1,0,-1,0,0,-1
59939836143,-1,-1,-1,0,1,-1,-2,-4
59939836143,0,-2,0,-1,-1,0,0,-2
59939836725,-2,0,1,-2,-2,1,0,-2
59939836725,1,-1,-1,0,0,-1,-1,0
59939850356,-1,0,-1,-2,-1,-1,-2,-2
59939850356,-2,-1,-2,-2,0,-1,-3,-1
59939858604,-2,-1,-1,-1,-1,0,1,-1
59939858604,-1,-2,-2,0,-3,-1,-2,-2
59939873393,0,-1,-1,-1,-2,-1,-1,0
59939873393,-1,-1,-2,0,0,-1,0,-2
59939874206,-1,-2,0,0,-1,-1,-2,-1
59939874206,-2,0,-2,-1,-1,0,-2,0
59939896196,-2,-1,-1,0,-1,-1,-1,0
59939896196,-2,-2,-2,-1,-1,-1,1,0
59939896767,-1,-2,-1,-1,-1,-2,-1,-1
59939896767,-1,1,-1,-1,-2,-1,-1,-1
59939910531,-1,-1,-1,-1,-1,0,-2,-1
59939910531,-1,1,1,-1,-1,-1,-2,-3
59939918686,0,-1,0,0,0,-1,-1,-1
59939918686,-2,-1,-2,-1,-1,-2,-1,-2
59939933687,0,-3,0,-1,-1,0,-2,-1
59939933687,-3,-1,-1,-2,-3,-3,-4,-1
59939934338,-1,0,-1,-1,-1,-1,-1,-1
59939934338,-1,-1,1,-2,-1,-1,-1,0
59939956214,-1,-1,-1,0,0,-2,-1,1
59939956214,0,-2,-1,-1,-1,-2,0,-2
59939956806,0,-2,-3,-1,-1,-3,-2,-1
59939956806,-1,0,-1,-1,-2,-1,0,-1
59939970400,-1,-1,-1,-2,0,-1,0,0
59939970400,-2,-2,-1,-3,1,1,0,-1
59939978660,-1,0,-1,-1,-1,1,-1,0
59939978660,-1,-1,-1,-1,-1,-1,-2,-1
59939993667,-1,-2,-1,1,-2,0,-1,-3
59939993667,-1,-2,-1,-3,0,0,0,0
59939994285,-2,-1,-1,-2,1,0,-1,-1
59939994285,-1,-2,-3,2,-1,-2,-1,-2
59940015942,1,-1,-2,2,0,-3,0,-1
59940015942,4,0,-2,-4,1,-2,-1,0
59940016719,-13,-1,1,4,1,0,-2,-2
59940016719,0,-1,-1,-11,-2,0,-1,1
59940030478,-1,-2,-1,0,-2,1,0,-2
59940030478,0,-1,-1,1,-3,-1,-1,-1
59940038701,1,0,-2,-1,-2,-2,-1,-1
59940038701,-2,0,1,1,-1,-2,-1,-1
59940053553,-3,-2,-1,-2,-2,-2,-2,0
59940053553,1,-1,-1,-1,-1,-1,0,-2
59940054208,2,-2,-2,-6,-1,-3,-3,-2
59940054208,-1,0,-1,1,1,0,1,0
59940076188,0,1,1,0,0,-2,-1,-1
59940076188,-3,0,-1,-7,-1,-1,-1,-2
59940076812,1,-1,-2,10,-1,-3,-1,0
59940076812,0,-2,0,-11,-4,-1,-2,-2
59940090349,-1,0,-1,-1,-2,-2,-1,-1
59940090349,-1,-1,0,2,-2,-1,1,2
59940098742,-1,-1,-3,-9,-3,1,-1,-2
59940098742,1,-2,0,23,2,-8,-3,-2
59940113677,-3,2,-2,-2,0,1,-3,1
59940113677,0,-2,-2,0,-3,1,-3,-4
59940114248,3,1,2,-4,0,-4,2,0
59940114248,2,0,1,0,1,7,3,0
59940144384,-1,-2,-3,-8,-4,-2,-3,-3
59940144384,0,0,-1,-2,-1,-7,-4,1
59940144986,0,-2,-3,0,-4,-2,-2,-1
59940144986,-5,-2,-1,-9,-2,0,-1,-1
59940158694,1,-1,-1,-4,-2,-3,-3,-3
59940158694,1,1,-1,-7,0,1,2,-1
59940159241,-2,-1,-2,11,4,1,-3,2
59940159241,2,0,0,7,2,-12,-3,-2
59940173671,-7,-3,-2,-2,1,14,1,-1
59940173671,8,-3,-2,-10,-6,-14,-5,8
59940174268,-2,1,-1,1,2,7,-1,-28
59940174268,-4,3,-2,-1,2,3,2,1
59940196621,16,0,0,5,-2,2,4,7
59940196621,-30,-6,-3,10,-4,-11,0,24
59940197277,26,2,-1,-13,-5,-1,-4,-6
59940197277,1,-1,-2,-1,0,5,11,11
59940218484,-7,-4,-3,-5,-10,-11,-12,-7
59940218484,4,1,-2,3,9,-13,-9,-20
59940219182,1,4,3,-16,-8,4,0,-11
59940219182,9,-4,-5,-1,3,16,14,39
59940233521,-17,0,2,17,4,1,2,-4
59940233521,4,-1,2,-6,2,14,1,7
59940234264,-29,-9,-9,-19,-11,-14,-9,-59
59940234264,-10,0,3,32,-9,-34,-7,-41
59940256183,12,8,1,-12,4,4,-1,19
59940256183,19,-14,-3,32,11,13,-1,4
59940256714,-27,2,4,-13,16,21,-7,34
59940256714,6,-4,-9,9,-15,-17,3,-9
59940278747,3,1,-1,-14,-3,-10,4,-29
59940278747,-8,6,-2,-23,-7,7,-16,-31
59940279264,11,-5,-4,29,9,-2,14,1
59940279264,-5,-5,-2,-23,-10,0,-2,13
59940293548,-2,-9,-1,7,-10,-19,-17,0
59940293548,-5,0,-2,-3,-12,-7,6,-25
59940294268,0,-1,-3,3,10,2,6,43
59940294268,-2,2,-2,-17,10,13,-11,-27
59940316133,0,-5,0,-4,-11,-9,13,4
59940316133,-22,-3,-4,-4,-9,12,-3,4
59940316748,15,7,2,2,6,-7,-7,-57
59940316748,35,-1,1,-2,-3,4,10,46
59940346870,-15,2,0,-3,15,10,-8,-1
59940346870,6,-1,-3,-15,-19,-30,8,14
59940347503,-12,-7,1,-15,-8,2,-8,0
59940347503,6,2,2,28,16,8,-13,-31
59940353681,29,3,1,-20,-21,9,18,-6
59940353681,-30,-2,1,0,14,-14,-2,-11
59940354260,-9,0,-8,3,-7,6,-5,-24
59940354260,-13,-3,-1,-23,-9,-9,-16,4
59940376158,-23,-5,-2,49,11,-29,-10,-6
59940376158,10,6,0,-38,28,51,20,9
59940376764,1,4,7,46,-13,-29,-17,-8
59940376764,-18,-8,-8,-24,-6,8,0,1
59940398688,13,4,1,0,-2,-8,4,-1
59940398688,15,3,1,1,-5,-20,-22,13
59940399222,-1,-1,-1,-32,9,44,30,-5
59940399222,-2,2,0,5,0,17,2,-33
59940413601,-11,-4,3,-5,-3,-35,-13,4
59940413601,2,-1,-1,20,-7,-14,-3,30
59940414273,7,-1,-1,-8,1,-1,1,-16
59940414273,-9,-3,1,-1,-10,-33,-12,-5
59940436145,17,1,-6,-41,15,41,24,-5
59940436145,-47,-5,-6,11,-10,2,-17,-46
59940436736,3,-20,-9,8,-15,-22,-4,15
59940436736,3,2,0,-3,4,-5,1,4
59940458588,-12,-2,-4,18,-3,14,-18,-2
59940458588,23,3,-1,-6,0,-7,16,-24
59940459299,-7,-2,2,0,-12,2,-18,42
59940459299,-15,-2,-4,-16,-1,16,24,-15
59940474948,27,2,3,-10,-16,-30,-17,22
59940474948,0,-5,-3,14,4,9,13,-6
59940475718,4,4,0,-8,-2,-25,-5,22
59940475718,2,-3,-2,-19,-8,17,-13,18
59940495976,-8,3,-3,14,5,9,4,-33
59940495976,13,3,5,2,5,9,8,13
59940496755,-8,2,2,-4,-1,-13,-17,-1
59940496755,22,-2,5,21,17,-15,14,17
59940518548,-38,-6,-3,-14,-25,16,-8,-21
59940518548,10,-1,-5,14,3,-1,-3,19
59940519250,-24,-16,2,0,1,-11,-7,-13
59940519250,6,0,-4,9,7,22,10,1
59940533489,-4,2,1,-23,-2,-26,0,8
59940533489,12,0,-1,17,2,3,0,13
59940534235,-15,1,0,-23,4,5,-1,14
59940534235,11,6,1,26,11,2,8,7
59940555944,-2,-5,-4,-1,2,8,-9,-3
59940555944,-14,0,0,-5,-5,-3,-2,-13
59940556752,28,5,-3,3,2,-1,8,17
59940556752,-16,-3,-2,-26,-3,-2,-14,5
59940578513,11,-3,0,39,1,-2,-3,-26
59940578513,17,4,0,-23,1,-3,-5,3
59940579202,2,1,-1,25,-1,4,8,-40
59940579202,-10,-4,-5,-10,-6,-12,-12,26
59940593505,8,7,-1,-7,8,10,15,10
59940593505,-15,-38,-7,-8,-6,-2,-5,-3
59940594210,-1,-2,-7,6,-13,-1,6,-3
59940594210,-1,3,3,1,3,-8,-4,0
59940615975,4,-5,1,-24,3,3,2,9
59940615975,20,19,3,20,2,2,5,-5
59940616701,-1,0,-3,-25,3,2,-2,5
59940616701,-41,-17,0,62,7,-9,-15,57
59940638520,-11,-3,-3,-1,0,2,-1,-18
59940638520,19,-4,8,-22,-1,7,1,-7
59940639279,-11,0,-4,29,22,4,3,8
59940639279,19,4,-3,-30,-29,-8,-7,-18
59940653473,4,2,8,-27,-2,-3,-12,-8
59940653473,-26,-23,-10,46,1,-8,1,7
59940654238,34,9,4,3,-2,1,1,21
59940654238,3,1,0,-22,1,2,6,33
59940675964,33,-1,-6,7,-5,-3,1,-7
59940675964,-34,10,5,-1,5,-6,-16,-46
59940676793,25,12,5,6,4,2,-19,22
59940676793,0,-9,1,8,-2,4,31,-19
59940698481,-14,-7,-8,-30,3,-2,-15,26
59940698481,-2,9,3,20,-2,2,8,17
59940699224,1,0,-1,53,-7,-6,-11,-37
59940699224,28,6,-4,-64,-11,-4,-6,-19
59940713487,-55,-5,-5,51,19,3,-4,-35
59940713487,27,5,-1,-39,-14,0,13,-9
59940714227,-8,18,23,9,1,-2,5,3
59940714227,-30,2,-14,-45,-10,-3,-20,-56
59940735977,27,-2,2,71,19,1,10,14
59940735977,0,-4,8,-6,-21,-7,-19,-4
59940736719,38,-19,-20,-41,-18,-7,3,68
59940736719,-33,-5,10,14,5,-3,-20,-70
59940758385,9,16,10,-40,-7,3,13,95
59940758385,-69,-1,-13,26,9,-5,-29,-74
59940759246,-24,-22,0,-37,-7,-8,-20,-98
59940759246,36,13,0,14,-11,0,25,86
59940773655,-16,0,-1,-13,15,12,6,-10
59940773655,71,-30,24,10,-4,-10,15,60
59940774229,-37,14,34,16,10,13,12,-13
59940774229,-109,-40,-62,-37,-3,-8,-13,-19
59940796135,59,21,16,13,-12,-10,-6,-27
59940796135,-28,-31,-25,-49,-6,-2,-15,-9
59940796787,-27,25,-51,13,12,3,-6,-25
59940796787,81,26,37,15,2,1,22,48
59940818535,12,-38,-29,45,-11,-5,-9,-72
59940818535,-24,22,-13,-84,-6,2,8,82
59940819250,2,-5,-20,0,7,-2,22,33
59940819250,-23,13,11,55,4,-2,-13,-38
59940841642,-35,-18,-30,-72,-8,1,0,10
59940841642,23,19,26,59,-5,-6,9,16
59940842488,2,-30,-37,-63,-6,9,16,27
59940842488,13,-28,7,106,34,3,-7,-11
59940856151,-3,10,19,-26,-1,-1,-1,8
59940856151,5,11,-7,-9,-4,-7,3,-2
59940856804,-38,-5,14,17,4,-5,0,14
59940856804,25,5,3,34,3,19,-5,-14
59940878397,-8,0,0,1,-5,-21,5,-1
59940878397,60,1,-5,0,-6,17,13,11
59940879158,30,-11,8,29,13,9,-66,-60
59940879158,6,13,1,-51,-10,4,6,-35
59940893419,-36,-13,-2,15,-4,9,21,5
59940893419,8,15,-3,-9,-2,-13,5,7
59940894200,-2,-3,13,-28,-12,-17,-2,-26
59940894200,-15,-4,-4,2,-15,-22,-36,-23
59940915914,33,9,4,-50,-20,4,1,30
59940915914,-29,5,1,49,5,10,-1,-26
59940916677,3,4,2,13,4,-8,3,5
59940916677,-6,0,0,-29,8,8,2,7
59940940375,9,3,6,38,21,15,6,6
59940940375,-38,-3,-7,-12,-11,-5,-11,-40
59940941167,-8,-5,1,-3,-13,1,16,19
59940941167,20,5,1,12,13,1,14,21
59940954358,-11,4,6,-20,-4,-1,-8,-10
59940954358,-5,-6,-7,-31,-3,2,-11,-11
59940962921,13,3,3,58,17,-12,9,3
59940962921,-1,-7,-8,-44,-22,-4,5,-6
59940963707,13,3,3,58,17,-12,9,3
59940963707,-1,-7,-8,-44,-22,-4,5,-6
59940964512,-16,0,-1,-13,15,12,6,-10
59940964512,71,-30,24,10,-4,-10,15,60
59940965358,-37,14,34,16,10,13,12,-13
59940965358,-109,-40,-62,-37,-3,-8,-13,-19
59940969818,59,21,16,13,-12,-10,-6,-27
59940969818,-28,-31,-25,-49,-6,-2,-15,-9
59940976042,-12,-3,-4,17,7,13,-30,-45
59940976042,11,-4,-8,-37,-5,-10,15,3
59940976828,4,1,8,31,-3,-16,9,13
59940976828,2,2,-2,-44,-17,7,-1,-10
59940998677,-19,-4,-7,24,5,-4,-6,-4
59940998677,22,10,-1,-34,2,-2,-5,-1
59940999232,29,2,-2,-39,-8,10,14,76
59940999232,-98,-10,2,22,-13,-12,-18,-65
59941012782,25,4,0,-19,-4,1,-3,22
59941012782,8,0,2,-4,7,4,0,2
59941021189,-8,0,0,-5,-6,7,-6,-34
59941021189,18,2,-1,-2,8,-9,-2,49
59941044325,-12,-1,-4,21,-6,-12,3,3
59941044325,-11,-1,1,17,19,14,2,-42
59941044935,-2,-3,-3,7,-12,2,7,20
59941044935,23,11,-4,-2,-1,-5,2,2
59941059232,-5,-3,2,-32,-3,5,14,11
59941059232,-2,-5,-2,42,3,-10,-19,1
59941060062,4,-1,0,-36,-8,3,6,-3
59941060062,13,2,5,26,5,7,10,-29
59941072844,4,0,-4,-12,-6,-13,-5,-3
59941072844,-8,-5,-1,44,6,-4,5,24
59941081189,-1,4,-1,-33,-7,11,7,2
59941081189,12,-1,3,20,1,-7,-5,-5
59941096083,2,-1,2,1,4,-3,-6,-16
59941096083,1,-1,-1,-8,3,13,13,15
59941096743,-3,11,0,-11,-15,-15,-22,-46
59941096743,23,-3,1,-2,7,7,-8,-19
59941119293,3,1,5,19,3,5,12,-2
59941119293,-16,3,4,-33,-5,-7,0,-13
59941119953,0,0,-3,60,4,-6,-12,-3
59941119953,14,-4,0,-14,-8,-4,-11,-22
59941133006,-9,3,-2,-7,-1,-1,13,30
59941133006,-7,-2,4,14,-6,-8,-15,-22
59941157479,-2,-9,-3,-29,4,3,7,-22
59941157479,-11,-1,-2,-9,-2,-1,-1,-7
59941158927,-8,-7,-1,22,3,-2,-3,-9
59941158927,6,-1,1,-9,9,-4,-8,10
59941159770,-13,-2,-2,33,-10,1,3,-13
59941159770,-3,6,-2,-17,-7,-5,-6,9
59941179322,7,4,-1,-27,-1,-4,-4,15
59941179322,-14,-5,0,20,2,2,-2,-20
59941179912,31,-3,-2,-13,5,0,4,18
59941179912,-35,-2,1,15,11,-1,13,25
59941192831,-10,-3,1,-23,-20,-8,-20,-67
59941192831,1,0,-5,-4,-5,-1,-14,-10
59941201134,27,5,1,-33,-7,-1,11,26
59941201134,-10,-20,-4,41,8,-2,-7,0
59941216150,-9,-5,-3,-7,1,4,2,68
59941216150,9,5,-2,-12,-8,-1,-1,-8
59941216821,6,11,1,10,0,-4,-10,-1
59941216821,-52,-7,-8,-53,-8,-3,-2,-25
59941239771,33,6,-6,30,7,-3,1,20
59941239771,-32,0,-1,-5,-5,-1,0,-25
59941240468,7,-4,-1,40,8,-2,-7,30
59941240468,-7,0,3,-14,1,-1,-1,15
59941254337,-15,14,-1,-10,-2,-1,-2,-15
59941254337,7,-15,-4,28,7,0,-1,-5
59941261211,-26,-17,-4,-34,-4,-2,-3,0
59941261211,13,9,4,13,3,1,-10,-34
59941276167,1,1,-1,-5,-1,-2,-11,25
59941276167,8,4,0,-1,-5,3,14,-66
59941276727,-47,-2,-12,-4,-4,-4,1,11
59941276727,38,8,11,4,2,4,17,17
59941299174,3,-2,5,23,2,0,-10,-81
59941299174,24,17,5,-6,-3,2,-8,10
59941299953,-26,26,7,-8,0,5,-3,-51
59941299953,80,-3,-11,-9,0,-3,-4,-46
59941321826,-2,-20,6,-9,-2,1,26,-55
59941321826,39,2,0,30,8,1,7,84
59941322406,-79,-56,-7,-35,-8,-8,-30,-98
59941322406,-22,-11,-3,-4,-1,0,2,33
59941335986,11,-4,-20,24,5,-5,-16,36
59941335986,-17,-30,-1,-12,-6,-5,21,47
59941336778,19,28,2,-8,-5,3,8,-24
59941336778,22,26,12,0,4,3,1,-1
59941360705,-24,-24,9,24,4,-7,-17,-39
59941360705,-39,7,-4,-6,2,1,-10,-30
59941361556,83,7,-5,-9,5,5,21,105
59941361556,-57,-11,-10,-27,-8,-6,7,-16
59941381819,-42,-11,-22,-11,-21,-7,-16,-11
59941381819,26,2,5,-21,3,4,14,22
59941382401,9,25,11,61,9,-1,-4,11
59941382401,-23,-12,-11,-23,-2,-1,3,16
59941396108,-5,1,-6,-20,-2,11,7,10
59941396108,7,-3,-7,-13,-13,-13,5,41
59941396724,-20,-8,3,-25,1,14,6,19
59941396724,13,3,-1,-19,-18,-13,-5,23
59941418580,-7,5,12,32,25,10,0,-11
59941418580,-14,-5,-10,-6,1,6,-3,2
59941419262,32,-9,8,76,20,-5,0,-2
59941419262,17,7,1,-30,-21,2,-20,-3
59941441829,-11,4,7,24,19,-32,-42,-7
59941441829,14,8,2,-9,12,32,28,0
59941442466,13,-2,6,-19,-3,19,52,52
59941442466,2,-6,2,21,3,-4,2,-1
59941456628,22,9,2,-26,-20,-10,-8,12
59941456628,-6,-1,-5,4,-12,-27,-29,-10
59941457229,-8,-9,-11,-51,-16,-15,-18,-33
59941457229,-5,5,2,33,3,-2,-5,1
59941479331,22,6,-4,-41,-2,6,21,28
59941479331,-4,-4,2,61,14,2,-10,-14
59941479976,-20,-5,-3,-27,-5,4,2,-8
59941479976,12,-2,-3,9,16,1,-5,7
59941501635,-6,0,0,-3,-4,3,8,-1
59941501635,-5,-4,0,-17,-7,-1,-1,-3
59941502406,4,-2,-5,-4,2,-8,-17,-5
59941502406,0,0,-2,10,-1,-2,2,3
59941516026,-1,-2,-3,-1,-5,3,12,3
59941516026,-4,-3,0,-16,-6,-4,-9,-7
59941516756,7,-4,-1,1,-8,-8,-6,-3
59941516756,-6,-5,0,4,4,2,2,-2
59941539316,5,-1,-1,-22,-11,5,12,9
59941539316,0,0,1,24,9,-7,-7,-6
59941539974,-6,-4,-2,-5,0,-1,-5,-8
59941539974,3,0,-1,7,-1,2,3,3
59941561875,6,1,0,-13,-6,-4,-2,5
59941561875,-8,-1,-4,0,-8,-5,-5,-10
59941562451,-2,-5,-3,2,5,2,-3,-4
59941562451,-2,-1,-2,-5,1,5,2,1
59941575897,6,1,-2,7,-2,-1,2,5
59941575897,3,10,0,-12,-4,3,-1,-3
59941576690,1,-8,-1,-12,-7,-2,-2,-4
59941576690,-10,2,-1,15,-1,-13,-3,1
59941599167,-17,-7,-6,-1,-2,-10,0,-10
59941599167,-2,-5,2,-12,-4,-5,-2,-1
59941599920,7,1,2,15,3,6,-6,3
59941599920,-2,-7,-6,-10,-5,4,0,-2
59941621621,12,3,0,6,3,6,6,10
59941621621,-16,-5,-1,-17,-8,-14,-5,-12
59941622348,-6,-3,-3,2,-1,-4,-6,-3
59941622348,6,-5,-1,3,-1,-4,0,1
59941636155,9,0,2,9,3,8,7,5
59941636155,12,3,-2,-10,-4,3,1,3
59941636781,-10,-17,-4,-2,-1,-4,-2,-3
59941636781,-6,-6,0,0,-1,-1,-1,-4
59941659175,-5,-1,-1,-2,-2,-7,-3,-2
59941659175,1,0,-3,1,-4,8,0,0
59941659884,0,2,2,0,0,-14,-1,-3
59941659884,2,1,-2,-5,-1,12,0,3
59941681620,3,-5,1,5,0,2,2,3
59941681620,-17,-7,-2,-4,2,-6,-2,-8
59941682456,-1,8,0,-1,-6,0,1,-1
59941682456,-2,-2,-3,-5,-3,-6,-4,-5
59941696038,12,5,-2,-2,-2,1,0,4
59941696038,17,-1,-2,1,2,-8,-3,8
59941696738,-9,3,-1,-1,-4,4,-3,-5
59941696738,-41,-6,-3,4,-2,-6,-4,-14
59941719280,-8,-5,-2,-3,1,4,0,-4
59941719280,4,-1,-3,4,0,-3,-1,4
59941719890,30,7,0,-18,-7,4,5,14
59941719890,27,10,3,21,19,9,0,-3
59941741690,-18,2,1,-4,-23,-12,-4,-5
59941741690,-16,-5,-1,-7,-3,-7,-2,-3
59941742500,14,11,3,4,5,6,-2,1
59941742500,19,6,-1,-2,-3,-14,2,9
59941764158,4,0,-1,-7,5,11,0,-2
59941764158,19,2,2,9,7,2,-1,6
59941764930,-22,-7,-4,0,-8,-5,1,-6
59941764930,-43,-14,-5,-11,-8,3,-6,-21
59941779243,16,1,-2,2,3,-6,-2,1
59941779243,-13,-5,6,-1,-1,-4,-1,4
59941779859,9,-4,-12,-6,-5,-3,-13,3
59941779859,47,8,5,9,14,6,8,27
59941801715,-70,2,0,-4,-13,8,5,-10
59941801715,14,1,-3,0,-8,-12,-4,-2
59941803290,-15,-24,0,5,7,-1,-4,-15
59941803290,16,12,8,-15,-7,-2,-4,9
59941816198,11,-10,-1,10,7,1,-4,-44
59941816198,15,5,-1,0,0,9,4,-9
59941816691,-57,-7,-2,-8,-6,-9,1,-3
59941816691,3,-1,-1,-4,-6,-5,-4,-11
59941839310,12,1,3,2,2,3,3,12
59941839310,-8,0,-5,0,-4,1,-4,-5
59941839946,8,-3,-2,14,6,-4,-1,-5
59941839946,1,-6,-2,-5,-6,1,0,2
59941861816,5,11,-2,-1,3,-6,0,13
59941861816,-2,-5,-3,-10,0,4,-2,-1
59941862433,19,4,-2,-9,-1,6,2,9
59941862433,-4,-3,0,4,1,-1,2,2
59941875955,2,-7,-6,-8,-3,-5,-5,2
59941875955,-7,-1,0,0,-1,-6,1,-9
59941876724,1,3,0,-1,2,6,0,-2
59941876724,-14,-5,-3,-2,-4,0,-5,-21
59941899103,6,-22,-2,1,-1,-6,3,28
59941899103,-19,-5,0,-1,-1,1,-1,-3
59941899929,4,6,2,0,-1,-7,-1,-1
59941899929,1,-3,-2,-5,-3,-1,1,2
59941921616,11,6,1,3,2,1,-3,4
59941921616,1,1,0,8,3,5,-1,-5
59941922445,-3,-1,-1,5,-1,-2,2,2
59941922445,5,3,-5,-47,-1,-1,0,0
59941935353,-1,10,1,-1,-4,0,-2,-5
59941935353,1,-6,-3,-1,-1,-1,-2,5
59941944286,21,9,1,1,-1,1,3,-1
59941944286,-14,-3,3,20,5,-1,-3,1
59941957830,-2,3,1,14,6,1,-2,-5
59941957830,0,-4,-5,-5,-4,-2,0,3
59941966818,3,-2,3,42,3,-3,-5,-4
59941966818,-4,-2,-7,-51,-12,-3,-1,0
59941989161,-3,-5,-2,-7,-1,-2,-1,-3
59941989161,-2,4,2,5,3,0,-1,-3
59941990788,-6,-3,-2,-8,3,-1,1,-1
59941990788,-3,-1,-1,7,0,1,0,3
59942004098,-4,-1,-3,-2,-2,-2,-5,-3
59942004098,-1,0,-3,13,1,1,0,2
59942005659,-4,1,-2,-20,-5,-3,0,0
59942005659,-3,-4,-4,7,2,-2,1,1
59942019874,1,-3,-4,-9,-2,-1,-2,0
59942019874,-3,0,2,0,-1,-1,-1,0
59942025353,-5,-4,-3,-1,-3,-3,-1,-4
59942025353,0,0,2,16,-1,-1,-1,-2
59942041588,0,-1,0,-4,0,-2,-1,-3
59942041588,1,0,0,-3,-1,0,-2,-1
59942043165,-3,2,-1,-4,0,0,-1,-4
59942043165,-2,-3,-1,5,-2,-2,-3,0
59942055244,0,0,0,2,0,-1,-1,-1
59942055244,-1,-1,-2,-9,-1,1,-1,-2
59942064198,2,-3,-3,-12,-4,-1,-1,-2
59942064198,-1,-1,0,10,0,0,-1,0
59942078129,-2,-2,1,1,0,-1,-2,-6
59942078129,-4,-1,-3,-4,-3,-2,-2,-11
59942086794,5,-1,-3,-6,-2,-3,-2,4
59942086794,5,-2,-2,7,-1,-1,-1,-3
59942101649,7,1,-2,-1,-2,-1,0,9
59942101649,-9,-17,-4,-6,-2,-2,-2,18
59942103205,-4,1,-2,-2,-2,0,0,-6
59942103205,5,6,3,3,0,0,0,-6
59942115210,-5,-4,-3,-3,-2,0,0,-5
59942115210,6,5,1,-1,0,-1,-1,22
59942124246,-2,-6,-4,0,-2,0,-2,-4
59942124246,-6,0,-1,2,-1,-2,-2,5
59942138542,2,-3,-1,-2,0,-1,0,-1
59942138542,1,4,-2,-3,-2,-2,0,5
59942145193,1,4,-1,-3,-2,-2,-3,-9
59942145193,2,2,-1,2,-1,-2,0,2
59942161844,-4,-1,-1,0,1,-1,0,0
59942161844,-3,-1,-3,-2,-3,0,0,-8
59942163233,-3,-2,0,-1,0,1,0,3
59942163233,-25,-6,-6,2,-3,-2,-3,-10
59942175249,-8,-5,-2,4,-1,-3,-2,-2
59942175249,5,1,-2,-2,-2,-1,-2,-5
59942184189,-7,1,1,1,1,0,-1,0
59942184189,-1,-3,-1,-1,-1,0,-1,6
59942214095,3,3,2,-1,0,1,-2,-1
59942214095,-2,1,0,0,-1,-1,0,-10
59942215663,0,-2,-3,-2,-2,-1,-1,3
59942215663,3,-2,-2,-1,-1,-1,-1,-2
59942221602,-2,0,-2,-2,0,-2,-2,-3
59942221602,-1,-1,-1,-2,0,-1,0,-5
59942228031,-2,-4,-2,-1,-1,-2,-1,1
59942228031,5,3,-1,-1,-1,-1,-2,1
59942244122,-4,-1,-1,-3,-1,-2,0,-5
59942244122,1,-3,0,1,-1,-1,-2,0
59942245729,-1,-1,-2,-3,-1,-1,0,-3
59942245729,2,7,2,1,-1,0,1,-2
59942258599,0,2,-3,-1,-1,0,-1,0
59942258599,-2,-1,-2,-5,-2,0,0,2
59942265350,-3,-6,0,-1,-1,-1,-2,-1
59942265350,-2,-2,-2,-1,-1,-2,-2,-1
59942289411,0,0,1,-1,-2,0,-2,0
59942289411,-2,0,-2,-2,1,-1,-1,-4
59942290729,-2,4,0,2,-2,-1,1,0
59942290729,-4,-4,-1,-3,-1,-1,-3,-2
59942304089,-2,-1,-2,-2,-2,-1,0,2
59942304089,-3,0,0,-2,-1,-2,-2,-7
59942305684,0,-3,-2,-1,-1,-3,-2,1
59942305684,1,-1,0,2,0,0,-2,-1
59942318338,-3,-4,-6,-4,-2,-2,-2,-1
59942318338,-1,-1,-4,-7,-5,0,0,-3
59942334323,-2,0,0,-1,-3,-1,-2,1
59942334323,1,-2,0,4,11,2,0,3
59942341536,-2,0,-1,-1,-7,-2,1,-1
59942341536,0,-2,0,2,2,1,0,-3
59942343153,-1,-1,-4,-6,5,1,-1,0
59942343153,-2,0,0,-2,-3,0,-1,-1
59942364106,0,-6,1,0,0,0,-2,-2
59942364106,-7,-1,-3,-3,-5,-5,-3,-3
59942365659,-2,-3,2,2,-5,-2,-3,-1
59942365659,8,0,-5,-2,-3,-2,-2,17
59942377820,16,-2,-2,-1,0,-2,1,2
59942377820,8,0,1,1,-1,1,0,-5
59942392717,-10,-6,0,0,-1,0,-2,-3
59942392717,-8,-8,-1,-2,1,0,1,5
59942401582,1,17,2,0,-1,0,0,-12
59942401582,2,-3,1,0,-1,-3,-3,-3
59942403194,4,-2,-4,-3,1,-1,3,8
59942403194,-1,-4,-3,-2,-5,-3,-1,-10
59942424128,-9,-3,-2,0,-1,-1,-1,-3
59942424128,-2,1,-2,-2,1,1,0,3
59942425642,-2,2,-1,0,-3,-2,-1,-9
59942425642,-4,-1,-3,-3,-3,-3,0,-2
59942437749,-5,0,0,-2,2,-2,-3,-5
59942437749,1,-1,0,-2,-2,-2,-2,1
59942446786,3,0,-1,-1,-2,-2,-1,3
59942446786,0,2,-1,-2,-1,-1,2,-10
59942461609,0,-6,-3,0,-1,-2,-3,7
59942461609,-4,-3,-1,1,0,-2,1,5
59942463253,-5,2,-1,-3,0,-2,-1,-5
59942463253,-2,3,0,-2,0,-2,0,-2
59942491617,-13,-25,-4,-2,-2,0,-3,-6
59942491617,-5,0,-2,-1,-1,-1,0,-1
59942493205,1,3,-2,0,0,-1,-1,-2
59942493205,0,-1,-1,0,0,0,-2,-3
59942497845,7,1,-3,1,-2,0,-1,5
59942497845,6,5,0,-1,-1,0,0,-3
59942506696,-1,0,0,-3,-1,0,-2,3
59942506696,-4,-3,1,1,0,-1,-1,-3
59942521330,-4,2,-3,-3,-1,0,1,-1
59942521330,11,-1,1,0,0,0,-2,1
59942527809,1,4,0,0,-2,0,0,-4
59942527809,2,2,-2,-2,-2,-1,-2,0
59942544115,1,6,0,1,0,-1,0,-2
59942544115,-6,-5,-2,-1,1,-3,-1,-2
59942545692,3,-3,-1,-3,-2,0,-1,1
59942545692,23,20,0,-1,-3,-2,0,8
59942557759,-9,0,1,0,-1,-1,0,-15
59942557759,-5,0,-3,-2,-4,-1,0,0
59942566845,-11,-6,-4,-4,-3,-4,-3,-3
59942566845,-2,-2,0,-2,-2,-2,-2,1
59942581854,0,1,-1,-2,0,-1,-1,3
59942581854,-5,0,-1,0,-1,0,-2,-2
59942583301,-2,1,-1,-1,-3,-1,-1,-4
59942583301,-6,-9,-2,-2,-3,-1,0,-2
59942604191,-2,1,-1,-2,-1,-2,-1,0
59942604191,-7,-4,-2,-2,0,0,-1,-3
59942605748,3,-1,1,-2,-1,-2,0,5
59942605748,-7,-5,0,-2,-1,-1,-1,-4
59942617752,-1,-1,-2,1,1,-1,-1,2
59942617752,-1,1,-1,0,-1,-1,-3,0
59942626754,1,0,-3,0,-1,-1,-3,-2
59942626754,-2,-5,-2,-1,-1,0,-2,-2
59942641657,-3,0,-1,-1,-2,-3,-1,0
59942641657,-6,-2,-1,-1,-2,-2,-1,0
59942643251,1,-2,-2,1,-1,0,-1,-1
59942643251,-6,-4,0,-1,-2,0,-3,-4
59942664066,-3,-1,-2,-1,-1,-2,-1,2
59942664066,6,3,-2,-1,-2,-2,-3,-3
59942665669,-3,-3,-1,1,-2,-3,-1,0
59942665669,-2,-2,-1,-2,-2,0,-1,-2
59942678428,1,-1,-1,-3,-3,-2,-2,-1
59942678428,-5,-2,0,-1,0,-1,0,-1
59942692704,0,-1,0,0,0,-2,0,-2
59942692704,-2,-1,-1,0,0,-4,-1,0
59942701527,6,13,-2,-2,-1,0,0,-1
59942701527,-4,-7,-2,-1,0,-1,-4,-1
59942703180,-9,-1,-1,-3,-1,-1,-2,-1
59942703180,-4,-1,-1,1,0,0,-1,-2
59942724105,0,0,-3,0,-1,-1,-2,-1
59942724105,5,1,0,-1,0,-1,0,0
59942725692,-11,-1,-1,0,-1,1,0,-11
59942725692,0,-2,-1,-2,-1,-1,0,0
59942737711,-2,-6,-1,-2,-2,-1,-2,-1
59942737711,-1,-2,-2,-1,-2,0,-3,3
59942754243,3,-3,-1,0,-1,-2,-3,2
59942754243,-2,-2,-1,-1,0,-2,-1,-2
59942761579,-2,-3,-1,-2,-2,0,-1,-1
59942761579,-5,-3,0,-2,-2,-1,0,-2
59942763187,6,5,0,0,1,0,0,1
59942763187,-3,-1,-1,-2,-1,0,-2,-2
59942784066,-1,-5,-1,-2,-1,0,-2,1
59942784066,-2,1,-1,-1,-1,-2,-2,-2
59942785754,0,-3,-1,0,-1,-1,-1,1
59942785754,-1,-3,-3,-1,-2,-2,-3,-1
59942797720,-1,-5,1,0,-2,-1,-1,-1
59942797720,-1,-1,-1,0,0,2,0,-1
59942806713,1,0,-3,-2,-1,-2,1,-2
59942806713,-1,0,-2,-2,-2,-1,-1,-2
59942822294,-2,-1,-2,0,-2,0,-2,-1
59942822294,0,-1,-1,0,-3,-1,0,-1
59942824485,-1,-3,-2,-1,0,-1,-2,0
59942824485,-3,1,-1,0,-4,1,0,-2
59942844170,-2,-2,-1,-1,2,-2,-1,-2
59942844170,-1,-1,0,-1,0,-1,-1,-1
59942845825,0,-2,-2,-1,-1,1,-1,-1
59942845825,-1,-3,-1,-2,-1,-2,1,-1
59942857688,-2,-3,-3,-1,-1,-1,-2,-1
59942857688,-3,-2,-2,-1,0,-1,-2,-1
59942866736,0,-1,0,-1,-3,-3,-2,-1
59942866736,0,-1,-1,0,-1,0,0,-1
59942881859,1,1,1,-2,0,0,-2,0
59942881859,0,-1,-2,-2,-1,-2,-2,-2
59942883219,3,1,-2,-1,-2,-1,0,-1
59942883219,-1,-1,-2,-1,-2,-1,0,-1
59942904333,-2,-2,-1,0,-3,-1,-1,4
59942904333,-1,0,-1,-2,-1,-1,0,-3
59942905739,-1,0,0,-1,-1,-1,-2,1
59942905739,0,-2,-2,-2,-1,-1,-4,-2
59942917922,0,-1,-3,-2,-1,-2,-2,-1
59942917922,-2,-1,-2,-1,-2,-2,-2,0
59942926770,-2,-2,-3,0,-1,0,-1,1
59942926770,-2,-1,1,0,0,-1,0,2
59942941561,0,-1,0,0,-2,-1,-2,-1
59942941561,1,-1,-2,-3,0,-3,-1,-2
59942943410,-1,-1,-1,0,0,-1,-1,-3
59942943410,-2,-2,-3,-1,-1,0,-1,0
59942964027,-3,-1,-1,1,-2,0,0,-2
59942964027,-2,0,-1,-1,1,0,-2,-1
59942966560,-1,-3,-2,-1,-1,-3,-2,0
59942966560,-2,-1,0,1,-2,-2,0,-2
59942977727,-1,0,-2,-2,-1,0,-2,-2
59942977727,-1,0,-1,-1,-2,-1,0,-1
59942994293,-2,0,0,-2,-3,-1,-2,-1
59942994293,-1,-2,0,-1,-1,-2,-2,1
59943001539,-1,-2,-1,-2,0,-1,0,-2
59943001539,-1,0,0,-1,0,0,0,0
59943003229,1,-1,0,-2,-1,0,-1,-2
59943003229,0,-2,-1,-1,-1,-2,-1,-2
59943024066,-2,-3,0,0,-1,-2,-2,-2
59943024066,-1,-1,1,-1,-3,-3,0,-1
59943025729,-2,0,-1,-1,-1,-1,1,0
59943025729,-5,-2,-1,-2,-1,0,-1,-2
59943037987,2,1,-1,-1,-1,-1,-1,-1
59943037987,-1,-2,0,0,-3,-2,-1,0
59943046739,0,-2,-1,0,-1,-1,-2,-2
59943046739,0,-1,-2,-1,0,-1,-3,-2
59943061697,-4,-1,-1,-2,0,-3,0,1
59943061697,-1,-2,-3,0,-2,-2,-1,-13
59943063188,0,0,0,-1,0,-1,0,-1
59943063188,1,-1,-2,-2,-1,-1,-1,0
59943083851,0,-1,-1,-1,-2,-1,-2,-2
59943083851,-1,-1,1,-2,-1,-1,-2,1
59943098379,-2,0,-1,-3,0,1,-3,-2
59943098379,0,0,-1,-1,-2,-2,-1,-3
59943099261,-2,-1,-3,-2,-1,1,-2,-1
59943099261,-2,-1,-3,-1,0,-1,-1,1
59943106760,-1,-3,0,0,0,-2,-1,-2
59943106760,-1,-1,-1,-2,-2,-1,-1,1
59943122328,0,-1,1,-1,-1,-2,-1,-1
59943122328,-1,-1,1,-1,-1,-1,-1,1
59943123664,-1,0,-2,-3,0,-1,-2,-1
59943123664,-2,-1,-1,-1,-1,-2,-1,0
59943144370,-1,-1,-3,-1,-1,0,0,-2
59943144370,-2,-2,-1,1,-1,0,-1,1
59943145811,-1,-1,-3,-1,-1,-2,0,0
59943145811,0,0,0,-1,-1,0,-1,3
59943157823,-2,-2,0,-2,-1,-2,-1,-14
59943157823,0,0,-1,-4,-2,-1,-1,4
59943166794,-2,0,0,-1,-2,0,-2,-1
59943166794,-1,0,-3,0,0,-2,-1,-1
59943181642,1,0,2,-1,-2,-1,-2,1
59943181642,0,-4,-3,0,0,0,-2,-3
59943183322,-1,-5,-3,-2,-1,-3,-1,-2
59943183322,-3,2,-2,0,1,-1,-1,-1
59943204067,-1,-3,-4,-2,-1,-2,-2,0
59943204067,0,0,-2,-1,-1,-1,1,-1
59943205654,-1,-1,0,0,-2,-1,0,3
59943205654,0,-2,-1,-2,1,0,-2,-2
59943226831,3,4,-3,-1,-1,-1,2,1
59943226831,-4,-5,0,-1,-1,-1,-3,-1
59943228333,0,-1,0,-2,-1,-1,0,-1
59943228333,-2,-1,1,-2,-1,-3,-3,-2
59943241649,1,0,-1,-2,-3,-1,-1,1
59943241649,2,-2,-1,-1,0,-2,-1,0
59943243233,-1,0,-3,0,0,-1,1,-1
59943243233,-1,-2,-1,-1,-2,0,-2,-2
59943264077,-4,-2,-1,0,-1,-1,-3,2
59943264077,-1,1,0,-1,-1,-2,-2,-3
59943265649,-4,-1,-1,-1,-1,-2,-1,-2
59943265649,0,-1,-1,-1,0,-1,-1,-3
59943286793,-1,-1,-1,-2,-1,0,-2,-1
59943286793,-1,0,-3,1,-1,0,-1,-1
59943288356,0,1,-2,-1,-1,-1,0,0
59943288356,0,-2,-1,0,-1,-2,-1,1
59943301675,-1,-2,0,-2,-2,-1,-2,-10
59943301675,-2,-1,1,0,-2,-1,1,0
59943303222,-2,0,0,-1,-1,-1,-1,0
59943303222,-1,-1,-2,1,-1,1,-1,-2
59943324354,-3,-4,-2,1,0,1,-1,2
59943324354,0,0,-1,0,-3,-2,-1,0
59943325747,0,-1,-1,-1,-1,-1,-1,-2
59943325747,0,-3,-1,-1,-2,-1,-2,0
