timestamp,emg1,emg2,emg3,emg4,emg5,emg6,emg7,emg8
83533759271,4,-1,1,2,0,0,-1,-3
83533759271,0,1,-2,-6,-2,0,-1,1
83533774252,-11,-4,0,-1,1,0,-1,-3
83533774252,3,4,0,-1,0,1,-2,-2
83533775029,-3,-2,-1,2,-1,-1,-2,-2
83533775029,5,5,2,-3,-2,-2,0,0
83533796707,3,-7,-1,-4,-1,-2,-2,-1
83533796707,20,-2,0,0,-2,1,0,0
83533797555,-6,-4,-2,4,1,0,-1,-2
83533797555,-5,-7,-3,-13,-5,-2,0,-1
83533819953,5,9,0,1,1,-2,-1,-1
83533819953,-12,-9,-1,0,-2,-2,-3,-1
83533820730,0,1,1,1,-1,-2,-1,-2
83533820730,15,3,-1,2,1,1,-1,0
83533834204,-28,-6,-3,2,-1,-2,-3,-3
83533834204,6,7,-1,2,-1,-3,-1,0
83533834985,-1,-5,-4,1,-3,-2,-1,-2
83533834985,-2,11,2,2,0,-2,-1,-1
83533856746,7,7,2,2,2,-1,-1,8
83533856746,-2,-1,-1,-5,-2,0,0,-2
83533857510,-22,-7,-2,-2,-3,-2,-2,-2
83533857510,3,-1,-3,1,-1,-1,-2,-1
83533879916,-1,-9,-2,-2,-1,1,0,-3
83533879916,12,-4,0,-1,-1,-3,-2,0
83533880687,-4,-1,2,-4,-2,1,-1,-1
83533880687,-3,-2,1,9,1,-1,0,-3
83533902482,9,8,0,-13,-1,-2,-1,-2
83533902482,2,0,-2,-2,-2,-1,0,-1
83533903243,-1,-21,-1,-3,0,0,0,1
83533903243,1,-6,-1,1,0,-1,-1,0
83533916758,4,7,-1,1,0,0,0,0
83533916758,-4,-2,-1,-1,0,-1,-2,-1
83533917508,8,10,-1,-1,-2,-1,-2,0
83533917508,2,-1,0,2,1,-1,-1,-1
83533939933,-2,-11,-3,-8,-5,-1,-2,0
83533939933,-8,1,0,0,-2,-1,-1,-2
83533940725,-1,3,1,5,-2,-3,0,-1
83533940725,4,-1,-3,-10,-2,-2,-2,-2
83533954168,0,-4,-2,3,-2,-1,-1,-4
83533954168,0,1,2,0,-1,0,2,-1
83533955010,-6,10,-4,-7,-1,-2,-1,-3
83533955010,-4,-2,1,7,1,-3,1,0
83533976757,1,-2,-1,1,-1,-2,-2,-1
83533976757,-2,12,2,-1,0,0,-1,2
83533977528,-1,-3,-2,-3,0,-1,-1,-4
83533977528,0,3,-1,-3,-1,-1,-1,-4
83533999911,-14,-14,-1,6,0,-2,0,-2
83533999911,-4,1,1,-9,-1,-1,-2,-3
83534000795,2,2,-2,2,-1,0,0,-1
83534000795,-4,-5,1,0,-3,-1,-1,0
83534014315,10,19,0,6,-1,-2,-3,-2
83534014315,4,-6,-4,-11,0,0,0,2
83534015022,-8,-1,0,-1,1,-1,0,0
83534015022,0,-2,-3,1,0,-1,1,2
83534036762,-6,-10,-3,-3,-3,-1,0,-4
83534036762,-3,-9,-2,6,0,-2,-1,0
83534037538,11,13,1,0,0,0,-2,1
83534037538,-6,-3,-5,-6,-2,-2,-4,-3
83534059899,-5,-3,0,12,1,0,-1,0
83534059899,-19,-6,-4,-3,-1,-2,-1,-1
83534060712,12,6,1,-2,-2,-1,-1,-9
83534060712,2,9,-2,4,0,0,0,0
83534074270,2,-6,-1,-3,0,-3,-3,-2
83534074270,2,8,3,-1,-2,-2,-3,0
83534075025,-9,-29,-4,0,-1,-3,-1,-2
83534075025,-10,4,-1,-5,-3,-1,-2,-3
83534096744,-6,-12,-4,-9,-2,-3,-1,-1
83534096744,-4,-9,-2,5,0,0,0,-4
83534097522,0,3,-1,-13,-3,-1,0,2
83534097522,4,-4,-1,-5,-2,-1,-1,0
83534119929,17,4,-3,-5,-1,-1,0,0
83534119929,-9,2,0,8,-2,-1,0,0
83534120730,1,2,-1,5,-1,1,-1,0
83534120730,-8,-2,-1,-2,-2,-2,-1,-2
83534134208,4,5,-1,-17,-3,0,-3,-3
83534134208,8,5,-1,-4,0,-1,0,-1
83534135033,-2,1,0,6,1,-2,-1,1
83534135033,11,3,-3,-7,-2,0,0,1
83534156772,-6,14,5,8,2,1,1,-2
83534156772,9,-18,-1,-1,-1,-1,-1,0
83534157543,-9,-6,-5,-7,-3,-2,-3,0
83534157543,4,-12,-2,7,0,-1,-1,-1
83534180365,-2,6,-1,1,-1,-1,0,0
83534180365,-2,1,-1,-3,0,-1,0,0
83534181156,1,3,1,9,2,-1,-1,0
83534181156,-1,-4,-1,-1,0,-1,0,1
83534194258,-1,-10,-2,-6,-4,-1,-1,-1
83534194258,-6,-5,-1,1,5,0,0,-1
83534195054,-2,3,-3,-16,-10,-1,-1,-3
83534195054,-8,-4,1,1,-1,-1,1,-1
83534216756,-2,-5,-2,3,0,-2,-1,1
83534216756,13,11,0,4,-2,-1,-2,-1
83534217537,-7,3,-1,-4,1,-1,0,-1
83534217537,-5,-4,0,1,0,0,-2,-2
83534239940,0,-2,-2,-21,-5,-1,1,-2
83534239940,6,3,-2,-3,-3,-2,-1,-2
83534240675,-4,-7,0,3,0,-2,-1,1
83534240675,-6,2,0,-1,0,0,0,0
83534254286,-5,-6,-3,2,1,-1,0,0
83534254286,3,1,0,2,-2,-1,0,0
83534254997,13,10,0,-10,-1,0,0,2
83534254997,-2,0,1,12,0,-1,-2,-3
83534276967,1,3,1,-6,0,0,-1,0
83534276967,-2,-3,-3,-5,-3,-1,1,-2
83534277566,1,0,0,5,0,-1,-2,0
83534277566,-3,-4,-2,-8,-1,-1,0,0
83534300596,3,1,0,12,0,-1,-1,-1
83534300596,-8,-1,-2,-4,-1,0,-1,-1
83534301261,-8,-16,-7,-15,-3,0,-1,-3
83534301261,-1,4,4,-2,-2,0,-2,-2
83534322448,-4,-3,-8,-4,-2,-1,-3,0
83534322448,-6,-3,-3,13,5,-1,0,-1
83534323201,-2,3,1,-3,-10,-2,-3,-2
83534323201,-1,-3,-3,6,1,-2,-2,-4
83534336707,-2,-4,2,-5,-1,-6,-2,-1
83534336707,-1,2,12,-3,2,11,1,-2
83534337528,4,1,-3,1,4,-7,0,1
83534337528,0,1,10,-6,-3,-2,-2,1
83534359961,-4,-2,-10,23,-4,-2,-4,-3
83534359961,-5,-3,-4,-15,-1,-3,0,1
83534360785,-1,-2,0,14,3,4,0,1
83534360785,-1,0,2,-23,-5,-3,0,-2
83534374199,1,0,1,0,7,1,4,0
83534374199,-3,1,-1,7,-7,0,-3,-2
83534374993,1,0,5,5,-7,3,3,0
83534374993,-2,-2,-10,-6,-4,-2,-3,-1
83534396724,-2,-2,1,10,1,-1,-5,-4
83534396724,-2,0,-6,-10,0,-9,-4,-2
83534397475,4,1,3,15,4,4,6,3
83534397475,-5,-2,-1,-7,-3,4,2,-2
83534419673,-3,-2,-2,-13,-8,-6,-1,-1
83534419673,-4,-2,-3,0,-7,-9,-4,-4
83534420479,-1,-24,-8,-2,2,-7,-8,-5
83534420479,-2,-5,-1,12,7,0,-3,-2
83534433517,5,1,1,0,1,0,-3,2
83534433517,10,0,-1,-1,-6,7,10,3
83534441798,0,9,2,-10,2,3,0,5
83534441798,-19,-13,-15,-10,-9,3,-8,-15
83534456966,-5,-4,3,10,6,-8,0,3
83534456966,3,3,1,3,0,-15,-7,-4
83534457561,-19,3,0,-2,4,13,2,-6
83534457561,1,1,1,-7,-9,-12,3,-1
83534480027,-8,3,2,4,1,13,1,-7
83534480027,8,-1,-3,-6,1,2,-8,6
83534480802,14,5,-3,-3,2,-4,-3,3
83534480802,1,0,-1,2,0,0,2,-2
83534493785,3,-2,-1,-7,-9,-16,1,3
83534493785,-2,1,-1,-5,8,-3,-2,1
83534509485,0,-1,0,11,7,12,-4,-1
83534509485,-6,0,-1,-6,-4,-5,0,-52
83534516937,5,-2,0,6,5,31,0,28
83534516937,-1,-4,2,2,-7,-24,0,-3
83534517569,-4,3,-5,-15,-5,-19,-4,-6
83534517569,-11,-19,-1,2,-6,4,-4,1
83534540032,6,1,0,-1,7,0,1,6
83534540032,-7,-7,-6,-8,7,17,0,-3
83534540845,18,12,0,12,-11,-4,-1,-3
83534540845,0,4,0,-3,8,-9,3,11
83534553628,-3,-1,1,-8,-6,1,-17,-8
83534553628,-5,-1,-1,-7,-1,-17,6,10
83534561931,-10,-4,1,3,1,20,-2,-16
83534561931,6,2,-4,-7,-3,-3,3,13
83534576795,-5,-1,-3,-8,-13,-23,8,-6
83534576795,2,8,-2,4,-2,14,-15,-10
83534577544,-2,-5,-2,-4,5,-21,0,-1
83534577544,9,4,2,16,21,14,-5,13
83534599975,13,-3,0,-6,-8,-13,-11,-25
83534599975,-18,1,-1,0,-9,0,6,1
83534600735,-8,-4,0,0,2,31,-2,8
83534600735,5,0,-6,-2,2,-15,6,-8
83534622682,-15,2,2,8,5,-6,13,21
83534622682,11,-1,-7,-8,-8,-3,-2,8
83534623248,7,1,-2,-5,-6,14,2,11
83534623248,16,-17,-3,-9,-21,-3,0,-2
83534636952,-10,-13,1,2,6,10,6,-11
83534636952,-17,0,-3,-11,-9,6,-12,-11
83534637506,7,-7,-2,2,1,-25,-1,5
83534637506,4,8,3,-4,12,19,-21,7
83534659971,-6,-1,-8,-5,-8,1,27,3
83534659971,1,-10,-3,2,-6,5,-4,8
83534660817,3,3,8,-1,-10,-46,-13,-28
83534660817,7,7,2,7,12,9,7,12
83534673781,9,8,3,3,6,15,-11,-14
83534673781,-33,-1,-4,1,-4,13,11,12
83534681909,7,5,7,4,-5,-18,1,-29
83534681909,61,3,-5,-3,-6,-4,-7,25
83534696955,-29,0,4,6,3,-16,3,16
83534696955,40,1,0,-1,12,39,12,-27
83534697554,-22,-3,-2,-3,6,-7,-33,25
83534697554,-3,15,5,-3,-10,1,18,10
83534719983,4,-5,-7,-10,-1,8,-10,-16
83534719983,18,2,-2,3,-12,-32,-2,29
83534720759,2,-1,0,-14,4,14,13,20
83534720759,-34,-2,-6,6,6,-29,6,-9
83534742675,-13,4,-4,-17,5,17,-11,-1
83534742675,-2,10,2,6,-18,-11,2,-2
83534743266,28,-7,4,-11,-12,-8,-6,-6
83534743266,-9,-5,-1,12,-11,10,-2,-6
83534756776,1,7,-2,-2,5,8,-5,-22
83534756776,-27,-24,-5,-2,10,9,5,-2
83534757602,-7,0,-6,2,-8,2,-8,7
83534757602,17,-1,8,11,1,-17,-3,-37
83534780161,-23,-6,1,6,-8,-4,1,9
83534780161,0,-2,6,6,9,16,2,-5
83534780780,17,-6,-16,-16,-7,-16,-2,35
83534780780,32,19,-1,1,-7,-13,2,-11
83534802528,-37,-12,-2,-15,-4,-2,-13,-13
83534802528,24,3,4,3,4,-8,-3,10
83534803255,-56,-15,-6,0,6,34,22,-34
83534803255,-15,6,5,13,-6,-26,-31,8
83534816992,30,-13,-19,-30,-7,-21,-9,12
83534816992,-34,-3,-3,-6,-1,12,10,-39
83534817538,20,6,-6,6,-1,-4,14,13
83534817538,12,-5,9,10,9,32,5,26
83534839993,-48,10,2,8,-4,-6,-1,-49
83534839993,20,7,0,-1,-3,-23,-11,13
83534840739,-43,4,1,5,2,4,3,-7
83534840739,-23,-3,-4,2,7,13,5,26
83534862679,34,3,2,-8,-20,4,1,-15
83534862679,40,14,-2,4,1,-11,-5,32
83534863340,-30,-2,7,7,-3,0,0,-26
83534863340,-1,-5,-8,-8,-17,-7,-9,-1
83534876841,28,1,3,9,14,8,-1,5
83534876841,-1,2,1,1,1,6,1,-9
83534877610,26,-8,-12,-12,-2,-5,-3,2
83534877610,-2,-5,3,1,3,11,8,-4
83534900171,12,-3,0,6,-9,-14,-2,41
83534900171,-5,2,2,-4,4,-9,-6,-15
83534900767,-8,2,-1,1,6,9,-2,-13
83534900767,7,2,1,-7,-9,-3,2,9
83534922648,2,4,20,23,10,3,4,14
83534922648,-31,-10,-10,-14,-4,-5,-2,3
83534923270,24,5,-1,-3,0,-3,-4,1
83534923270,-9,-8,1,-3,12,7,-2,-1
83534938034,-4,0,-1,21,-4,0,6,-14
83534938034,0,-2,8,-17,-8,-2,-1,-9
83534938828,10,-2,-11,-10,-6,3,2,10
83534938828,-26,-19,1,-4,-2,0,-1,-33
83534960199,9,-3,-12,-20,3,-3,-1,4
83534960199,29,5,2,19,4,-3,-1,11
83534960778,3,1,0,3,-2,2,1,34
83534960778,-43,3,-3,-21,2,-2,-5,-34
83534982456,-7,0,11,13,5,0,-1,-3
83534982456,27,-3,-11,-6,-6,-5,-10,-39
83534983221,-7,-5,-7,-14,9,-8,1,-4
83534983221,-6,-4,-1,2,-19,3,0,5
83534996761,3,1,-9,-27,-14,-7,-4,-8
83534996761,-10,4,1,23,9,0,-6,12
83534997483,33,13,12,10,7,-1,3,-8
83534997483,14,-1,-10,11,13,3,11,8
83535019957,8,4,0,-10,-4,0,-4,8
83535019957,-33,24,2,-10,5,3,6,-14
83535020774,20,-6,3,7,-10,-3,-2,14
83535020774,11,4,-3,5,-2,1,0,2
83535042372,1,1,-3,-22,0,-3,-1,11
83535042372,64,5,11,28,14,6,9,38
83535043151,-25,-22,-5,-3,-6,2,5,20
83535043151,-42,-15,-10,-9,-2,-1,-3,-49
83535056788,32,21,12,25,8,3,15,78
83535056788,9,-20,-18,-20,-4,-1,-16,-49
83535057532,23,-5,2,1,-6,1,29,3
83535057532,-35,-5,2,3,4,0,-7,9
83535079924,7,4,3,24,9,3,-9,-25
83535079924,-9,-9,-8,-8,-6,-6,-2,5
83535080743,-19,2,-5,-19,-5,1,1,-19
83535080743,0,18,-3,-3,-2,-6,-11,58
83535102511,8,-6,-4,11,5,0,-2,12
83535102511,-88,-13,-1,-8,-18,-13,-16,-16
83535104083,27,16,3,-3,5,0,-1,22
83535104083,21,9,-10,-1,6,7,-5,-1
83535116321,-8,-14,-11,-33,-19,-10,-21,-46
83535116321,3,9,-10,2,1,-8,17,13
83535125064,-30,7,11,17,9,-1,-39,-108
83535125064,27,3,-3,-8,-14,3,45,71
83535139914,8,-12,-10,-11,-1,3,-2,-45
83535139914,5,-1,4,-2,7,2,-44,84
83535141579,-20,-5,-4,3,-2,-14,44,34
83535141579,26,-14,-10,-36,-33,7,-6,-25
83535162659,-18,0,-1,2,-17,-32,28,-5
83535162659,-26,-7,0,-4,14,52,-27,-48
83535164155,4,17,3,30,18,74,56,68
83535164155,30,-7,8,12,20,-91,-72,20
83535176241,-16,-12,-1,2,2,-14,33,13
83535176241,-20,-9,7,6,-3,-4,-15,-83
83535185092,-12,0,0,1,-17,-18,-57,-14
83535185092,4,10,8,-7,-6,32,28,-11
83535200181,3,0,-10,-20,-15,0,-24,-34
83535200181,14,-5,-5,3,-4,-22,22,14
83535201549,15,-16,-5,-6,-4,5,-16,-61
83535201549,-46,0,-12,-7,-3,0,20,-1
83535222452,-10,-9,2,1,19,3,-20,-7
83535222452,-7,12,10,3,14,18,23,16
83535224112,8,-3,-12,-30,-40,-23,-3,4
83535224112,11,-5,13,22,4,-6,-16,-3
83535236308,-4,10,-8,-3,13,13,0,-3
83535236308,-22,-17,-4,7,2,10,22,0
83535245129,-4,0,4,-2,9,-15,-19,-8
83535245129,7,2,6,3,-6,-4,4,-12
83535260206,-12,-1,12,15,6,20,-4,-6
83535260206,28,5,1,8,-7,-11,31,17
83535261565,-64,-33,-13,-18,6,-7,-24,-59
83535261565,-22,4,7,10,5,14,1,-1
83535282635,27,11,5,8,-1,4,11,35
83535282635,7,1,-7,-16,-10,-22,-14,-14
83535284060,-7,21,16,8,4,3,-2,6
83535284060,7,-5,-13,8,9,11,3,-5
83535296285,-13,-3,5,0,0,-5,-6,-10
83535296285,17,-1,1,-1,-2,-4,1,10
83535305062,4,11,-1,-4,-40,-7,3,8
83535305062,23,-9,0,-14,-1,-2,-4,-6
83535319985,14,9,0,9,0,2,-2,16
83535319985,-17,-5,0,-1,7,-1,-8,-13
83535321565,26,-13,3,11,20,-3,1,19
83535321565,-54,-5,-10,-7,-6,-4,-11,-34
83535342695,-11,-2,-3,20,-2,7,0,14
83535342695,-6,-1,-1,-1,0,1,1,5
83535344121,34,1,-9,-11,1,-7,-2,38
83535344121,31,7,10,4,10,8,3,-28
83535356049,12,-9,-9,-10,1,-2,-12,-6
83535356049,-14,-14,-6,-10,-15,-5,4,-26
83535365077,-5,-1,3,5,7,-3,2,38
83535365077,-4,-5,-6,6,6,-1,1,5
83535379969,-13,-29,-14,-17,-22,-4,-6,-10
83535379969,15,10,5,-7,-5,-5,-8,-4
83535381521,-1,6,5,-2,2,-2,-1,-17
83535381521,47,3,-19,9,-11,9,10,36
83535402516,-49,-14,-10,-12,2,0,3,-38
83535402516,7,0,4,5,-2,-1,4,10
83535404103,-9,-3,-3,-1,6,-5,4,10
83535404103,-14,2,9,4,5,-3,-4,-19
83535416089,22,13,17,11,2,6,5,19
83535416089,-7,-8,-10,2,4,-6,0,13
83535425068,1,12,0,-2,2,16,5,-12
83535425068,-18,-11,11,-4,-5,-1,1,17
83535440068,9,1,-7,-16,-5,-3,3,2
83535440068,28,3,3,-11,-3,-3,-1,5
83535441569,2,-3,-8,5,5,-3,4,24
83535441569,-33,4,3,1,2,-2,-1,-17
83535462465,-31,-8,-2,-7,-31,-12,-6,0
83535462465,17,8,8,10,-1,-3,-8,27
83535464043,11,-9,-9,11,-3,-1,1,27
83535464043,-5,-7,-2,-7,7,2,-2,-71
83535476169,29,6,2,-19,12,2,21,94
83535476169,0,10,-7,24,7,8,0,-10
83535485120,-13,-3,-3,0,-6,-4,-10,-75
83535485120,-23,-17,-4,-8,-2,-1,9,6
83535500765,65,19,6,37,13,-2,-2,-11
83535500765,19,6,-5,-66,-26,-7,-5,26
83535506173,-4,2,1,17,3,-2,-11,-6
83535506173,13,8,2,13,0,-2,-4,-19
83535522464,-3,-15,-11,-2,-1,-2,-19,-15
83535522464,-53,-10,-3,15,2,-1,-3,-36
83535524089,-1,-9,-2,-5,-4,-7,-4,6
83535524089,74,10,2,-22,-4,2,-11,19
83535536304,-13,24,3,39,9,-1,15,69
83535536304,2,2,1,-10,-9,-10,-48,-122
83535552568,46,-4,3,-56,-15,6,29,32
83535552568,-56,-16,-4,3,5,6,13,58
83535559301,6,-5,1,31,1,-18,-30,-41
83535559301,-3,-6,-10,-45,-3,11,29,-7
83535566078,-16,1,5,28,7,1,12,50
83535566078,22,11,-5,-33,-13,0,-3,-12
83535582419,12,-6,3,-3,-7,-6,-25,-12
83535582419,-6,-3,1,37,17,-7,14,31
83535584090,-9,7,3,21,11,12,7,-36
83535584090,-13,-22,-1,16,-14,5,-31,-52
83535596163,-7,-3,-11,-23,6,21,33,17
83535596163,-37,-24,-4,1,-15,-14,2,-20
83535605093,-2,-2,-3,6,0,-29,-21,-38
83535605093,-17,21,0,24,11,1,-11,14
83535619412,3,-5,-2,-16,0,4,-5,-10
83535619412,19,5,3,-2,1,16,6,16
83535626275,-11,0,-3,-11,5,1,-13,-26
83535626275,-10,3,-2,-18,-12,-12,4,17
83535642417,-23,1,0,-16,-14,-7,-6,-47
83535642417,5,-4,-3,23,3,2,5,31
83535648604,-14,2,5,15,1,-4,-5,-7
83535648604,11,3,-7,-14,1,-5,2,-16
83535656106,-5,-3,-6,-1,1,5,10,-3
83535656106,5,0,6,15,4,-2,-5,1
83535665090,1,-4,3,-1,-5,1,-2,0
83535665090,5,-5,-2,-37,2,1,9,14
83535679310,-23,-1,3,-4,-2,-2,-5,-25
83535679310,1,0,-4,3,0,-4,-4,14
83535686112,3,4,-2,8,2,1,-4,-2
83535686112,24,3,-1,4,2,1,5,0
83535702523,-12,-1,1,7,0,-4,0,-7
83535702523,7,2,-1,-6,0,0,-4,6
83535704080,-1,-21,-7,-24,-3,3,4,6
83535704080,-4,14,4,24,2,-2,-2,-5
83535724991,16,-4,-4,-16,-5,-2,5,20
83535724991,-33,-2,3,4,3,3,-2,-16
83535726596,6,3,-4,-4,-1,-1,-5,-5
83535726596,-9,0,2,12,-1,-4,2,1
83535739285,-8,-4,2,-8,5,2,-6,-10
83535739285,17,-4,-3,5,-3,-1,3,23
83535746191,-29,4,-3,-14,-3,-1,2,0
83535746191,9,-2,-3,-8,-3,-4,-2,0
83535762665,-11,-2,1,2,4,2,5,-4
83535762665,15,-1,0,0,0,4,-4,7
83535764101,-6,-4,-4,2,-3,-1,-3,-7
83535764101,-6,-8,0,7,-2,0,1,-1
83535785133,-4,-3,-1,-6,-3,-5,-2,7
83535785133,2,11,1,-10,-4,-17,-3,6
83535786539,4,-3,0,2,-2,6,-4,-8
83535786539,-11,0,-3,-3,2,11,5,0
83535798752,5,1,1,9,-2,-16,-1,-6
83535798752,-5,-3,-6,-21,-4,3,-2,-1
83535807537,6,8,-1,1,-3,-5,-5,4
83535807537,-3,-4,-4,3,-3,-1,-1,-2
83535822395,1,1,-2,-8,-3,6,5,-1
83535822395,0,-2,0,7,0,0,-1,4
83535823984,3,0,0,0,0,-8,-7,-18
83535823984,-3,-2,-1,3,-1,-4,-3,-3
83535844963,3,-3,-2,-20,0,4,1,1
83535844963,-3,-1,3,15,0,1,5,0
83535846625,2,0,-3,-51,-7,4,2,-2
83535846625,-6,-4,-2,-14,-3,-3,-2,-2
83535858667,-2,3,0,29,1,-9,-4,-6
83535858667,-2,-1,-3,1,5,6,-1,-1
83535867612,3,1,2,6,1,8,1,1
83535867612,0,-1,0,6,3,1,2,1
83535882578,0,2,0,-10,-2,-8,-6,-5
83535882578,-3,0,1,-4,-2,-1,-3,-1
83535884108,-3,-5,0,13,-6,-9,-11,-4
83535884108,-3,-3,-10,-37,-5,2,3,0
83535904977,-3,2,2,14,1,10,-2,-4
83535904977,2,2,3,16,2,-14,-3,-2
83535906554,-4,0,-3,-43,-7,4,2,1
83535906554,-1,-2,-3,41,4,-6,-2,-1
83535918801,-3,-5,-4,-56,-9,6,-3,-1
83535918801,-12,-6,-6,-21,-6,-5,-5,-3
83535927629,2,3,8,55,13,1,7,0
83535927629,-8,-5,-7,-72,-21,2,-1,-3
83535942599,-4,-5,-2,0,-5,-2,2,-2
83535942599,-4,-14,-3,-7,1,-1,-4,0
83535944092,0,-1,-6,-43,-14,-2,0,-3
83535944092,-3,-1,2,41,15,-2,-4,-4
83535965161,6,-1,-2,27,1,3,3,1
83535965161,3,11,2,-30,-7,-1,-2,-5
83535966660,-1,2,5,19,8,1,-2,1
83535966660,2,-2,1,44,1,-11,-2,-2
83535980264,-1,-4,-10,-51,-17,-5,-3,-3
83535980264,2,1,2,33,12,3,-3,0
83535987695,2,-1,-2,27,12,11,5,2
83535987695,-3,1,3,-3,3,13,1,2
83536002519,-2,2,-3,-16,-20,-23,-3,-3
83536002519,3,0,1,2,4,1,2,2
83536004048,-2,-3,-6,-8,-4,-10,-7,-1
83536004048,-2,-3,-1,-19,-5,-2,-1,3
83536024856,-3,-3,2,10,12,14,4,0
83536024856,10,6,4,15,-7,2,3,3
83536026507,-3,-4,0,47,6,-5,-2,-3
83536026507,2,1,-7,-84,-19,-8,-5,-2
83536038602,-3,4,-2,6,4,1,0,-1
83536038602,-4,-15,-4,0,-6,-2,-1,-1
83536047565,7,4,1,-10,0,2,2,-12
83536047565,-8,-15,4,47,7,-2,-5,13
83536062632,-6,-3,-7,-65,-12,-5,-6,-5
83536062632,0,4,1,9,1,1,6,-3
83536064112,-9,-8,-3,-24,-8,2,1,-2
83536064112,0,-3,-2,-15,-2,3,2,-4
83536085005,0,-6,-2,32,5,-3,-9,-2
83536085005,2,2,-2,22,3,-4,0,2
83536086587,-5,-3,-4,7,0,-10,0,0
83536086587,5,4,5,2,-2,8,1,-3
83536098700,0,2,4,10,3,0,-1,0
83536098700,-6,0,-5,-7,-1,7,-5,-5
83536107650,2,2,0,1,-4,-4,-3,2
83536107650,-2,14,0,42,6,-4,-3,-2
83536122514,17,-9,3,34,8,-4,0,0
83536122514,0,3,-2,-51,-5,1,1,2
83536124027,3,0,-5,-50,-12,1,-1,0
83536124027,1,4,2,14,-1,-3,-2,-3
83536145190,-4,1,0,12,0,3,1,1
83536145190,-1,-5,-6,-42,-13,-6,-2,0
83536146603,0,-2,1,-6,-2,0,0,2
83536146603,-1,-3,-4,-5,-1,-6,-2,-5
83536158675,-3,-14,-1,28,7,2,-1,-6
83536158675,-8,-8,2,6,3,7,2,2
83536167622,14,10,3,15,3,0,-3,1
83536167622,-4,-9,-5,-38,-8,-4,-1,1
83536182532,-2,5,1,7,5,-1,-2,-19
83536182532,-2,-23,-6,17,-5,-7,-4,4
83536184084,9,-7,-4,4,-3,2,-1,0
83536184084,-2,5,4,25,7,5,1,-2
83536205019,-2,5,1,5,-4,-11,0,0
83536205019,3,8,-1,23,7,7,-1,-4
83536206536,-6,-2,-4,-14,-15,-5,-3,0
83536206536,3,-7,-1,33,0,-3,-2,-4
83536218791,-3,5,-2,14,5,5,1,6
83536218791,-2,2,2,-10,-5,-4,0,-2
83536227607,-5,-2,-5,-26,3,-6,-2,1
83536227607,-9,14,2,22,3,-2,-1,-5
83536242691,7,-22,-3,-45,-14,0,-2,4
83536242691,1,5,3,20,5,1,-1,-2
83536244144,-4,-4,-1,12,-2,1,-3,-3
83536244144,-3,-4,-5,-25,0,-3,-1,-1
83536280704,-6,5,0,-18,-6,1,1,2
83536280704,1,1,1,-12,1,-2,-2,2
83536282270,10,-1,-2,5,-5,-3,0,1
83536282270,5,5,3,11,5,-2,0,4
83536283093,-2,4,-1,-8,1,2,0,0
83536283093,-5,-4,-5,-16,-6,-3,-3,-4
83536287625,1,-1,0,15,7,-1,-1,-9
83536287625,-6,-18,-2,-9,-9,-3,-2,-1
83536302443,1,3,-4,-39,-7,-1,0,4
83536302443,-18,-23,-3,14,1,-2,-2,-4
83536304030,-1,-3,1,17,9,1,-2,0
83536304030,3,-4,-3,-26,-12,-2,-3,-4
83536324887,-4,4,3,9,5,0,-3,0
83536324887,-1,4,-1,7,-1,-6,-2,-3
83536326544,-6,1,-3,20,-5,-1,0,0
83536326544,-1,-7,-5,-35,-8,-1,0,-2
83536338648,0,2,0,12,3,4,2,4
83536338648,6,5,-1,7,1,0,0,-1
83536347564,-9,-4,-1,-3,1,0,-2,-2
83536347564,6,7,-2,-21,-2,-3,0,-2
83536361751,-3,5,2,21,1,0,-1,6
83536361751,1,4,-1,-6,2,-1,0,0
83536368596,-3,-4,-1,6,-1,-1,-2,2
83536368596,-2,-3,0,-52,-10,-2,-1,-1
83536385152,-1,2,-3,17,-1,-1,-1,-3
83536385152,-2,-1,3,15,0,0,-1,-1
83536386607,-10,-12,-3,0,2,-1,0,2
83536386607,-4,-3,-2,17,1,-2,-1,-2
83536398567,-4,-2,3,-7,5,0,0,-3
83536398567,-10,-5,-4,-71,-17,-2,-4,0
83536407536,-5,-2,-2,47,3,-3,-2,-4
83536407536,1,3,6,59,13,2,-1,1
83536421769,-1,7,-8,-78,-16,-2,-3,-4
83536421769,2,6,1,53,7,-1,-1,-1
83536428568,11,7,3,-28,-1,1,0,1
83536428568,-1,-5,0,24,3,-2,0,2
83536444884,-4,2,-1,41,4,1,0,-2
83536444884,-27,-6,-2,-4,-3,1,-1,-1
83536451130,-3,3,0,-28,-5,-1,-1,-1
83536451130,-1,2,-4,-1,1,0,1,0
83536458811,-2,-26,-4,20,-2,-2,-2,-4
83536458811,10,1,6,62,20,3,1,0
83536467635,-1,-15,-14,21,-13,-5,-1,-2
83536467635,9,6,16,-14,24,8,6,2
83536481967,0,21,-25,-74,-47,-15,-9,-6
83536481967,0,13,14,82,27,6,3,4
83536488664,-13,-1,-11,-84,-31,-3,0,8
83536488664,-5,1,6,99,9,-6,-4,-2
83536505114,-1,-5,-14,-62,-9,-1,0,-1
83536505114,8,25,11,72,7,1,-1,-1
83536506532,-4,-22,-15,-72,-14,-3,-1,-5
83536506532,-4,6,-9,-16,-7,-1,-4,-3
83536518796,12,-9,12,82,13,2,1,1
83536518796,3,-4,-11,-68,-18,-5,-3,-1
83536527672,0,6,8,44,1,1,3,0
83536527672,-16,-10,-8,-20,-9,-3,-4,2
83536541970,3,-5,7,53,17,0,-1,-5
83536541970,0,-12,-10,-75,-12,-3,0,-1
83536548783,4,19,10,20,17,1,-2,0
83536548783,-7,-6,-6,-8,-5,-3,-2,-6
83536565129,11,11,11,53,13,4,3,-4
83536565129,2,-20,-5,-59,-16,-1,-1,10
83536566551,3,7,2,18,5,-1,-3,-3
83536566551,-2,-6,-7,0,-6,-1,-2,-2
83536578818,-5,-2,0,-7,7,1,1,1
83536578818,4,2,-3,-23,-9,-4,-2,-3
83536587609,22,6,5,21,17,0,-1,1
83536587609,-4,8,-1,-11,-17,-2,2,0
83536601893,-8,-7,2,5,3,1,2,-2
83536601893,14,14,-1,-11,-2,-1,-1,6
83536608737,5,-15,-2,32,8,1,-1,2
83536608737,-5,5,1,-14,2,1,0,-4
83536625147,-19,17,2,8,-2,-1,-2,-10
83536625147,9,-1,-4,21,2,-5,-3,1
83536626533,-9,-6,0,-4,-2,-3,-4,-10
83536626533,20,3,0,-4,-1,-1,-3,28
83536647647,8,-15,0,7,-1,0,-1,-5
83536647647,1,7,0,9,0,1,-1,-5
83536649047,-7,10,1,8,-3,0,0,-2
83536649047,2,-7,-2,10,0,-2,-1,-4
83536661817,2,6,-5,-62,-9,-2,-4,4
83536661817,-15,-34,-3,-2,3,-1,1,-4
83536668717,-1,1,-2,0,-8,-4,-1,2
83536668717,8,-34,0,10,1,-1,0,-8
83536684954,-12,-10,2,14,6,1,2,10
83536684954,2,15,0,-14,-2,-1,-1,-12
83536686522,-11,12,4,9,1,0,-2,-5
83536686522,-3,0,-9,-78,-7,-4,-1,3
83536707483,6,5,2,8,3,0,0,2
83536707483,-7,-14,-1,1,-5,-2,-2,-2
83536708984,-7,-1,-4,0,-1,-1,-1,-3
83536708984,10,6,1,4,0,0,0,-5
83536721894,2,10,7,16,8,0,1,-1
83536721894,9,8,-5,-17,-15,-3,-1,4
83536728634,-12,-16,1,-6,4,1,2,0
83536728634,-4,12,3,39,5,0,-1,-9
83536745136,-1,-5,-7,-19,-3,0,-3,-4
83536745136,8,8,1,-14,-1,-2,-2,0
83536746568,14,14,1,-8,0,0,-1,2
83536746568,-8,1,0,32,2,-2,-1,0
83536767446,-5,-2,-1,18,-6,-4,-3,-3
83536767446,-1,-7,-8,-17,-4,-1,-3,-6
83536769144,13,-3,-1,10,1,-3,0,2
83536769144,-8,17,1,-13,-1,1,-2,-5
83536781081,1,-6,-1,4,-2,-2,-1,-2
83536781081,-8,-7,-6,4,-3,0,0,-3
83536790142,-11,-8,-5,-37,-5,-2,-3,-3
83536790142,-4,-9,-1,-1,-1,-3,-3,-2
83536805161,-7,-4,1,3,5,0,0,-3
83536805161,-5,1,-1,-3,-5,-1,-1,-2
83536806577,2,1,0,8,1,1,1,0
83536806577,-11,-31,0,-4,2,-4,-2,-5
83536827647,-9,-6,-5,16,-3,-1,-3,-2
83536827647,0,0,0,-27,-3,-2,0,-2
83536829019,1,9,2,9,-3,-2,-2,1
83536829019,14,7,-2,-5,-1,1,0,-3
83536841286,-12,-19,-3,-11,-1,-2,-2,-2
83536841286,-5,-11,2,46,6,1,-1,-1
83536850129,-7,-6,-2,-21,-4,0,0,-2
83536850129,7,-1,-5,-7,-4,-1,1,0
83536865107,3,2,1,-7,2,2,1,-1
83536865107,-3,12,-1,-18,-7,-1,-1,0
83536866550,-1,-5,0,1,2,0,-2,2
83536866550,-7,-4,-3,3,-8,-2,-1,-2
83536887646,-4,3,-3,2,-1,0,-1,3
83536887646,5,0,2,-4,6,0,-2,-8
83536889058,1,-1,-2,17,-3,-2,-1,0
83536889058,6,3,-3,4,-1,-1,-3,0
83536901143,-5,2,-1,0,-1,-1,-2,-1
83536901143,5,0,-2,0,0,-2,0,0
83536910096,-17,-4,0,16,1,0,-3,-4
83536910096,2,1,-1,-24,-4,0,0,1
83536925130,0,-2,-2,-13,-3,-3,-2,-4
83536925130,-8,-5,-1,29,5,2,-1,0
83536926590,5,4,0,-21,-1,1,-1,-3
83536926590,-11,13,0,7,3,-1,-2,1
83536947482,6,7,0,1,-7,-2,-4,1
83536947482,-17,-7,-1,-15,1,-1,-1,-3
83536949072,9,-1,-1,-20,-4,0,-1,1
83536949072,3,5,0,-3,2,-1,-2,-4
83536962335,2,14,0,21,0,0,-2,1
83536962335,9,10,3,4,-2,-1,-1,1
83536968590,3,12,3,21,4,1,2,-3
83536968590,-4,-4,-2,-4,-4,-3,-2,10
83536984966,6,28,1,8,3,2,0,0
83536984966,10,-10,-3,-5,-5,-2,0,0
83536986548,-36,0,4,2,1,1,1,-2
83536986548,15,0,-1,-8,-4,0,-1,-3
83537007502,-8,-7,0,1,1,-3,-2,-3
83537007502,3,3,-2,-29,-4,-1,-2,0
83537009022,4,-15,-3,1,-1,-1,-2,-1
83537009022,-10,-5,-3,1,1,-1,0,-3
83537021813,3,-6,0,-15,-2,-1,0,2
83537021813,-22,-4,-2,-5,0,-2,-2,-1
83537028808,24,30,1,-4,-2,-1,-2,-1
83537028808,-10,-14,-1,17,0,1,0,-3
83537044977,8,-3,-5,-50,-8,-1,1,-2
83537044977,0,-13,-1,37,7,-1,-3,-1
83537046540,-17,-13,-5,-39,-13,-3,-2,-1
83537046540,2,8,2,-4,-1,-2,-1,0
83537067637,-3,-7,-2,18,2,-1,0,-4
83537067637,3,8,-3,-24,-2,-1,1,-3
83537069154,-6,-28,-4,5,-2,-3,-1,1
83537069154,0,-1,0,3,5,0,0,-2
83537081805,-11,-27,-3,7,-8,-2,-1,-4
83537081805,-32,4,1,9,-2,0,-1,1
83537088565,-9,-8,-4,5,2,-2,-3,-1
83537088565,-18,-10,-1,-7,-3,-1,0,-3
83537104875,23,19,2,5,2,0,0,3
83537104875,14,-2,-4,0,-3,-1,0,4
83537106539,-11,-4,-1,10,3,-1,-1,-2
83537106539,-8,2,2,10,1,0,-1,-2
83537127454,-8,-32,-4,0,-2,-2,-3,-1
83537127454,-1,-18,-2,-6,-2,-2,-2,-4
83537129035,29,8,-2,-3,-1,-1,0,-4
83537129035,-2,0,-3,-5,-1,-2,-1,16
83537141311,-3,8,2,9,-6,-2,-1,-4
83537141311,4,0,0,1,1,-2,0,-4
83537150099,-2,-16,0,2,-1,-1,-1,1
83537150099,8,10,-4,-17,-3,-2,-1,-6
83537165163,-23,-5,-4,-8,-1,-2,-1,-2
83537165163,-1,6,-1,8,-1,0,1,0
83537166530,-3,2,-2,1,0,0,-2,-5
83537166530,-27,-26,-9,23,0,-4,-5,-11
83537187521,3,1,0,-52,-10,-2,-3,3
83537187521,-9,-2,0,16,0,-1,-2,0
83537189102,2,4,3,-1,2,0,0,1
83537189102,7,17,0,3,1,0,-1,-2
83537201234,-2,-8,-1,0,-6,-3,0,3
83537201234,15,8,2,2,0,-2,-2,1
83537210082,-1,13,-1,-6,-3,-2,-1,0
83537210082,7,-10,3,-1,-1,0,2,0
83537224949,1,3,0,-5,6,0,-1,-1
83537224949,1,8,-3,3,-6,-2,-1,-1
83537226578,4,8,-3,-4,-3,-1,-2,0
83537226578,9,2,2,-3,0,-1,0,-3
83537247600,-4,-1,0,6,2,0,2,0
83537247600,34,10,2,10,3,0,-2,-8
83537249063,-6,17,5,6,2,0,1,9
83537249063,-4,-10,-2,-5,-4,0,-2,-2
83537261287,1,1,-1,1,0,-1,-2,-3
83537261287,-1,7,-1,7,0,-1,-1,-1
83537270070,-1,-7,-6,-5,-2,-2,-3,-4
83537270070,5,6,3,-9,-2,-1,0,-1
83537285221,7,1,1,31,2,1,-1,-1
83537285221,-2,14,3,-5,-2,-1,-1,-1
83537286575,-10,-19,-3,2,-2,-2,0,-4
83537286575,-6,1,-2,0,-2,-1,-1,-1
83537307448,-6,-1,-4,9,3,0,-2,-3
83537307448,-6,-9,0,0,-1,-1,-1,2
83537309065,-1,0,-1,-3,-3,-1,-2,-1
83537309065,7,-7,-1,-2,-2,0,-1,-1
83537321188,-5,2,-2,0,-1,-2,-1,-1
83537321188,-6,-4,0,-13,-4,0,-1,0
83537330126,-2,-8,-4,-2,1,-3,-2,-4
83537330126,-1,6,0,0,-3,-1,-1,-1
83537344990,-4,-3,-1,-8,-1,-1,-2,-2
83537344990,-4,-21,-4,0,0,-2,-1,1
83537351310,4,1,3,19,6,1,0,-1
83537351310,6,5,-3,-48,-14,-2,-2,0
83537367642,-2,-6,0,-4,-1,-2,0,-2
83537367642,7,-8,-3,-11,-2,-1,-1,-3
83537369066,19,-1,-4,4,0,-1,-2,-5
83537369066,-8,-8,-2,23,3,-1,0,9
83537381280,5,-1,1,-2,1,1,-1,2
83537381280,-1,-3,-1,5,0,-1,-1,0
83537390067,-4,6,0,-8,-4,0,-1,-2
83537390067,-4,-15,-6,1,-2,-3,-1,-5
83537404923,7,8,-1,-6,1,1,-1,0
83537404923,-11,-4,-3,2,-1,-1,-1,0
83537406605,-7,-4,0,-2,-4,0,-1,-1
83537406605,0,2,0,-1,2,0,-3,-4
83537427441,-3,1,-3,-17,-6,-3,-2,1
83537427441,-4,7,-1,23,3,0,0,-2
83537428988,-13,-31,-1,-46,-11,-2,0,2
83537428988,-3,1,1,0,2,0,-2,-3
83537441307,6,1,0,10,2,-1,1,-3
83537441307,8,0,-1,-7,-2,-2,-2,1
83537450136,-3,3,-1,3,2,0,2,-6
83537450136,11,0,1,12,0,0,1,4
83537465175,-2,12,-7,-6,-3,-1,-3,-1
83537465175,-19,-15,-5,-2,-3,-3,-3,-3
83537466606,0,6,0,5,0,-1,-2,-2
83537466606,-4,-3,0,-7,0,-2,-3,-4
83537487519,6,-2,0,4,-1,-2,0,0
83537487519,-2,6,2,-2,1,-1,-1,-2
83537489050,-1,-2,-4,-6,-2,-1,-1,-1
83537489050,-8,6,-1,16,-1,-2,0,-2
83537501098,-4,0,1,-13,-2,-2,-1,-1
83537501098,-4,0,0,26,6,1,-3,-1
83537510054,-2,-4,-2,-18,-8,-2,-1,1
83537510054,-1,0,-2,1,-2,-2,-1,-1
83537524955,-4,0,1,4,4,0,-3,0
83537524955,-3,-34,-4,-6,-7,0,0,-2
83537526545,11,4,-2,8,3,1,-2,2
83537526545,22,5,2,-12,-1,0,2,1
83537547467,0,12,1,7,1,0,-1,-1
83537547467,-14,-7,-3,-16,-3,-1,0,-3
83537549016,24,8,1,9,2,1,-1,11
83537549016,-8,-5,0,-2,0,-2,-1,-2
83537561075,-2,-3,-2,-3,-1,-1,0,0
83537561075,1,3,-3,-2,-3,0,-3,2
83537570111,-15,-11,-3,-2,-1,-2,-1,-3
83537570111,4,7,-2,-2,-1,0,-2,-1
83537584977,-1,-3,-1,15,0,-1,-1,-1
83537584977,2,4,-3,-25,-4,-1,0,-3
83537591189,3,-7,-3,7,2,-1,0,-2
83537591189,-8,0,-1,21,6,-1,-1,-2
83537607644,-2,-13,-1,-18,-17,-3,-2,0
83537607644,4,3,0,2,1,-1,0,1
83537609042,5,7,1,4,2,0,-1,-2
83537609042,-7,-4,-2,-1,-3,-2,-2,-1
83537630134,-5,-5,-3,0,-1,0,-1,-1
83537630134,17,9,3,-2,0,-1,0,2
83537631567,-7,0,-2,1,-4,-3,-1,-1
83537631567,5,-5,-1,0,-1,0,-1,-2
83537644477,-5,-9,-2,-19,-1,-1,-1,-3
83537644477,-5,-24,-3,1,0,-2,-1,-1
83537651098,-16,-12,-6,5,1,0,-1,-5
83537651098,-4,6,3,-6,-4,0,-2,-10
83537667565,-9,-5,-2,1,-3,-3,-1,3
83537667565,-20,6,-4,-2,0,-3,-3,-2
83537669015,0,3,-1,-8,-2,-2,0,-2
83537669015,-11,-11,-6,-12,-3,-1,-2,-3
83537690155,-19,-3,-2,6,0,-1,-1,-7
83537690155,8,9,0,0,-1,0,-1,-2
83537691638,-12,-1,-2,-1,2,-1,-4,2
83537691638,-3,1,-3,-2,-7,-3,0,-1
83537705065,4,-3,-2,1,1,-2,-1,-3
83537705065,2,6,1,-3,-2,-1,0,0
83537706625,-2,-1,-2,2,0,-1,-1,-1
83537706625,-4,-3,-1,-8,0,-1,-1,3
83537727563,7,2,0,5,1,0,-2,0
83537727563,-2,-23,-3,-8,-2,0,0,-3
83537729014,-1,-5,-1,2,-3,-1,-2,-1
83537729014,2,-1,-2,-3,-1,0,-1,-1
83537749800,5,-4,0,21,6,0,0,0
83537749800,-21,12,-8,-45,-11,-3,-3,0
83537756069,-2,2,2,7,1,2,1,-1
83537756069,3,0,-2,-13,-2,-1,-1,2
83537764372,2,0,1,8,3,0,0,1
83537764372,3,4,-2,0,-7,-1,-2,-2
83537771099,24,18,-1,3,-2,-1,1,1
83537771099,-13,-33,-3,-7,-1,-3,-2,0
83537787639,12,13,2,5,0,1,-1,0
83537787639,-3,-26,-2,-10,-1,-1,0,-2
83537789128,-6,8,-3,-4,-4,-2,-1,-2
83537789128,6,6,-1,3,1,0,2,-2
83537810066,-2,2,-2,-6,-2,0,2,1
83537810066,-1,1,-2,16,0,0,0,-1
83537811586,-6,-3,0,-4,0,-1,-1,-3
83537811586,2,0,-1,5,1,-2,-2,0
83537824269,-3,-11,-5,-5,-6,-4,-2,-3
83537824269,23,19,5,8,4,0,-1,1
83537831066,-11,-7,1,0,0,0,-2,-1
83537831066,3,8,-1,5,-1,-1,-1,1
83537847464,-3,-10,-3,-8,-3,0,-4,0
83537847464,-10,-5,-3,3,-1,-3,-3,-2
83537849139,-4,-23,-2,4,0,-1,-1,0
83537849139,3,-4,-2,1,-1,-1,-2,-2
83537877645,-1,3,-1,-9,-1,-1,0,-1
83537877645,-5,0,-1,1,1,1,-1,-1
83537879078,3,11,0,-1,-3,-1,-2,-1
83537879078,-6,-16,-2,-6,-5,0,-1,-1
83537884474,0,-4,1,-5,-2,-3,-2,-1
83537884474,-1,8,0,8,2,0,1,0
83537891332,2,7,0,-8,-2,-1,-1,-5
83537891332,-7,-48,-6,-3,-2,-1,-1,0
83537907536,-1,5,1,1,2,1,-1,0
83537907536,0,-8,-2,0,0,-2,-1,-1
83537908977,0,-7,-2,-5,-1,-2,-2,-4
83537908977,-1,12,-2,-4,-3,-1,0,2
83537930075,0,-4,0,2,-3,-1,-1,-5
83537930075,2,8,1,1,2,-1,-1,0
83537931535,-20,-17,-3,-4,-5,-1,0,-1
83537931535,2,19,1,3,1,0,0,-2
83537944291,-7,3,-3,-3,-2,-1,-1,0
83537944291,2,12,0,-6,-1,-1,-1,-1
83537951314,-1,3,-1,12,0,-1,-2,0
83537951314,0,2,0,-15,-5,-1,-1,-1
83537967507,0,-4,-1,-1,-1,1,-1,-2
83537967507,-1,5,-1,5,1,-1,-3,-3
83537969060,17,-2,1,0,0,0,1,3
83537969060,-1,12,-1,0,0,-2,-1,-3
83537990011,4,2,-1,-4,-1,-1,0,-1
83537990011,7,13,2,4,-2,0,0,-1
83537991592,0,-1,-1,-10,-2,-2,-2,2
83537991592,-6,7,0,8,1,0,-1,-1
83538004301,10,1,-2,-11,-1,-2,0,-4
83538004301,0,1,0,0,-1,0,-1,12
83538011024,-4,3,-1,7,0,-1,-1,-3
83538011024,-14,10,-3,-3,-2,-2,-2,-2
83538027685,1,-2,1,1,-1,-1,0,1
83538027685,-6,-9,-4,4,-4,-3,0,-4
83538029061,-2,1,-1,-5,0,1,0,-1
83538029061,4,10,0,-2,-1,-1,0,2
83538049957,3,-21,-3,4,-1,1,0,-1
83538049957,-3,-12,6,4,2,2,1,-1
83538051482,-6,-1,-5,-4,-4,-2,-1,0
83538051482,6,7,1,-2,-2,-2,0,-2
83538064499,-7,8,1,2,0,-2,-2,-1
83538064499,-1,-7,-2,-11,-4,-1,-2,-4
83538071243,4,-9,-2,5,2,-1,-2,0
83538071243,-6,6,1,-5,-2,1,-1,-1
83538087411,6,4,-1,1,-3,-2,-2,-1
83538087411,5,1,-2,5,2,-1,0,-2
83538088999,0,1,-3,-11,-2,-3,0,-1
83538088999,10,5,-1,4,-2,-2,-3,-1
83538109962,-13,-2,1,5,2,0,0,3
83538109962,19,3,0,1,-2,-2,-2,-5
83538111542,-8,7,0,-1,-1,-1,-2,-4
83538111542,9,-23,1,1,0,-1,0,0
83538123575,0,2,-1,-3,0,0,-1,-1
83538123575,-15,-3,-3,-5,-2,-2,-2,-3
83538132542,-1,4,-3,-1,-1,-1,1,2
83538132542,-4,1,-3,-1,1,0,-1,-3
83538147370,-3,-6,0,-3,-2,-2,-1,0
83538147370,-12,-10,-2,-3,-2,0,0,0
83538148994,1,-4,0,0,-3,-1,-2,-3
83538148994,-2,2,-2,1,-1,-1,-1,0
83538169883,-4,-6,-5,-6,-2,-2,-1,-1
83538169883,1,4,0,-1,-3,-2,0,-1
83538171504,0,-2,1,2,1,-2,-2,-1
83538171504,-2,-4,0,1,-2,0,-3,-1
83538183982,-1,3,-1,-8,-1,-1,-2,-1
83538183982,-12,-8,-5,-2,-2,-1,-2,-3
83538192636,1,3,-1,-6,0,-1,0,1
83538192636,-7,13,0,-1,-1,-1,-1,0
83538207360,9,-13,1,-2,-4,-2,-2,-2
83538207360,-4,-21,-3,1,0,-2,-1,-4
83538209000,14,-9,0,-4,0,0,2,1
83538209000,-6,0,-3,-4,-1,-1,0,2
83538229983,-11,11,-1,6,-1,-1,-1,-3
83538229983,8,12,-2,-7,-1,-2,0,-1
83538231544,-5,-1,0,2,-2,-1,-4,2
83538231544,4,-15,-1,-1,0,0,-2,-2
83538243516,6,9,0,5,-1,-1,-1,0
83538243516,-23,-7,0,-5,0,1,-2,0
83538252560,5,7,0,1,-2,-1,1,-2
83538252560,5,5,-2,-3,0,-2,-2,1
83538267414,2,4,-1,-7,0,-2,-2,-1
83538267414,-7,6,0,10,3,1,-1,0
83538269020,-17,-8,-1,4,-1,-2,-1,-3
83538269020,-10,0,-3,-25,-6,-2,-1,-3
83538289943,6,0,-1,2,-3,0,0,0
83538289943,11,-20,-1,-2,1,-1,-1,1
83538291490,11,-3,-2,9,-1,-3,-1,-1
83538291490,0,4,1,8,-1,-2,0,-2
83538303567,-11,-2,-1,-6,0,0,0,-3
83538303567,9,12,-1,-1,-2,-1,0,-1
83538312630,-5,1,-2,-1,-1,0,0,-1
83538312630,7,-11,-1,0,0,-1,-1,-5
83538327554,-1,-3,-2,-1,-2,-1,-2,7
83538327554,3,5,0,7,5,-1,1,0
83538329089,-11,-3,-2,-6,-9,-2,-2,-4
83538329089,-4,-5,-1,3,-1,-1,-2,-2
83538349975,0,-1,-4,6,1,-1,1,-3
83538349975,2,-11,-1,-11,-3,-1,-2,-1
83538351592,15,-6,-3,-9,0,-1,-2,0
83538351592,-20,-1,-1,8,1,-1,-1,-1
83538363569,-2,4,-1,9,-1,-1,-2,-2
83538363569,-4,-17,-3,-17,-3,-1,-1,0
83538372523,-4,-14,-2,-3,0,0,-1,-2
83538372523,3,-4,1,4,1,-1,1,-1
83538387413,-3,-8,-2,1,1,-3,-1,-2
83538387413,4,19,0,4,-2,-2,0,-1
83538388943,-7,-1,-3,-1,0,-1,-1,-1
83538388943,-2,-4,-2,-1,-2,-1,-1,-2
83538410024,-10,-5,-3,-9,-3,-2,-2,-3
83538410024,1,4,-2,-3,-3,-1,-1,-1
83538411576,-4,-5,-1,2,-1,-2,-1,-2
83538411576,-9,3,-5,-5,-2,-2,-2,-1
83538423758,5,-3,2,-3,-3,0,1,-1
83538423758,-2,3,2,5,-2,-1,-3,-1
83538440039,1,7,1,-7,-1,-1,-2,0
83538440039,0,2,0,-5,-2,-1,0,1
83538447379,10,-3,-2,-3,-2,-2,-1,-2
83538447379,6,9,0,1,-3,-2,-2,-1
83538449001,-19,10,2,7,2,1,-1,1
83538449001,4,-4,-2,-2,-1,-2,-2,1
83538469944,3,2,-3,-7,0,-2,-2,1
83538469944,0,17,2,4,-2,0,0,2
83538471536,6,1,0,-2,-2,-3,-2,-5
83538471536,2,-5,0,-3,-2,-3,1,-2
83538483643,-10,0,-4,-1,-1,-1,-1,0
83538483643,-8,1,-1,-2,-2,-2,-1,-2
83538492629,-4,0,-1,0,0,0,1,0
83538492629,4,7,-2,-1,-2,0,-1,1
83538507576,-2,-6,1,1,0,-1,-2,-1
83538507576,-4,-12,-2,-4,0,0,-1,-5
83538509110,-10,-6,-5,0,-2,-2,-3,-2
83538509110,-2,-16,0,-3,-1,-1,-4,0
83538530005,-1,7,-1,-1,-1,-1,-1,-2
83538530005,-9,1,-2,-1,-1,0,-1,-1
83538531576,-1,-2,-1,-3,-1,-1,-1,0
83538531576,-1,15,-1,1,-2,-2,-1,-3
83538552424,-2,-13,-2,-2,-2,0,-2,-6
83538552424,-10,-8,-3,1,-2,-1,-1,1
83538554010,21,3,-2,-5,-1,-1,-1,-1
83538554010,-18,-13,-4,-1,-1,-1,-1,-1
83538567421,5,7,-2,-1,-1,-2,-3,-3
83538567421,-1,-4,-2,-3,0,1,0,0
83538569018,-1,1,0,-3,-2,0,0,0
83538569018,10,3,0,2,-1,-1,-1,-1
83538589975,-7,-10,-4,-8,-2,-2,-2,-1
83538589975,4,11,2,0,-1,-1,-1,-3
83538591519,-2,-11,-1,-2,0,1,0,0
83538591519,19,-7,-3,-4,-1,0,1,0
83538612403,-6,1,2,6,0,-2,0,-1
83538612403,7,9,0,-1,-1,-3,-1,0
83538614084,-1,3,1,-2,0,-1,-3,-3
83538614084,-3,-27,-3,-1,-1,0,-3,-1
83538627550,-2,-4,-4,3,0,-2,-2,0
83538627550,3,-2,-4,-17,-4,0,0,0
83538629078,1,-9,-1,-1,-1,-2,-1,-3
83538629078,4,0,0,-1,-1,-1,0,10
83538650114,-3,12,4,-2,1,0,0,1
83538650114,-6,-12,-3,5,-1,-3,-2,-3
83538651606,-7,8,-2,0,-1,1,-1,1
83538651606,4,10,0,-5,0,-1,-1,-4
83538672371,2,2,-1,4,-2,-2,-1,0
83538672371,5,-3,-2,-4,-2,-1,-1,0
83538674015,-1,-1,-1,-3,-1,-1,0,0
83538674015,-15,-2,-2,-2,-2,0,-1,-4
83538686781,-1,-3,-3,7,0,1,0,0
83538686781,21,-2,-2,0,-1,-2,-3,-3
83538693567,-3,-21,-1,-2,-1,-2,-3,-1
83538693567,-2,7,0,1,0,0,-1,-1
83538709936,-2,-4,0,-3,-1,0,1,-1
83538709936,2,12,0,0,-1,-1,-2,-4
83538711615,2,-5,-1,6,0,-2,1,-2
83538711615,-4,-5,-1,1,-1,-2,-1,-4
83538732447,-5,-1,-2,-5,-2,-1,-2,-1
83538732447,-4,2,-2,0,-2,-1,-1,-1
83538734045,0,11,1,0,-1,-1,0,-4
83538734045,0,4,0,0,-2,-1,-2,1
83538746805,-5,-1,1,-4,-2,-2,-2,-3
83538746805,0,-7,2,4,1,-2,1,1
83538753602,0,4,0,-5,0,-1,1,-2
83538753602,3,5,-2,-13,-4,-2,0,-2
83538770048,-15,-5,-2,-3,-3,0,0,2
83538770048,0,-27,-2,-2,-5,-4,-3,-4
83538771511,-2,0,0,2,0,-2,-3,-1
83538771511,0,9,-1,3,1,-1,1,-2
83538792610,5,9,0,-5,-1,-1,0,-1
83538792610,2,6,-2,1,1,1,-2,-2
83538794090,-8,-31,-3,2,-2,-1,-2,1
83538794090,3,-7,-1,0,1,1,-1,1
83538807239,-3,1,-1,0,-2,-2,-1,-2
83538807239,5,-3,-1,4,-1,0,0,-1
83538815082,4,8,-1,-5,-1,-3,-2,1
83538815082,-10,0,-1,-2,0,0,0,-1
83538829940,15,-1,1,-3,-2,1,0,2
83538829940,-9,7,-1,2,0,-1,-2,0
83538831532,-4,5,-1,-4,-2,1,0,0
83538831532,-5,-4,-1,5,-1,-2,-1,-2
83538852460,-1,-4,-3,-2,1,-3,-1,-2
83538852460,-6,-6,-1,-5,-2,-1,1,-1
83538854061,6,8,-1,2,-2,0,1,-2
83538854061,-1,-1,-2,0,0,-1,0,-2
83538867215,0,0,0,3,-2,-1,-2,-1
83538867215,-4,2,1,-1,1,-1,0,-1
83538873531,-2,2,-2,-4,0,-1,-2,-2
83538873531,1,3,-2,2,-2,0,-2,-2
83538897401,0,0,-1,0,-2,-2,-4,-1
83538897401,-2,16,-3,-6,-2,-1,-2,2
83538898941,-23,7,-1,-2,-2,-2,-2,-3
83538898941,2,-30,-1,3,-1,-2,0,-1
83538912333,-9,-5,-1,-3,0,0,1,1
83538912333,-9,-16,1,2,0,0,-1,-3
83538913956,0,-4,-3,2,-2,-1,-1,-1
83538913956,25,-5,-3,-3,-3,-2,-4,-9
83538926807,-2,11,1,-4,0,-1,1,7
83538926807,-11,-24,-3,-1,-2,-1,-2,0
83538933802,5,0,-1,-1,-1,0,1,1
83538933802,-15,-10,-7,-4,-3,-3,-3,-2
83538950161,4,-19,-4,-1,-2,-2,-2,-3
83538950161,2,7,0,-2,-2,-1,-1,-2
83538951553,5,11,3,1,-1,-1,-2,1
83538951553,-3,-9,0,-1,-1,1,-1,1
83538972448,-2,0,-2,-4,1,0,-1,-5
83538972448,-2,6,0,2,-2,-2,-2,1
83538974058,6,1,-3,-5,-1,-1,-1,-2
83538974058,-10,15,2,-2,0,-1,1,0
83538986127,-2,-2,-2,2,-1,-2,0,-1
83538986127,3,-5,-2,-1,1,-2,-1,-2
83538995036,5,-2,-2,3,-1,-1,-2,0
83538995036,1,8,-1,-16,-2,0,-2,0
83539009976,-10,-10,-4,0,-2,-2,-1,1
83539009976,-11,10,1,-8,-1,-1,-1,-1
83539011531,-3,-5,-1,1,-1,-1,1,-2
83539011531,-4,4,1,9,1,-1,-1,2
83539032376,-7,0,-1,-3,-2,-1,-2,-4
83539032376,-2,5,-4,-1,-1,-1,0,-1
83539034105,14,-1,0,1,0,0,0,3
83539034105,-9,-4,2,-2,-2,-1,-3,-3
83539046060,10,9,0,3,-1,-2,-2,-2
83539046060,3,2,-1,0,1,0,0,-1
83539055118,8,-2,-2,0,-1,-1,1,0
83539055118,7,-19,-2,0,-1,-2,1,-2
83539070089,-4,-7,-3,-3,-2,-3,-2,-1
83539070089,-2,-7,0,-5,-1,0,0,1
83539071560,-9,-5,-2,0,-1,-1,-1,-3
83539071560,-4,8,-1,3,-1,0,-1,1
83539092632,-2,-1,-1,-5,-2,-2,-1,-2
83539092632,-9,-9,-3,-2,-3,-2,-1,-3
83539094045,-6,8,0,-1,1,0,0,-1
83539094045,9,7,1,0,-2,0,-1,1
83539106096,3,0,0,-1,-2,-1,-2,-9
83539106096,-5,0,0,0,0,2,-3,6
83539115064,-5,-7,-2,1,-1,-1,-3,-1
83539115064,1,7,-1,0,1,0,0,1
