timestamp,emg1,emg2,emg3,emg4,emg5,emg6,emg7,emg8
116797722521,-14,-2,-3,-5,-2,-1,-3,-2
116797722521,-9,-2,-1,-1,-1,-2,-2,-1
116797724142,-4,-9,-1,-2,1,0,0,0
116797724142,1,0,-3,-3,-2,0,0,0
116797727820,2,-1,-1,0,-1,0,-1,-1
116797727820,-4,-13,-4,0,-1,1,-3,-1
116797728643,-10,-5,-1,-2,0,-2,-1,-1
116797728643,-2,-3,-1,-1,-2,-1,-1,-2
116797730303,6,-1,0,-2,-2,-2,0,0
116797730303,-1,0,-3,-2,0,-1,0,-1
116797741645,-4,-8,-3,-3,-2,-2,-1,-1
116797741645,-2,-4,-3,-1,-1,0,-3,-2
116797749577,5,4,0,0,1,0,-1,-3
116797749577,-11,-5,0,0,-1,-2,-1,0
116797755876,-3,4,-2,-1,-2,0,-3,-3
116797755876,0,-1,-1,-1,0,-1,0,0
116797779885,2,1,-1,-2,-2,-1,-1,8
116797779885,9,1,-2,0,-1,0,3,-11
116797787691,6,4,0,1,-1,1,0,-1
116797787691,-7,-8,-2,-2,-2,-2,-4,1
116797793405,3,3,1,1,0,-1,0,1
116797793405,3,3,-1,-1,-1,-1,-1,9
116797808175,-2,-8,-3,0,0,-3,0,2
116797808175,0,0,2,1,2,0,1,-6
116797848331,1,6,4,1,0,-1,1,-2
116797848331,-7,-3,0,-1,-2,-2,-2,-3
116797849900,6,5,2,-2,-2,0,0,-3
116797849900,-9,12,0,-1,-2,-1,-2,-7
116797850735,0,9,-1,-3,-1,-2,-1,3
116797850735,7,4,-2,0,-1,0,-1,1
116797853223,-10,-2,-1,-1,-2,0,-2,1
116797853223,-1,0,0,0,-1,-1,0,-3
116797861347,-4,-7,-6,-2,-1,-1,-3,26
116797861347,0,-3,-1,-1,1,0,2,-12
116797868246,-6,0,-3,-3,-3,-2,-2,0
116797868246,6,17,0,-1,0,0,0,4
116797875710,-4,-5,1,1,0,-1,-1,-2
116797875710,1,0,-1,-1,-3,-1,0,4
116797890631,-7,-5,-1,-2,-1,-1,-2,0
116797890631,-12,-7,-1,-2,-1,-2,-1,-3
116797898172,6,1,0,0,-1,0,-1,-6
116797898172,-7,-4,-1,-3,0,-2,-1,-3
116797922029,0,8,2,1,0,-1,-2,-5
116797922029,5,-3,-2,0,-2,-1,-2,3
116797922827,-3,-4,-2,-1,-2,0,-1,-7
116797922827,-5,2,1,-2,-1,-2,-1,1
116797936353,0,-20,-2,-2,-2,-1,-1,5
116797936353,-4,-15,-4,-4,-1,0,0,-3
116797937139,-2,-2,-1,-2,-3,-1,0,-6
116797937139,-1,-4,-1,-1,0,-1,-1,-2
116797958895,-2,1,-3,1,-1,-1,-2,-4
116797958895,3,-2,2,-1,-1,-2,-2,1
116797959647,4,-9,-1,0,-3,-1,-1,-5
116797959647,-6,6,0,0,-2,1,-2,0
116797973158,3,4,-1,-3,-1,-2,1,-2
116797973158,-1,-1,0,-1,-1,-1,0,1
116797981358,-12,-7,-3,-3,-1,-2,-2,-4
116797981358,1,-3,-2,-2,-2,-1,-2,2
116797996354,2,-1,1,-1,-2,-2,0,-1
116797996354,3,-8,-3,0,-1,-1,-2,1
116797997160,0,6,2,-1,0,0,-1,-1
116797997160,-2,-3,0,-2,-3,0,-2,0
116798018848,5,1,0,-1,0,0,0,-17
116798018848,-6,8,-1,-2,-2,-2,-1,-1
116798019628,-3,-35,-3,-2,-1,-1,-2,-1
116798019628,-2,-3,0,0,-1,-1,1,9
116798033184,4,4,-2,-1,-1,-1,0,5
116798033184,-3,0,-1,-1,0,-2,-3,-3
116798041374,-12,8,-5,-3,0,-2,-1,-9
116798041374,2,0,0,-2,0,-1,-1,-2
116798056347,-6,-8,-1,-1,-1,0,-2,2
116798056347,4,1,-1,-2,-2,-1,-1,-3
116798057211,-1,0,0,0,-1,-3,-1,2
116798057211,2,-2,-2,-2,0,-1,-1,-3
116798078843,-1,7,0,0,1,1,-1,3
116798078843,1,-4,1,-1,0,0,1,-1
116798079650,-4,6,-2,-1,-1,1,-1,0
116798079650,-2,-1,-1,-3,-6,-2,-3,-2
116798102100,-1,-3,-3,0,-1,-3,-2,-1
116798102100,0,-2,-1,0,-2,-1,-1,1
116798102816,1,-3,0,-1,-1,-3,0,-2
116798102816,-3,0,1,-1,2,5,0,-2
116798116345,2,2,1,-1,-1,-1,-2,1
116798116345,-1,-5,-3,-2,-2,0,0,-3
116798117205,1,6,-2,2,-2,-1,-2,-1
116798117205,-2,-2,-2,0,-1,-8,-1,-1
116798138881,-1,-1,0,-1,-3,1,-2,0
116798138881,-4,-3,-1,-3,0,3,0,-5
116798139732,6,3,0,-1,1,6,1,-1
116798139732,1,0,-1,-4,0,-10,-2,-1
116798162028,-3,-2,-1,2,0,1,1,2
116798162028,0,-1,2,0,-2,-8,-2,1
116798162790,-2,2,-2,-10,-6,4,-1,-4
116798162790,2,-3,-2,1,1,5,4,3
116798184554,-1,0,-1,1,-1,-3,1,2
116798184554,-3,-1,-2,-5,1,5,-3,-1
116798185327,4,9,-1,7,-3,-7,-4,4
116798185327,0,-8,-1,3,-5,-5,-7,-2
116798199322,-1,-3,-2,-3,4,-3,1,0
116798199322,0,-1,0,-3,0,2,1,3
116798200078,1,2,0,-4,-1,-5,-3,-4
116798200078,1,2,-1,1,0,4,2,2
116798221378,-4,-3,0,-8,-10,-6,1,-1
116798221378,-1,-4,-5,-2,6,9,15,-5
116798222197,-1,-4,0,6,4,-5,9,-2
116798222197,2,2,0,5,6,-4,2,-4
116798236320,-3,-2,0,0,2,11,-3,-5
116798236320,-3,-1,-1,-9,-12,-5,-14,-1
116798237162,-2,-1,0,4,-4,-12,-8,-4
116798237162,1,2,-1,-10,4,16,-3,1
116798258800,0,1,-3,-5,-4,-17,-1,0
116798258800,-1,-1,-1,4,-7,5,-1,0
116798259578,0,-1,-3,-2,3,-10,-5,-2
116798259578,12,2,2,9,3,-5,-7,1
116798281330,-26,-2,-1,4,1,5,-7,-9
116798281330,-2,-2,-2,-10,-10,5,1,-2
116798282198,0,-1,0,-10,2,-10,1,3
116798282198,-5,-2,-2,-3,-4,4,-3,-7
116798296402,8,-1,-4,-1,-1,-3,-2,10
116798296402,3,-1,2,14,1,7,1,9
116798297169,-5,-1,-2,0,6,0,4,-2
116798297169,8,-4,-6,-1,0,-7,-8,-3
116798318843,6,0,-1,-21,-19,4,-6,-14
116798318843,-3,-2,1,11,6,-7,-4,22
116798319692,20,2,-1,-14,-8,6,9,4
116798319692,-47,-5,-3,9,4,8,-7,-28
116798341350,27,-1,1,12,3,-1,-4,26
116798341350,-8,-2,-1,-11,-5,-17,8,-4
116798342223,3,-1,-5,3,5,36,6,10
116798342223,7,3,4,-4,-2,-40,3,6
116798356351,-4,-21,-6,-18,-11,1,-12,-24
116798356351,9,4,2,14,6,-6,5,24
116798357150,21,3,3,19,-1,-13,-16,1
116798357150,16,-7,0,-13,-4,14,-4,0
116798387038,-14,4,-1,-12,2,-2,3,8
116798387038,2,-5,-1,-1,1,8,11,-19
116798387819,-22,-6,0,17,1,14,-9,-7
116798387819,18,4,1,-6,-12,-32,-12,-5
116798401299,0,7,0,9,3,-1,4,13
116798401299,-21,-1,-1,-15,7,15,7,-14
116798402139,2,1,0,-11,-11,-2,-1,-6
116798402139,-5,-1,0,1,-3,15,11,11
116798416270,2,0,-2,1,6,8,-8,-23
116798416270,19,1,-1,3,-10,-40,-16,8
116798417157,-36,-5,0,-1,-2,-10,5,17
116798417157,-21,-6,-7,-17,-3,19,0,-8
116798438840,-9,1,2,17,0,-17,16,0
116798438840,11,3,2,-3,-10,1,-25,6
116798439608,24,0,-3,-10,6,9,4,-11
116798439608,-45,-7,-7,-9,-3,7,-9,0
116798461372,6,4,2,20,9,7,10,-1
116798461372,-8,-4,-8,-11,-14,12,-2,3
116798462173,6,1,1,16,12,-36,-2,-2
116798462173,8,5,0,-22,-8,35,-1,7
116798476337,-4,-2,4,-1,1,-19,-3,-17
116798476337,2,-5,-12,-6,-1,7,8,-3
116798477191,-3,1,3,-4,4,8,-15,-18
116798477191,19,4,-1,4,-8,7,8,8
116798498827,-11,0,0,-8,-1,-27,-9,2
116798498827,5,-3,2,8,9,-3,-1,-13
116798499616,-5,-1,-3,-3,-6,8,8,0
116798499616,-12,-3,-5,-3,2,-7,4,3
116798521350,3,-2,-3,-15,-17,12,-5,-1
116798521350,22,17,6,5,20,-4,-9,-2
116798522184,-37,-18,2,-1,-7,-10,0,-16
116798522184,11,1,5,3,3,2,-1,-15
116798536319,17,-2,-3,13,9,22,-2,-8
116798536319,-21,-9,-1,-2,-9,-26,0,-12
116798537169,-9,1,2,8,4,2,-1,9
116798537169,22,10,2,-11,-9,-22,-16,0
116798558884,8,-3,2,11,3,21,18,15
116798558884,-75,-14,-8,6,12,-17,-9,-16
116798559698,3,4,7,-16,-20,9,-2,3
116798559698,-10,-3,-8,11,15,-8,6,2
116798581351,2,6,-4,-2,0,5,-5,4
116798581351,20,1,3,-5,-11,5,-2,-7
116798582136,-4,2,5,1,-2,-3,-15,-3
116798582136,31,-9,-16,-14,-6,-12,15,25
116798596352,-21,0,1,6,10,11,10,-18
116798596352,-11,-4,-3,12,6,2,2,-5
116798597180,8,4,-4,-17,-6,-13,-13,-16
116798597180,14,-3,9,13,-2,16,-3,7
116798618854,0,3,0,-9,-6,-31,-4,5
116798618854,5,-2,0,13,-2,8,13,-5
116798619629,0,-2,2,7,18,5,15,18
116798619629,-2,4,4,-6,-9,-4,-7,-4
116798641388,4,-1,-2,-13,-10,-4,-3,6
116798641388,14,8,-1,-10,0,9,2,33
116798642168,18,-3,-8,6,-9,-7,-7,10
116798642168,-51,-13,0,17,10,-5,3,-29
116798655701,-1,1,-4,-18,-10,0,-16,-9
116798655701,4,-1,-1,-8,-7,0,-1,5
116798663852,30,7,-9,-13,0,0,2,21
116798663852,-28,0,-9,-7,-1,-10,9,-9
116798678858,-41,-11,3,20,9,0,1,-17
116798678858,12,-6,-7,-6,-9,-1,-15,-8
116798679677,4,5,-4,-33,-8,4,11,-7
116798679677,-19,-6,7,43,14,-1,-6,-7
116798701328,17,-1,-4,-6,-5,-6,-15,21
116798701328,-13,8,3,-4,0,-1,9,-6
116798702165,8,-3,-3,-1,-4,-2,-11,-8
116798702165,15,3,0,-9,-1,-2,-1,7
116798715703,-10,-13,0,3,2,-1,3,3
116798715703,19,8,3,11,11,0,-4,-1
116798723848,-28,-19,-9,-4,-9,1,-5,-23
116798723848,18,-2,-3,-8,-3,-11,-9,5
116798738850,-71,1,-6,-20,-15,4,-6,-35
116798738850,24,7,-2,1,-8,-6,-8,-24
116798739667,6,-10,8,18,13,3,5,27
116798739667,-2,-5,-13,-4,-8,5,-7,-20
116798761321,19,2,-3,-4,11,3,10,15
116798761321,-41,-7,-10,-17,-14,1,-12,-39
116798762177,14,14,5,4,-8,-22,5,-9
116798762177,12,7,16,27,20,5,2,6
116798775697,7,-4,-4,-10,-2,4,-7,-12
116798775697,29,-11,-3,8,21,8,16,4
116798783856,-16,8,-6,-13,-27,5,-9,-22
116798783856,-2,2,-1,-13,-13,-15,3,1
116798798814,18,-2,-2,6,-1,-5,-5,10
116798798814,-2,2,7,1,5,-3,8,15
116798799620,6,0,1,10,18,18,5,3
116798799620,-3,-2,-2,-7,-5,3,1,-3
116798820673,16,3,1,1,-8,-1,4,3
116798820673,-6,6,-1,-21,-8,-25,-15,2
116798829699,-32,-7,0,42,17,3,6,-7
116798829699,-1,2,3,12,18,12,-12,-2
116798844542,7,-1,4,-17,-29,-13,12,0
116798844542,8,1,1,-7,0,20,-11,22
116798846170,-14,0,-1,-27,-3,13,10,5
116798846170,23,10,3,31,-1,-41,-2,4
116798867056,10,2,2,15,26,30,-10,-1
116798867056,-32,-8,3,9,-10,-4,8,-6
116798868618,8,-7,-7,-14,-14,-15,-22,3
116798868618,3,-8,-2,-24,-10,3,14,3
116798880702,-4,-5,-3,1,2,-23,-11,14
116798880702,14,-2,2,2,-24,4,-8,4
116798889696,15,6,1,-3,9,-9,1,-2
116798889696,-26,-3,2,-12,-6,11,5,-7
116798904559,5,1,-1,3,7,-9,-3,-10
116798904559,0,-4,-2,8,14,19,0,-7
116798906169,-9,1,-2,7,4,8,10,4
116798906169,5,0,-5,-18,-19,-10,-6,-9
116798926989,-1,1,-4,-3,-2,18,-4,-16
116798926989,-4,-1,-2,8,7,-32,8,10
116798928619,6,-1,-2,1,-2,1,-3,-9
116798928619,2,-1,4,3,-6,1,-16,15
116798940675,-6,-4,-2,-11,-3,-1,20,42
116798940675,8,-1,-1,6,2,-4,-2,-13
116798949666,-7,-5,-4,-12,-4,-8,0,-7
116798949666,-6,-5,1,12,3,7,-9,-12
116798964497,2,2,-8,-3,-3,-5,14,16
116798964497,-19,-11,-3,-10,1,9,-1,-9
116798966167,-20,1,-2,-8,-9,-10,-11,-10
116798966167,12,-3,-5,-14,-14,-6,5,15
116798987036,26,0,-2,10,12,5,-7,-7
116798987036,-14,5,1,-3,-4,-2,0,3
116798988668,-4,-1,-1,8,6,2,-6,-20
116798988668,-11,0,0,0,6,2,4,7
116799000726,-2,3,1,0,-10,-7,-5,1
116799000726,9,3,-2,-5,-6,-2,-11,-13
116799009654,6,-4,0,4,5,-1,7,26
116799009654,20,8,-1,-14,-5,2,-5,-2
116799024493,-27,-6,-1,15,7,-6,1,-22
116799024493,-2,-2,-2,-6,-6,3,1,1
116799026179,-3,-3,-2,3,-3,0,0,1
116799026179,-1,11,0,3,4,0,7,14
116799047067,15,11,2,-1,1,-3,-11,2
116799047067,1,-7,-1,3,9,-1,-2,-15
116799048681,14,-1,-2,-20,-13,-2,0,2
116799048681,0,-4,-3,3,3,4,2,0
116799060665,-33,5,1,-1,-6,-6,-6,-13
116799060665,1,0,-1,-3,1,1,0,-3
116799069723,1,-3,-5,-13,-6,-1,-3,1
116799069723,-17,-2,5,22,9,3,-13,-18
116799084788,4,-4,-2,6,-3,-2,4,23
116799084788,18,-5,-5,-6,-2,-2,4,38
116799086243,-47,0,-2,0,-1,0,3,-29
116799086243,-9,-5,-4,-9,-7,-6,-1,1
116799107244,1,4,-1,-11,2,7,-1,-12
116799107244,22,3,2,4,2,10,3,22
116799108735,-28,0,-3,10,0,-13,-9,-22
116799108735,-4,-1,0,-5,-5,2,-2,-28
116799120706,-14,-6,-7,-14,-8,-5,7,10
116799120706,7,9,5,-1,5,1,-1,11
116799129731,29,2,-7,-5,-2,-1,-12,-33
116799129731,-10,-8,10,11,4,1,8,21
116799144675,40,1,-1,-9,1,-3,-5,4
116799144675,-43,-4,-12,-4,-10,-8,-8,-28
116799146255,34,10,8,12,14,5,12,18
116799146255,7,-13,-6,-43,-19,10,3,1
116799167110,-8,-1,12,37,1,-18,-7,-6
116799167110,-2,-4,-7,-19,-5,0,8,16
116799168738,-1,4,5,17,10,4,-4,11
116799168738,10,-10,-13,-6,6,10,6,8
116799180953,-8,-5,3,-7,-6,-1,-1,-9
116799180953,20,7,3,8,-2,-15,-13,-2
116799189759,-11,-8,-7,-9,-9,9,4,18
116799189759,6,1,2,5,2,-13,3,-2
116799204824,2,0,2,7,-1,1,-7,-16
116799204824,-7,-4,8,-3,-4,21,3,-4
116799206227,6,-2,-5,-7,-3,-34,-2,6
116799206227,-9,3,1,4,15,11,-4,-4
116799227270,10,-2,-1,2,5,20,19,6
116799227270,-12,-3,-2,-5,-6,-21,-23,-13
116799228670,-7,-7,-7,-7,-9,16,11,1
116799228670,-2,5,-4,-8,-10,-11,-12,-14
116799240823,-4,2,1,5,10,-4,0,8
116799240823,-2,2,2,-6,2,15,-10,-16
116799249751,-8,-6,21,26,2,-9,22,27
116799249751,16,4,-1,8,-2,-11,2,6
116799264750,-4,0,2,-10,-2,2,-10,-11
116799264750,1,3,-3,-8,-4,-6,2,-1
116799266244,14,-13,3,15,3,1,-13,2
116799266244,0,2,0,3,-1,-1,0,0
116799287113,0,-6,-9,-7,-6,0,2,-1
116799287113,4,1,-3,9,4,-4,5,-3
116799288748,1,1,-3,-16,-5,3,-7,-15
116799288748,-5,-2,-5,0,-5,3,3,-2
116799309595,-5,-6,-6,-2,8,-2,-5,-12
116799309595,-7,-3,-3,-4,-4,-4,7,-2
116799311195,7,1,-5,-15,-9,5,-4,10
116799311195,-27,-3,-3,0,0,-1,-2,-14
116799323971,-5,-3,-1,-5,-6,-3,0,5
116799323971,-2,-3,-2,7,6,2,5,-2
116799330753,-7,-3,-4,-4,2,2,-5,-2
116799330753,12,0,-1,0,-6,-3,-3,8
116799347087,-12,-5,3,8,5,-4,-4,-13
116799347087,10,11,-8,-3,-1,0,4,10
116799348744,4,0,1,4,-4,-4,-10,-7
116799348744,3,3,1,-4,0,-1,-1,1
116799360800,10,1,-3,-2,-3,-1,2,10
116799360800,-8,-1,2,4,-2,-2,0,-8
116799369728,-8,5,-6,4,3,1,-1,-2
116799369728,17,1,-2,-1,1,-1,-2,-1
116799383967,11,5,0,-5,-11,-2,6,5
116799383967,-10,-3,-1,-7,-1,-1,-7,-17
116799390714,-1,1,-5,-11,-2,-9,-8,-4
116799390714,-13,-8,-2,4,5,22,7,-4
116799407160,8,4,-2,-8,-9,-21,-6,3
116799407160,19,0,2,2,3,-1,2,-2
116799408660,-18,-4,-4,-2,-2,1,4,-11
116799408660,0,3,2,6,3,2,2,6
116799420728,-12,-4,-1,-1,-3,3,0,-7
116799420728,23,-2,5,6,0,-4,-9,5
116799429645,9,-5,-4,-16,-4,-11,-5,-6
116799429645,-24,-16,-5,-8,-4,-12,12,-4
116799444137,-1,6,1,5,12,18,0,10
116799444137,-11,-2,2,15,2,0,2,4
116799450920,1,0,-5,-32,-1,9,-3,1
116799450920,-1,1,0,8,-6,-1,-8,-3
116799467187,-5,-10,-4,-27,-9,-23,-9,-7
116799467187,-11,-3,2,23,6,0,1,1
116799468675,-1,1,1,-3,-4,2,-1,1
116799468675,10,4,-5,-23,-3,-1,-1,-2
116799480678,1,1,-4,-2,-1,1,-4,-3
116799480678,-7,-2,-2,26,0,0,-2,6
116799489756,-6,-9,0,-12,3,-3,3,0
116799489756,-2,6,4,11,6,3,-6,-2
116799512068,4,0,0,1,1,2,2,1
116799512068,-10,-10,-4,-11,-9,-4,0,-2
116799513647,-7,-14,0,16,7,-1,0,3
116799513647,17,1,1,-9,-5,-12,-7,2
116799527024,-1,1,-1,-2,-3,2,-2,-7
116799527024,-11,-17,-6,-30,-1,-4,3,3
116799528655,2,10,9,31,2,5,-2,-1
116799528655,-9,-4,-7,-22,-2,-7,-1,-1
116799549492,-3,1,-3,3,-1,3,0,-3
116799549492,13,3,0,-8,-2,10,4,2
116799551202,-10,1,-2,11,-1,-10,1,-14
116799551202,-6,-2,0,13,4,-10,-7,0
116799563899,-6,-8,2,20,3,6,0,-3
116799563899,-14,-8,-9,-46,-4,-2,-3,-5
116799570701,6,1,-2,2,-4,-4,-6,1
116799570701,-7,0,-3,2,2,13,3,-3
116799587121,-2,-4,-3,-34,-2,-8,3,-1
116799587121,4,5,5,23,-4,-5,-1,-2
116799588699,-5,0,-5,-8,0,14,3,3
116799588699,2,-3,-1,-42,-10,-11,-1,2
116799609659,1,-2,-1,-7,-1,2,-1,-4
116799609659,-3,-1,2,27,5,-4,0,-1
116799611249,4,2,0,2,1,-5,-4,-4
116799611249,-3,1,-4,-5,-2,5,-1,-2
116799623913,0,1,2,26,2,0,-2,2
116799623913,-3,1,-9,-28,-10,-5,-3,-3
116799630663,2,2,4,25,6,0,0,4
116799630663,1,-3,-5,-3,-5,-2,-3,-2
116799647080,-5,-16,0,31,-1,0,2,-1
116799647080,-3,2,-8,-54,-13,-5,-5,-3
116799648791,4,3,2,10,2,0,-3,1
116799648791,-5,0,3,1,3,6,6,1
116799669798,11,6,-1,17,-1,-7,-6,-8
116799669798,-11,-1,2,19,4,6,1,-2
116799671283,2,2,-3,-32,-7,-10,-2,-3
116799671283,0,7,3,7,1,1,-3,-2
116799683419,-17,-23,0,2,2,10,3,2
116799683419,5,6,-4,-25,2,-5,0,4
116799692276,-12,-1,1,2,-6,0,-3,-9
116799692276,-9,-6,-2,16,2,-4,-1,-6
116799707040,18,14,-1,-28,-3,-1,0,3
116799707040,1,-3,2,23,2,1,-2,-7
116799720927,1,-7,-1,10,2,2,1,11
116799720927,2,11,-6,-17,-6,-6,-4,-6
116799729621,-1,-2,4,-6,4,-1,-3,3
116799729621,1,0,3,-15,-3,-1,0,2
116799731233,5,6,1,22,-2,-1,3,0
116799731233,-1,-2,3,7,2,-3,-1,4
116799743334,-5,2,-3,-4,-2,0,-1,-1
116799743334,-7,-10,-4,0,-3,-4,-1,-4
116799752216,-8,-3,0,-2,-3,0,-2,-5
116799752216,-8,-4,2,17,2,0,0,-3
116799766466,-1,-5,-5,-8,-3,-2,-1,-2
116799766466,-2,1,-3,1,-4,-2,-4,-1
116799773466,-7,-28,-3,8,-2,0,3,5
116799773466,-8,-10,-1,-7,-5,-3,-5,-9
116799789731,5,19,1,9,-2,-1,2,7
116799789731,6,15,7,35,3,-1,0,-3
116799791274,21,25,1,-14,3,2,1,7
116799791274,7,-1,-2,30,-4,-2,0,-2
116799803420,-4,-4,-8,-20,-8,-4,-6,-3
116799803420,-6,-3,0,10,3,1,-2,0
116799812275,10,7,-2,-18,-3,0,-1,-5
116799812275,0,-1,2,14,3,1,0,2
116799826443,-7,0,-5,17,-2,-1,-3,-5
116799826443,-3,1,-3,-40,-4,0,0,0
116799833368,-21,-10,-8,-16,-4,-2,-3,-7
116799833368,-4,-1,2,2,-2,-2,0,0
116799849641,-2,-3,0,-13,-5,-4,-1,-3
116799849641,2,-3,-1,-1,0,-1,0,-1
116799851257,-4,-20,-5,-10,3,1,-3,-5
116799851257,18,4,-6,-26,-5,-1,0,-1
116799863393,-12,-9,-3,-9,-2,0,-1,-5
116799863393,-3,-4,1,49,7,3,3,0
116799872264,-8,13,-2,-37,-8,-3,-3,-4
116799872264,10,11,-3,20,4,0,0,4
116799886594,1,-5,0,-19,-4,-1,-4,-11
116799886594,4,0,2,-4,1,0,-1,3
116799893357,-32,-11,-2,25,-2,-3,-4,1
116799893357,2,-3,3,-6,-5,-5,0,-1
116799909742,3,5,2,24,3,1,1,3
116799909742,-1,14,7,17,2,-4,-1,-1
116799911274,6,-2,-11,-45,-10,-2,0,3
116799911274,-8,-10,1,-9,-1,0,0,1
116799923886,-10,9,-3,-4,2,-3,-2,0
116799923886,21,19,2,2,1,0,0,-2
116799932226,-1,5,6,27,3,1,-2,4
116799932226,-28,-10,-3,-24,-3,-2,-4,-3
116799946516,18,4,-2,-1,1,1,1,-1
116799946516,8,-7,-6,-37,-8,-1,1,0
116799953224,-5,-3,1,19,3,0,1,-2
116799953224,5,11,1,0,1,0,0,-2
116799969616,-14,-8,1,-10,-1,-3,-1,-4
116799969616,-4,5,-3,16,1,0,0,-1
116799971268,11,3,-1,4,-2,1,-1,2
116799971268,-10,-31,-4,5,-1,-1,-1,1
116799983199,-1,7,2,-8,3,0,0,0
116799983199,14,-1,-4,0,-3,-2,1,1
116799992139,11,3,2,0,-2,-2,-1,0
116799992139,17,8,-2,-1,1,-1,-2,1
116800014478,-20,6,5,3,0,1,1,2
116800014478,-17,-11,-3,-6,-2,-2,-2,-3
116800016178,0,-9,-2,-3,-1,-1,-1,-1
116800016178,6,4,-4,-9,-2,-1,0,-1
116800029590,5,-12,-5,1,-2,-3,-2,3
116800029590,-8,3,0,2,-2,-1,-2,-2
116800031139,0,2,0,-5,0,-1,0,-1
116800031139,-14,4,1,4,1,-2,-3,27
116800043258,0,-12,-2,-1,-3,-1,-1,-15
116800043258,9,14,-1,-4,1,1,0,2
116800052227,-5,-17,-5,-1,-2,-3,0,-4
116800052227,4,-6,-2,1,-1,-1,-3,-3
116800067003,-1,3,-3,1,-2,-1,-3,-1
116800067003,-2,-11,0,-1,0,-2,-2,0
116800068647,13,7,2,-1,-2,0,0,0
116800068647,-4,6,2,6,0,0,0,-13
116800089640,10,1,6,6,-2,-7,-3,10
116800089640,-2,-30,5,3,-1,-4,-1,-2
116800091159,-6,-11,-5,1,-2,2,2,1
116800091159,9,18,5,2,4,5,3,-8
116800103258,-2,-14,-13,-8,-2,2,-2,-5
116800103258,-16,1,-11,-10,-4,-1,-3,-35
116800112188,3,9,0,0,0,1,-7,-4
116800112188,-28,-21,-7,-4,-4,-2,-2,-1
116800127615,-6,22,0,-1,0,0,-2,-30
116800127615,-3,-5,0,0,0,0,0,51
116800129233,4,7,7,0,0,-1,-2,0
116800129233,-2,5,1,4,-2,-3,-4,-21
116800149746,8,3,2,1,-2,-2,2,22
116800149746,-18,-29,-4,-2,-3,-2,1,-32
116800151224,-8,10,0,-1,-2,-2,-1,-7
116800151224,10,-1,0,2,-1,-3,-2,12
116800163230,-5,-20,-2,-2,-2,-3,0,5
116800163230,8,9,-2,-1,-1,-2,-3,-7
116800172249,-19,-10,-4,3,-1,-2,0,7
116800172249,21,10,1,0,0,-2,-1,-12
116800186657,12,-12,-6,-2,-2,-2,-1,6
116800186657,-2,12,5,2,1,3,0,-3
116800193417,6,1,0,-1,-2,-1,-2,-5
116800193417,-4,-30,-7,-2,-2,-3,-2,6
116800209734,-2,-3,-7,-3,-2,0,-1,-5
116800209734,-4,-9,-6,0,-2,1,0,12
116800211187,3,-1,0,-3,-3,-2,-1,-3
116800211187,0,3,-2,0,-2,-1,0,2
116800223338,2,3,1,-1,-1,1,-1,20
116800223338,-2,-3,-1,-1,0,0,3,-23
116800232238,-1,-1,-1,-1,-2,-1,1,2
116800232238,-3,8,0,-1,-1,-1,-1,-2
116800247160,-12,1,-1,0,-1,-1,-2,-2
116800247160,15,14,-4,-3,-1,-2,-4,3
116800248717,12,-3,-4,-1,0,0,-2,0
116800248717,4,-3,-4,-2,-2,-1,-1,-1
116800269755,-16,-3,3,2,-1,-1,-2,-7
116800269755,2,1,-2,-3,-2,-2,-1,7
116800271187,-11,-10,-2,0,0,-2,-1,-3
116800271187,7,9,3,0,0,2,2,7
116800283494,9,1,1,0,0,0,0,-4
116800283494,-4,11,-2,-4,-3,0,-1,1
116800292171,5,-1,0,-1,-1,-2,-4,3
116800292171,-8,-3,-1,0,-1,-3,-5,23
116800306661,-20,-32,-8,-4,-4,-3,-2,-17
116800306661,8,8,4,1,-1,0,-2,7
116800313296,14,-10,-2,0,-1,0,-1,1
116800313296,-2,-1,3,1,1,0,-1,-3
116800329614,3,9,1,0,-2,-1,-4,-6
116800329614,-7,-9,1,0,-1,0,-2,4
116800331286,-8,11,2,-2,-2,-2,-2,-1
116800331286,-1,-4,-2,-1,-2,-1,-2,-9
116800343887,2,-1,-2,1,0,-1,-1,1
116800343887,-4,-8,-1,-1,0,-1,1,-5
116800352164,2,5,1,1,0,-1,0,0
116800352164,-2,0,-3,-5,-1,0,0,-10
116800367125,-4,11,-2,-2,0,-1,0,6
116800367125,-5,-26,-4,-2,-2,-1,1,4
116800368648,-10,-10,-2,-1,-1,-3,0,-1
116800368648,-2,-7,-4,-1,-2,-1,-1,-5
116800389588,-7,12,3,3,1,2,1,2
116800389588,28,0,3,-1,-1,1,1,1
116800391239,1,4,-3,-3,-4,-2,-2,6
116800391239,-2,-16,-3,-5,-3,-1,2,-22
116800403285,-1,-7,0,-2,-1,0,-2,-4
116800403285,-13,9,0,0,-2,-2,-2,12
116800412211,5,18,0,0,0,-1,2,5
116800412211,-8,9,1,0,1,0,-2,4
116800427256,24,4,1,1,-4,1,0,1
116800427256,-18,-12,-7,-5,-3,-3,-4,-12
116800428733,3,-1,-2,1,1,0,0,-3
116800428733,-12,4,-1,0,0,-3,-1,0
116800449735,-6,0,-5,-4,-2,-3,-3,-5
116800449735,-10,-14,-4,-1,-1,-2,-2,-4
116800451239,0,-2,0,-3,-3,0,-1,-5
116800451239,2,-5,-2,0,0,0,1,0
116800472219,7,6,1,0,1,-2,1,2
116800472219,0,6,-2,0,0,-1,-1,-3
116800473697,-8,-4,0,-1,0,0,-1,-16
116800473697,-1,-1,2,2,-2,-2,-1,-4
116800487086,9,4,-1,-2,-1,-2,-2,1
116800487086,-9,1,0,0,-1,-2,-1,-6
116800488701,2,-3,2,1,-1,-1,-1,3
116800488701,-2,1,-2,-1,-2,-1,-2,2
116800509620,10,-7,-1,-3,-2,-2,0,-1
116800509620,-24,-8,-5,-1,-1,-2,-5,1
116800511195,-13,12,2,-1,1,-1,-1,-2
116800511195,8,1,-2,-1,0,-1,0,3
116800532112,-20,-2,0,1,0,-1,-2,-2
116800532112,3,-4,-1,-3,-1,-2,1,-2
116800533705,5,-8,-3,-2,-3,-3,-1,-3
116800533705,1,17,0,-2,-3,-2,-3,-4
116800547075,0,-3,3,-1,-1,1,0,-2
116800547075,11,8,1,-1,-1,-1,-2,-2
116800548620,-2,-7,-1,0,-2,-1,-2,1
116800548620,0,-2,-2,-2,-1,0,3,-16
116800569639,-11,-6,0,-2,-1,-5,-3,0
116800569639,-7,-16,-3,-1,0,-1,-2,2
116800571340,8,-1,1,-1,1,0,2,-2
116800571340,-1,4,2,-1,-1,0,1,17
116800592135,-13,-19,0,-3,-2,0,1,-1
116800592135,2,3,1,-1,-1,-1,2,-8
116800593687,0,-4,-2,-1,-1,-1,0,-1
116800593687,15,-1,-2,0,-1,-2,-1,2
116800607028,9,16,2,1,0,1,2,0
116800607028,3,2,1,1,-1,-1,-1,7
116800608651,-5,-20,-5,-1,0,-1,-2,-6
116800608651,9,2,-2,-1,-1,0,0,1
116800629760,15,12,-1,0,0,-1,1,-2
116800629760,3,4,-1,0,-2,-1,-1,0
116800631207,2,4,0,1,0,-1,0,-2
116800631207,-11,-9,0,-2,-2,-2,-2,-5
116800652018,0,-17,-5,-3,-2,-1,-2,0
116800652018,-2,1,-1,0,0,-2,-1,24
116800653631,-6,24,-5,-2,-1,-3,0,-16
116800653631,0,-6,-1,0,0,-1,0,-3
116800666356,-4,-1,-2,-1,-1,-1,0,11
116800666356,2,0,1,-1,-1,0,-2,-5
116800673189,10,0,-8,-5,-4,-3,-5,7
116800673189,-22,-5,-2,-1,-2,-2,-2,-4
116800689520,-9,-3,-4,0,-1,0,-1,-8
116800689520,7,3,-5,0,-3,-3,0,-6
116800691175,4,-1,3,1,1,0,1,2
116800691175,-3,-3,-2,0,-2,0,0,-2
116800712013,-5,-2,-1,0,-1,-2,-4,-5
116800712013,-5,-1,-2,-2,0,-1,0,-4
116800713609,2,-1,0,0,-3,-2,-3,-2
116800713609,-2,-2,-3,-2,-3,-2,-2,4
116800726311,3,13,-2,-2,-4,-2,-2,-25
116800726311,5,-1,-1,0,-3,0,-1,-5
116800733161,-8,-2,1,0,0,1,-1,2
116800733161,4,18,1,0,-1,1,0,-9
116800749470,-12,-2,-3,-1,2,1,2,22
116800749470,-5,-9,-2,-1,-2,-3,-5,-7
116800751169,-5,-5,2,-1,2,1,-1,-3
116800751169,-1,-7,-6,-2,-1,-1,-3,4
116800772013,5,-5,-2,-2,0,0,-1,-2
116800772013,-3,-1,-4,-5,0,-1,1,-2
116800773640,-5,-2,0,-1,-1,0,-1,6
116800773640,-3,5,1,1,1,0,0,0
116800786384,3,-6,-2,-5,-3,-4,-1,-1
116800786384,0,-1,-3,-1,-2,0,-1,-3
116800793151,0,1,-2,-2,-4,-2,-1,-23
116800793151,-6,-1,0,-1,-3,-1,-1,0
116800809506,-5,7,1,3,1,1,-2,0
116800809506,1,-1,0,-1,-2,0,0,0
116800811167,-3,-6,-1,-3,-1,-1,-1,12
116800811167,18,-2,-3,0,-1,-3,-3,-2
116800832066,-18,-27,-3,-2,-2,-3,-2,-2
116800832066,-5,-1,2,0,-1,-1,-3,-2
116800833687,-5,-5,-6,-3,-3,-2,-1,5
116800833687,-4,-12,0,0,-1,-1,0,-5
116800846424,3,4,0,-3,-3,-1,-1,3
116800846424,4,6,1,0,-1,1,0,0
116800853229,-3,-17,-2,-1,-1,-1,-2,0
116800853229,-11,-2,2,-1,0,0,-2,0
116800869567,5,-18,-3,-2,-2,-3,-3,-1
116800869567,-9,2,-2,-2,0,-2,0,26
116800871171,-7,2,0,0,1,0,2,-19
116800871171,-25,-7,-1,-2,-2,-2,-3,1
116800892041,5,10,0,1,-1,0,0,2
116800892041,6,-4,0,0,0,-2,1,1
116800893638,3,-2,-1,0,-2,-2,-1,8
116800893638,3,-6,-5,-2,-1,0,-1,-8
116800906409,-4,1,0,-1,0,-1,-1,-5
116800906409,-1,14,3,0,0,1,-1,-9
116800913255,-3,-17,-4,-3,-2,-2,0,0
116800913255,-3,8,-2,-4,-3,-3,-3,-3
116800929525,9,-5,-2,0,-2,-3,0,2
116800929525,-1,-4,0,0,-1,-1,-1,-6
116800931159,5,7,1,1,0,-1,-2,9
116800931159,-7,-5,0,0,0,1,0,-16
116800952011,-4,0,-2,1,0,-1,-1,-3
116800952011,4,4,-1,-1,-1,-1,-2,-3
116800953600,7,-3,-1,0,-1,-1,0,3
116800953600,15,-1,0,-3,-2,0,1,17
116800965649,2,9,1,-2,-1,0,-2,-4
116800965649,-14,-19,-6,-1,0,0,-4,-12
116800974629,2,7,-2,-2,-1,0,-3,-1
116800974629,8,-1,3,1,-1,0,-1,-1
116800989461,-2,6,0,1,-1,0,3,2
116800989461,3,-1,-1,1,-2,0,-1,3
116800991180,-7,-1,-3,-2,-2,-1,-3,-4
116800991180,6,1,-1,0,0,-1,-3,-1
116801012001,-7,14,-1,-2,0,0,-3,-1
116801012001,2,-4,0,-4,-2,-4,-2,-5
116801013630,-8,-6,-2,-1,-1,-1,-2,-28
116801013630,3,-8,-5,-4,-1,-2,-3,2
116801025693,4,5,2,1,1,0,-1,1
116801025693,2,-8,1,-1,-1,0,0,-4
116801034633,12,12,1,-1,-1,-1,-1,8
116801034633,-3,-3,-4,-2,-2,-2,0,3
116801049496,-1,-5,-3,-5,-3,-2,-3,-7
116801049496,-6,5,2,1,-2,-1,-3,7
116801051160,5,2,0,2,-2,-2,-2,3
116801051160,-5,-3,-2,0,-1,0,4,-2
116801072018,2,14,0,0,0,-1,58,5
116801072018,-8,-4,-1,-2,0,-2,42,-7
116801073663,-1,4,-1,-2,-1,-2,20,3
116801073663,6,0,1,-1,-1,-1,-8,-2
116801085625,-6,-4,-1,0,-2,-1,-29,5
116801085625,4,2,0,-1,-1,-1,-22,-2
116801094659,-7,0,0,-2,-2,-1,-18,-1
116801094659,-22,25,-2,-3,0,-2,-15,18
116801109493,-9,-21,-1,2,1,0,-15,-10
116801109493,-13,0,0,-1,-3,-2,-8,7
116801111159,-12,-3,1,2,-3,0,-11,4
116801111159,-11,5,-1,1,-2,-1,0,1
116801132027,10,3,1,0,-1,-1,-6,1
116801132027,2,-5,-5,-2,-3,-2,-8,-5
116801133700,10,0,-1,0,-1,-1,-4,2
116801133700,16,-9,-1,0,-1,-1,3,-2
116801145666,-5,12,-2,-2,-2,-1,-7,-2
116801145666,11,-1,0,-1,0,0,-5,-6
116801154702,1,7,-3,-2,-1,-2,1,7
116801154702,4,-36,-2,0,0,-1,4,-6
116801177066,6,8,1,-2,-2,-1,-5,-1
116801177066,3,2,-1,-1,1,1,-1,1
116801178671,0,-1,0,-4,-1,-1,3,-3
116801178671,-3,3,1,-1,-1,-2,-3,-21
116801192032,7,-16,-6,-3,-4,-2,-6,0
116801192032,-11,-6,-3,-1,-1,-1,-3,0
116801193671,-22,-4,-3,-2,-1,-2,-2,-10
116801193671,-3,-11,-2,0,-2,-1,0,4
116801205693,-1,-7,-3,-2,0,-2,-1,0
116801205693,7,0,0,-1,0,-2,-1,-7
116801214709,-1,0,-5,-3,0,-1,0,2
116801214709,1,4,-1,-1,-4,-1,1,-3
116801229569,-14,0,-1,-2,-3,-3,-1,2
116801229569,6,-1,-1,-2,-1,0,-1,3
116801231153,2,-3,0,2,1,-1,0,1
116801231153,-1,6,1,2,0,-1,1,0
116801252003,-4,-10,-3,-1,0,0,-1,-5
116801252003,1,3,1,-3,-4,-1,0,1
116801253606,-6,4,-2,-4,-3,-1,-1,0
116801253606,3,10,4,-1,0,0,0,-4
116801265637,7,3,-2,-2,0,-1,0,5
116801265637,-12,-5,-2,-1,-1,-2,-1,18
116801274642,8,13,1,0,-1,1,1,-11
116801274642,-1,8,-5,-4,-4,-2,-2,-4
116801289551,-8,-14,-2,0,0,1,0,2
116801289551,10,7,-1,1,-1,0,-1,-1
116801291183,2,-9,1,0,0,-1,-1,4
116801291183,-4,-2,-1,0,1,-2,1,0
116801312003,2,1,-2,1,-2,1,-2,1
116801312003,-8,-2,-4,-4,-2,-3,-2,-10
116801313690,0,-6,-1,-2,-2,-2,-1,-1
116801313690,8,4,0,1,-1,0,0,2
116801326171,-13,-25,-1,-4,-2,-2,0,-4
116801326171,-1,3,1,0,-2,0,-1,-5
116801334632,3,-17,-1,-1,-1,-1,-1,-5
116801334632,-3,-3,-2,-3,0,-1,-2,4
116801349495,-2,0,1,0,0,-2,-3,-3
116801349495,-2,4,0,-1,-1,-2,-2,-27
116801351170,-6,-1,1,-1,-2,-2,-2,6
116801351170,-3,-5,-3,-2,-3,-1,-3,-1
116801372007,-6,3,0,0,0,-1,-1,-10
116801372007,1,-4,-1,0,0,0,0,3
116801373632,-22,3,-3,-2,-1,-3,-5,-3
116801373632,1,2,2,-1,0,1,1,-2
116801385662,0,5,-1,-2,-3,-1,-1,0
116801385662,2,3,-2,-1,-1,-2,0,-2
116801394665,3,1,-2,-1,-1,-1,1,-5
116801394665,6,12,-3,-2,-2,-1,0,-2
116801409496,-4,-3,3,0,0,-1,-1,-4
116801409496,3,2,-3,0,-1,0,0,1
116801411156,3,-7,-3,-2,0,2,-1,-3
116801411156,-3,-2,-3,-1,-1,-2,-2,-2
116801432051,16,3,-3,-3,-1,-1,-1,-15
116801432051,4,-4,-1,-3,-2,-2,-2,-5
116801433656,-4,-1,1,-2,-4,0,2,4
116801433656,5,1,-1,4,-1,1,2,-2
116801454493,-6,-2,-3,-4,-1,-3,-1,7
116801454493,-3,-7,-2,1,1,-1,0,1
116801456177,13,4,0,1,1,-1,-3,2
116801456177,-10,-10,-5,2,0,-2,-2,2
116801468823,-2,1,0,-6,-4,-2,0,-1
116801468823,-2,14,0,-3,-3,-2,-3,0
116801475619,11,6,-1,-1,0,1,1,3
116801475619,-13,-8,2,0,0,0,-1,2
116801491989,2,19,1,1,0,0,-1,3
116801491989,27,10,3,3,0,0,1,-19
116801493649,-8,-4,1,2,0,-3,1,2
116801493649,-1,1,-3,0,0,-2,0,-4
116801514514,0,5,-2,1,0,0,2,6
116801514514,-8,-2,0,-4,-1,-1,-3,11
116801516162,1,-5,-4,1,1,-1,-3,-2
116801516162,-10,-10,-3,-3,-4,-1,-1,-4
116801529453,-1,-7,-2,-2,-1,-2,-4,3
116801529453,-9,-11,-2,0,-1,-1,-3,3
116801531136,0,5,0,0,-1,-2,-3,0
116801531136,-9,-1,0,-5,-2,-2,-1,-3
116801551999,-3,-4,-2,0,-3,-1,-1,1
116801551999,-8,9,-1,2,-1,0,-1,1
116801553564,2,3,0,-2,0,0,-2,-7
116801553564,4,-3,-2,-4,-3,-2,-1,4
116801574506,5,0,-3,-1,0,-1,-3,-1
116801574506,3,-5,0,-1,-1,-1,-3,27
116801576165,-15,-8,-1,1,-1,-1,0,-17
116801576165,19,7,0,-3,-1,-1,0,2
116801588827,-14,-26,0,1,0,1,-1,1
116801588827,-7,-7,-3,-2,0,0,-1,3
116801595638,2,4,1,0,-2,-2,-3,-1
116801595638,0,0,0,2,1,-1,-1,-1
116801612182,-4,0,-4,-3,-3,-2,-2,-6
116801612182,1,-19,-4,-4,-3,-3,-2,-1
116801613635,0,-8,-1,-2,-1,-1,-2,-2
116801613635,-6,-2,-4,-2,-2,1,-2,-5
116801634596,-1,11,0,0,-1,-2,-1,-2
116801634596,-15,-10,-7,-2,-2,-2,-1,-5
116801636276,-5,-1,-3,-5,-1,-1,2,-22
116801636276,2,-2,-1,-1,-1,-1,0,3
116801657134,8,-6,-4,1,-2,-1,-1,-2
116801657134,-3,-4,0,-1,1,0,0,-7
116801658675,7,1,-1,-1,-4,0,-2,12
116801658675,-2,-2,-1,0,-1,-1,-4,1
116801672013,-13,12,2,1,-1,-1,-4,-7
116801672013,4,-19,-3,1,-1,0,0,-2
116801673615,-1,1,-2,-1,-1,0,-1,6
116801673615,12,-5,-3,-3,-2,0,-4,5
116801694600,-5,3,4,-1,0,-1,-3,3
116801694600,6,12,1,0,-2,-1,-3,-2
116801696270,2,-1,0,1,-1,0,0,4
116801696270,-1,-3,0,1,0,-1,-2,-6
116801708908,-26,-24,-5,-4,-2,-2,2,-6
116801708908,-2,-11,3,3,2,0,2,0
116801715666,-7,-6,-4,-9,-6,-3,-2,22
116801715666,-5,7,2,0,-2,0,-1,-10
116801731985,14,9,1,1,2,0,0,-2
116801731985,0,7,-2,0,-1,1,0,-1
116801733629,-6,0,-3,0,1,0,-1,-4
116801733629,3,-6,-1,-4,-1,-1,-2,1
116801754653,0,12,1,-2,-3,-1,-4,-1
116801754653,-2,-2,-3,-3,-2,-3,-4,-2
116801756209,9,1,0,0,-1,-1,-1,-3
116801756209,-5,4,-2,-2,1,0,0,1
116801769107,17,5,0,1,2,-1,1,-6
116801769107,2,15,2,3,0,-3,1,-5
116801775697,-3,-14,-3,-3,-1,1,0,-2
116801775697,-6,-5,0,5,1,-1,1,-2
116801792109,-2,-8,-1,-1,0,1,0,4
116801792109,1,-3,-6,-5,-2,-3,1,0
116801793734,10,12,1,-2,0,0,0,19
116801793734,-4,-5,0,1,-2,0,1,-8
116801814605,8,18,-2,-2,0,-4,1,2
116801814605,-5,-5,-1,-1,-2,-1,0,-4
116801816275,-3,-7,-6,0,-1,-1,0,-3
116801816275,27,5,1,-1,-1,1,2,5
116801828894,-3,3,2,0,-1,1,1,2
116801828894,10,6,4,-4,-2,0,1,-2
116801835993,0,0,0,-1,-1,-1,-1,-3
116801835993,-2,2,1,-1,-2,-2,-3,-1
116801858640,0,-14,-3,0,-3,0,-4,-8
116801858640,-3,-1,0,0,1,0,-1,3
116801867170,-1,-22,-2,-5,-2,-1,-3,-8
116801867170,-9,2,0,-2,0,-1,-1,-1
116801874545,0,-5,-4,-3,-2,-1,-3,6
116801874545,-8,-2,-1,0,-2,-1,-2,-25
116801876189,-8,7,0,2,0,-4,0,-6
116801876189,-12,-5,-4,-2,-3,-2,0,7
116801888851,-1,6,1,0,0,-1,0,-1
116801888851,-2,-19,-4,-1,-2,-1,-2,7
116801895617,-1,5,3,-5,-3,-1,-2,-4
116801895617,-3,0,0,0,-2,0,3,-6
116801912031,2,-1,0,0,-1,-1,0,2
116801912031,3,12,0,-4,-5,0,1,1
116801913636,9,-7,-1,3,0,-1,0,-1
116801913636,-7,-4,0,-2,0,-3,-2,-4
116801934789,-6,-5,-2,-3,0,-1,1,2
116801934789,-5,-3,-3,0,-2,-3,-5,-20
116801936292,1,6,2,0,-1,0,0,0
116801936292,-10,-5,-4,-2,-2,-1,-3,-3
116801948366,-3,-8,-2,-1,-2,0,-2,-6
116801948366,-18,-3,-5,-4,-2,-1,-2,2
116801957182,-3,-5,-2,1,1,-2,0,5
116801957182,5,5,-3,1,-1,0,-1,2
116801972086,0,-20,-2,-1,-1,1,1,4
116801972086,0,-4,0,-2,-2,0,-1,5
116801973679,0,3,0,2,1,1,-2,-4
116801973679,-2,-3,-2,-5,-2,-2,0,1
116801994769,2,3,-1,-1,-3,-3,-1,-2
116801994769,-5,-19,-2,-2,2,-2,-3,-1
116801996208,8,5,1,-1,-3,-1,1,0
116801996208,-1,-1,0,-2,1,-2,0,0
116802008374,4,8,-2,0,-1,-4,-2,-1
116802008374,-14,1,-3,1,0,1,0,-18
116802017293,-17,3,-1,1,-2,-1,-2,-1
116802017293,-4,-4,-3,-4,-3,0,-2,3
116802032188,10,10,1,0,-1,0,-1,-6
116802032188,9,7,3,0,-2,0,2,13
116802033693,-10,-5,-5,-3,-2,-2,-1,-2
116802033693,-1,-3,0,1,-1,-1,-1,-4
116802054511,-4,-5,-4,-4,-1,-1,-4,2
116802054511,1,5,-2,-4,0,-1,-2,1
116802056254,-5,-13,-2,-1,1,0,-1,1
116802056254,-8,20,-4,-1,-2,-2,-2,-1
116802068500,-2,-1,1,-1,-1,-1,1,4
116802068500,-5,3,1,1,-2,0,0,3
116802077217,14,9,-1,1,0,-1,-1,6
116802077217,-15,0,-3,-2,-2,-1,0,-21
116802092287,-2,-6,2,-1,1,1,0,0
116802092287,1,0,-4,-3,-1,-3,-1,6
116802093741,7,5,2,2,0,0,-1,0
116802093741,-4,-6,1,-1,1,0,1,8
116802114771,8,4,-3,-1,-2,-1,-1,-2
116802114771,4,-1,4,1,0,0,0,-2
116802116261,-6,-3,-2,-2,-3,-2,-1,-4
116802116261,5,-4,-1,-2,-3,-1,0,-1
116802128330,-8,-1,-3,-1,1,-3,-1,-3
116802128330,1,-12,-3,-1,-1,-2,1,6
116802137235,5,0,-1,-1,0,-1,0,-5
116802137235,-3,-5,5,0,1,0,-1,0
116802151991,2,-1,-2,-2,-3,-1,-1,3
116802151991,-12,-1,-3,0,-2,-2,-4,-2
116802153559,-26,-10,-5,-2,-2,-1,-3,-25
116802153559,4,-7,-2,0,0,-1,-3,-2
116802174662,-7,-2,0,-2,-1,0,-1,-1
116802174662,2,2,-3,0,-1,-1,0,-2
116802176211,-8,-3,0,-3,-2,-2,-4,0
116802176211,-4,7,-3,1,-2,-2,-2,-1
116802188258,0,-1,-1,-2,-1,-1,0,-3
116802188258,-1,1,-1,-1,-3,-1,0,3
116802197222,15,10,0,0,0,1,1,0
116802197222,-5,-10,-1,-2,-1,0,-1,1
116802212242,14,9,2,3,1,1,1,4
116802212242,19,-7,0,3,0,0,-1,2
116802213672,-9,2,-1,-2,-1,-1,0,2
116802213672,13,10,2,-1,-1,-1,1,-1
116802234744,-8,-4,-3,-3,-2,-2,-1,8
116802234744,-5,2,-2,-1,-1,-1,0,-21
116802236206,3,11,0,-2,-1,0,-2,-4
116802236206,-1,-11,-2,1,-1,-2,0,4
116802248263,-5,-1,-2,-1,-1,-2,-2,-1
116802248263,5,4,0,-3,1,-2,-2,2
116802257232,-1,-5,-2,-2,0,-1,-1,4
116802257232,4,0,-2,-2,0,-2,-4,-5
116802272060,-4,1,0,0,-2,0,-2,-8
116802272060,2,8,-1,-2,-3,-2,-3,4
116802273708,-13,3,-1,-1,-1,-1,-2,-1
116802273708,8,-2,-3,-1,0,0,-3,-2
116802294728,-9,-4,-3,0,-2,-1,-2,0
116802294728,-4,0,-1,-2,-1,0,0,5
116802296166,17,4,0,-2,-1,1,-1,-28
116802296166,-5,-5,-4,-1,-1,0,-1,2
116802308212,-2,21,0,-2,-1,-3,-2,-3
116802308212,0,4,0,-1,-2,-2,-1,1
116802317141,4,-6,-2,-2,-1,-3,0,5
116802317141,-7,-10,-2,-4,-3,-2,-2,0
116802332091,0,-14,-1,0,1,-1,-1,-6
116802332091,9,-1,-1,-4,-1,-1,-1,2
116802333726,-18,-6,-4,-1,-1,-1,0,6
116802333726,-4,-1,-1,-1,-3,-1,-1,-1
116802362221,-2,-5,-1,-2,0,-1,0,16
116802362221,0,1,3,2,0,0,-1,-1
116802363756,-3,-6,-3,-3,-2,0,-2,4
116802363756,3,6,-1,-1,-1,-2,0,-6
116802377050,-2,-1,3,0,-2,-3,-3,-4
116802377050,-5,-2,-4,-4,-1,-1,-2,-1
116802378686,3,5,2,0,-1,-2,-6,-6
116802378686,-3,3,0,2,1,1,-2,9
116802392262,-1,12,-1,-2,-2,1,-1,-4
116802392262,0,8,-1,1,0,-1,1,-1
116802393639,15,5,4,0,-3,0,3,5
116802393639,7,-11,-3,-1,-2,-2,1,-2
