timestamp,emg1,emg2,emg3,emg4,emg5,emg6,emg7,emg8
116928557674,1,-3,-8,-3,-2,-1,0,3
116928557674,15,29,4,0,1,0,1,0
116928558316,0,0,0,0,1,-1,-1,-5
116928558316,-1,0,-1,0,-2,-1,0,-1
116928559110,-2,3,-1,2,1,-1,-2,-1
116928559110,1,-8,-2,-1,-2,-1,-1,-3
116928559967,-8,-6,-3,-2,-2,-1,-2,-2
116928559967,3,-2,0,0,2,-1,-2,0
116928564920,-1,5,-2,-3,-2,-2,-2,-3
116928564920,-4,-29,-4,-2,-1,0,-2,-1
116928570621,5,2,-1,-1,-1,-1,-1,1
116928570621,-16,-3,-5,0,-3,-1,0,-3
116928586198,11,7,1,-3,-3,-1,-1,-1
116928586198,-1,13,0,-3,-2,-2,-3,-1
116928595347,4,-2,-1,-1,-2,-2,0,2
116928595347,-2,-5,1,1,-2,-1,-1,0
116928600525,3,-4,1,1,0,1,-1,-1
116928600525,-12,-1,-2,0,-1,-1,0,-1
116928624681,-3,1,0,0,0,-2,-2,-2
116928624681,1,3,-2,-4,-3,-1,-2,-2
116928625527,0,0,1,0,0,0,-3,-2
116928625527,-1,-3,-1,-2,-2,0,-3,0
116928662220,-2,1,1,2,1,0,1,0
116928662220,-2,-18,-3,-4,-2,-2,-1,-1
116928663000,-1,-2,-1,0,0,0,-1,-2
116928663000,0,0,5,4,-1,-2,0,-3
116928663820,-1,-3,-4,-2,0,-2,-4,0
116928663820,-2,0,-12,-9,-3,-3,-3,-1
116928664625,-1,1,6,-2,-1,-3,-2,-1
116928664625,0,-1,2,11,4,2,1,1
116928675231,-2,-9,6,-3,-3,0,0,-2
116928675231,-2,4,1,3,-1,0,0,-2
116928683400,1,0,4,0,0,0,-2,1
116928683400,-2,-1,-13,-14,-5,-4,-4,-4
116928697732,1,3,1,3,1,0,1,-3
116928697732,0,2,1,-1,-1,-1,0,1
116928705945,-4,-4,-5,-2,-3,0,-1,-2
116928705945,2,0,3,2,2,8,-1,1
116928712697,-1,0,-3,-1,-2,-17,-5,0
116928712697,-1,-1,-1,-3,4,5,4,-2
116928727673,1,2,-5,-3,-4,-2,1,-2
116928727673,-2,-3,-4,-7,-3,-3,1,-1
116928736742,0,-1,-3,0,-1,3,1,0
116928736742,1,5,9,8,1,0,-2,2
116928759121,-3,-1,-6,-5,-4,-2,-4,-3
116928759121,-1,-1,-1,2,-6,-7,-1,2
116928760658,-2,0,3,11,-4,-9,-4,-1
116928760658,-5,-3,-8,-3,3,7,-4,-4
116928774125,2,0,-5,-8,4,22,2,1
116928774125,-4,-5,-1,19,-10,-29,-2,-5
116928775785,0,0,-5,-5,-4,0,-3,0
116928775785,2,2,4,7,4,7,1,2
116928787808,-1,-1,0,-1,0,0,-3,-2
116928787808,-3,1,1,-9,1,7,-1,-5
116928796742,3,1,-1,-4,-1,26,7,8
116928796742,-1,0,-3,-3,-5,-36,0,-1
116928810996,-1,-2,1,-5,-5,-2,-3,2
116928810996,2,15,0,-5,4,7,-2,1
116928817956,-2,-3,-3,-5,-2,-7,-3,-4
116928817956,6,1,2,0,-5,9,2,-1
116928834102,4,-2,-3,3,1,5,6,0
116928834102,-23,-10,-4,-5,-4,-24,-20,-6
116928835737,-1,2,-2,-6,-2,-11,3,-6
116928835737,1,-1,5,6,6,13,3,5
116928856834,12,0,-1,2,-7,-13,0,16
116928856834,32,3,1,2,-4,20,3,3
116928858267,-75,-19,-14,-8,0,-21,-20,-61
116928858267,-1,-1,3,1,-3,-2,1,-15
116928870877,-39,-10,-7,-4,3,8,3,-13
116928870877,-4,1,5,8,5,1,-7,6
116928877751,25,18,-2,-11,-10,-7,-4,10
116928877751,6,-18,-5,-2,-10,-16,5,6
116928894191,-6,2,0,-1,1,6,6,-13
116928894191,15,0,0,-1,14,9,20,23
116928895710,10,3,7,4,8,21,-5,3
116928895710,13,12,1,-7,-3,-8,-12,-90
116928916655,13,-5,3,-5,-13,-27,1,69
116928916655,-13,-12,-7,-7,-8,-6,-3,-22
116928918154,-9,-4,-1,-1,4,14,-2,-1
116928918154,10,8,-6,-2,12,2,-12,-11
116928930970,28,-21,-1,14,-1,7,9,14
116928930970,-80,-6,0,-7,-7,-11,-6,-16
116928937977,-23,-10,-2,0,0,5,-11,-20
116928937977,-29,-4,-1,-6,-5,-9,6,11
116928954077,37,23,8,7,9,12,1,-5
116928954077,78,8,2,-5,6,-8,10,5
116928955683,-53,-3,-5,-1,-7,14,-1,-14
116928955683,1,-16,-7,3,-14,-32,-8,14
116928976801,33,6,0,3,13,-1,4,17
116928976801,24,11,1,-3,-6,15,3,6
116928978322,-28,-9,-2,0,-8,-24,-5,-25
116928978322,-1,2,7,4,6,28,-3,1
116928990320,29,6,-2,-10,-5,-16,1,26
116928990320,-71,-8,-6,-6,0,-5,-15,-46
116928999315,13,-4,4,1,-5,-12,6,19
116928999315,16,0,-5,-1,-2,-1,-2,29
116929014077,20,2,6,11,8,13,9,26
116929014077,-19,-2,-1,-3,1,3,-4,-22
116929015684,0,-3,-2,-7,-3,-2,2,10
116929015684,8,5,-1,1,3,21,18,4
116929036862,-22,-2,-7,-10,-8,15,-10,-14
116929036862,0,-11,5,11,-6,-66,-16,-4
116929038298,42,15,1,17,-1,19,17,38
116929038298,6,-8,-12,-27,-6,-20,-22,-15
116929050446,59,7,-1,-1,3,5,14,13
116929050446,-68,-10,2,8,-2,37,7,-58
116929059345,47,5,5,4,0,-24,-7,17
116929059345,-21,-1,-9,1,-1,6,1,24
116929074372,-36,-4,0,-2,-8,-20,-3,-14
116929074372,17,3,-1,-2,4,8,2,-6
116929075813,49,-7,-3,-5,-1,-5,-6,16
116929075813,-9,0,2,3,1,6,0,11
116929096819,-30,-4,-4,-5,-7,9,-16,-47
116929096819,34,4,-3,3,1,-2,11,41
116929098248,15,-2,3,1,4,-28,14,10
116929098248,-58,-8,-4,-13,3,24,-22,-48
116929110436,-28,-16,3,9,-1,-5,-1,-15
116929110436,25,1,-5,-10,0,24,-7,-3
116929119288,-7,2,2,3,-5,-2,-4,-27
116929119288,6,2,9,5,-8,5,-1,28
116929134102,-27,-2,0,2,5,-25,2,-22
116929134102,1,-2,-2,-5,-1,7,5,20
116929135695,8,-4,-13,-10,-1,6,4,23
116929135695,-7,-3,3,4,-5,-4,1,-24
116929156640,5,6,-8,-10,-12,-37,-20,-1
116929156640,15,4,2,6,9,-1,23,31
116929158228,-19,10,7,-2,0,4,1,-1
116929158228,24,0,8,1,4,55,14,30
116929170274,-13,-1,-1,3,-1,-32,-14,-32
116929170274,-1,-4,-7,-14,-5,-2,-7,22
116929179273,-4,-3,1,16,2,7,-6,-34
116929179273,25,6,-8,-9,6,7,6,21
116929195481,-34,-6,8,-7,-10,9,-4,-47
116929195481,13,2,2,6,-7,-15,-4,9
116929197167,3,-1,2,-4,5,10,4,8
116929197167,7,2,4,4,-1,-26,-2,1
116929216653,-14,7,-11,2,1,20,-2,3
116929216653,8,-2,-5,-7,-11,-26,-10,-2
116929218226,4,-4,-11,-11,14,12,-1,-2
116929218226,-1,2,-5,2,-9,-13,14,31
116929230309,5,-2,-8,-16,-7,4,-12,-33
116929230309,-9,-5,1,3,2,11,-8,-5
116929239301,7,-3,1,-1,-1,-1,5,12
116929239301,-8,-6,-3,3,5,-10,1,-4
116929254287,-8,0,5,-3,-2,-1,1,10
116929254287,1,-4,3,10,1,8,-3,-12
116929255744,0,1,-2,-2,-1,-3,2,-4
116929255744,-7,0,0,3,6,-12,-3,-4
116929276810,1,-3,-3,-2,5,5,-1,7
116929276810,1,-2,-3,-12,-22,1,2,4
116929278261,-7,1,2,5,-1,-1,2,3
116929278261,-1,-1,3,4,-15,-9,-7,-9
116929290307,16,1,3,1,12,5,2,12
116929290307,-4,-1,3,25,14,6,3,-2
116929299292,-4,3,-3,-7,-9,-1,-3,-3
116929299292,-4,-2,-7,-19,-8,-11,-8,-6
116929314079,5,4,9,1,11,-3,-4,10
116929314079,-2,-6,-8,-3,-6,2,1,-8
116929315686,-9,-4,-4,-8,-11,-4,-9,-14
116929315686,7,1,4,15,10,-1,1,-6
116929336712,-4,3,4,-1,-8,3,7,28
116929336712,-5,-2,-3,0,7,1,-6,-14
116929338299,4,-4,-2,-1,6,-1,2,6
116929338299,6,17,-3,-17,-9,-5,1,2
116929350351,-12,-1,4,6,-2,2,1,-5
116929350351,11,-2,-18,-27,-4,-4,-3,7
116929359318,-2,-5,8,7,0,0,4,-8
116929359318,8,9,-16,-10,-4,-3,0,-6
116929374312,17,-5,3,21,0,1,-4,-5
116929374312,8,6,14,-4,6,3,8,1
116929375729,-8,-8,-2,12,-2,-2,-5,7
116929375729,-23,-13,-3,9,-4,-2,1,-7
116929396680,-43,-6,-8,-9,-5,-4,-17,-16
116929396680,49,14,0,10,4,-1,1,30
116929398228,-43,-11,-12,-15,-3,3,-15,-27
116929398228,33,16,14,14,3,2,5,18
116929410446,-35,-8,-7,5,-2,-10,9,-5
116929410446,-6,1,6,0,-1,-2,-13,-47
116929419302,-31,3,8,17,8,5,21,14
116929419302,35,-17,-16,-12,-3,11,4,-31
116929434355,-12,-4,-4,-14,-11,-18,-2,-12
116929434355,-6,-2,-4,-5,5,2,6,14
116929435762,34,12,5,-4,-7,2,-11,11
116929435762,-67,-10,4,-4,0,-16,-9,-31
116929456843,29,7,0,-1,0,14,-36,-25
116929456843,-34,-21,-17,-30,-20,-8,36,29
116929458271,45,-7,-13,-9,-6,-9,-9,-17
116929458271,-5,10,4,3,1,-1,-15,11
116929470308,3,-1,-6,3,-11,-40,9,17
116929470308,26,17,11,7,11,22,18,8
116929479236,-13,2,6,7,9,-10,4,8
116929479236,-22,-6,-2,-11,1,-5,4,-10
116929494209,40,0,-7,-9,-3,11,5,51
116929494209,-83,-17,-6,-3,-9,-4,-61,-75
116929495707,19,9,4,0,-6,11,43,53
116929495707,4,-6,-7,0,-3,-12,-20,14
116929516852,5,-1,0,4,2,3,-2,-15
116929516852,11,-8,-2,-6,-6,-5,4,23
116929518238,1,-7,-4,-9,-6,-6,-24,-9
116929518238,-3,-2,8,6,9,-10,-13,-15
116929530510,1,-6,6,-4,-6,15,16,10
116929530510,6,6,-6,4,3,-1,0,6
116929539331,-10,-9,5,-3,2,-3,-13,-24
116929539331,11,-8,-6,-6,-2,-2,3,11
116929554058,-5,1,1,0,13,16,11,-8
116929554058,9,8,10,4,-14,-7,-3,10
116929555933,-5,6,4,3,-1,2,0,1
116929555933,-1,-12,-1,5,-1,5,16,12
116929576835,-9,-4,-11,-9,4,-4,-12,-23
116929576835,10,-1,1,1,5,0,-9,-6
116929578306,23,-3,-11,-10,-6,-1,-3,7
116929578306,-8,8,8,8,0,5,2,7
116929598457,-1,-8,-3,-8,-6,-13,-10,-4
116929598457,14,1,2,2,2,0,3,1
116929599304,-9,2,-5,-7,-1,1,1,-4
116929599304,-7,-5,-1,4,9,0,-8,-8
116929612984,0,3,8,11,-6,7,6,5
116929612984,-10,1,-16,-20,-7,-7,-4,6
116929620414,-7,0,0,5,1,-7,-9,-8
116929620414,13,5,1,-2,9,5,1,7
116929643637,-7,-6,-6,3,3,6,4,7
116929643637,-1,13,2,-15,-7,-1,0,-4
116929644277,2,3,14,11,-1,-5,-5,0
116929644277,1,-3,-5,-4,-4,3,4,-7
116929666661,-5,0,-9,-9,2,0,3,3
116929666661,-3,-3,8,14,4,-4,-1,-1
116929667413,-1,-5,-10,-10,-7,-4,-3,2
116929667413,7,3,7,11,-2,1,0,5
116929680825,-14,0,1,-1,-2,2,1,-6
116929680825,16,-7,-12,-3,-7,-6,3,37
116929681654,-20,-4,6,6,4,-5,-9,-48
116929681654,-1,-3,-7,-10,-5,9,3,4
116929703523,-7,0,-9,0,5,-2,-1,-8
116929703523,1,-4,8,9,2,4,4,4
116929704280,-4,-1,-7,-6,-8,-3,3,11
116929704280,-2,0,4,10,8,-4,-4,-3
116929718406,5,4,9,-9,-21,-3,8,-1
116929718406,-5,-6,-8,-2,4,-4,-4,-6
116929719256,1,-1,6,8,7,7,2,11
116929719256,-8,-7,-16,-21,-12,-7,-4,-13
116929741063,-14,-5,3,15,7,2,1,9
116929741063,-5,-5,1,-4,-3,-5,-6,-17
116929741784,-2,-4,-12,-6,-3,1,5,3
116929741784,3,2,4,1,2,0,-2,4
116929763513,-2,3,-10,-8,7,-5,-6,-1
116929763513,-2,1,0,8,-9,1,4,-1
116929764262,-4,2,0,4,6,1,-3,-2
116929764262,5,-10,5,4,-2,1,4,21
116929778531,6,-10,0,-5,-3,1,-4,-11
116929778531,-10,-1,5,12,11,1,-4,-6
116929779319,19,0,-2,16,0,-1,-2,17
116929779319,-25,1,-12,-53,-16,-7,1,-44
116929809146,14,6,11,12,12,5,1,-21
116929809146,8,-6,-17,-71,-14,-3,-1,-10
116929809909,-10,10,11,51,1,1,2,16
116929809909,3,-4,1,-12,0,-3,-5,6
116929823586,-8,-3,-9,-8,-5,-4,-12,12
116929823586,-2,7,3,55,2,-1,-4,-14
116929824360,-15,-23,-3,20,1,-1,13,5
116929824360,16,15,13,-28,-1,-1,1,-17
116929839920,-37,-15,-16,-5,-2,14,8,93
116929839920,32,5,5,33,6,-15,-12,10
116929840670,15,2,-8,-63,-4,-8,10,21
116929840670,3,-1,6,68,15,11,13,14
116929869158,-33,-16,-2,-33,-9,-2,-39,-46
116929869158,12,4,6,-20,4,12,29,7
116929869886,-11,-7,-9,-1,-7,-2,-29,-23
116929869886,9,-4,-12,-21,-16,-31,24,11
116929883654,26,14,10,18,12,10,-6,-22
116929883654,-15,-8,-1,9,-3,19,38,14
116929884412,21,7,7,-12,8,-14,-19,-57
116929884412,-16,2,5,2,6,30,20,9
116929898612,1,-12,-5,4,-13,-4,-8,-11
116929898612,-15,-2,5,11,8,-6,-12,-7
116929899274,0,0,-4,-15,-7,-3,-1,-17
116929899274,-12,-6,-13,-10,-16,-10,-28,-20
116929921004,8,6,4,8,4,-6,10,6
116929921004,-3,-7,-7,-24,-9,-8,-16,-7
116929921701,-5,0,-6,-3,-8,-4,-7,7
116929921701,-2,-2,-4,22,1,-11,-17,6
116929944128,10,4,-1,-8,-1,-1,18,0
116929944128,-2,9,-1,-9,-4,-4,-5,9
116929944986,8,-3,-7,-11,-5,2,1,3
116929944986,-11,-5,-2,-5,1,8,5,2
116929958464,7,1,2,11,-3,-11,6,-3
116929958464,-10,-4,0,-1,3,-2,-12,-11
116929959266,0,1,2,0,6,5,8,14
116929959266,6,3,3,2,-7,2,-5,0
116929980920,2,2,-8,-8,-1,-4,-5,-5
116929980920,1,-3,0,1,3,-4,-7,1
116929981691,-7,-1,1,-7,-2,2,4,0
116929981691,2,-3,1,10,1,-3,-4,2
116930011544,1,2,-6,-12,-2,-4,1,0
116930011544,3,-4,-3,-1,-4,0,1,4
116930012359,-10,0,-2,-3,10,5,5,0
116930012359,-4,0,-1,-1,-16,-2,-5,-2
116930018362,11,3,4,7,2,-2,0,2
116930018362,-3,-5,-4,-7,1,-1,-4,0
116930019162,-3,1,-1,-1,-2,2,-4,-1
116930019162,0,2,-1,2,5,-2,-6,-9
116930040953,2,1,2,2,-1,0,8,5
116930040953,-3,-5,-6,-9,-1,-10,-4,2
116930041694,1,-2,0,4,1,5,-3,0
116930041694,-2,2,3,12,6,7,-4,-4
116930071605,3,-1,3,1,-3,-13,2,0
116930071605,-8,-3,-3,-10,-4,5,-7,-15
116930072373,-1,2,-5,-2,-1,-2,-8,-5
116930072373,2,-3,-1,-6,0,-4,-3,-3
116930078374,0,-2,-1,3,-5,1,8,10
116930078374,6,0,2,-30,2,4,4,4
116930079231,-11,-9,4,0,2,0,-11,-8
116930079231,-3,-3,-2,37,-1,2,10,6
116930100896,-1,1,1,-1,-1,-16,-5,-3
116930100896,-4,-2,-5,-38,-2,10,-3,-4
116930101725,-1,2,0,35,-2,0,13,3
116930101725,-1,-1,-4,-30,0,-5,-8,8
116930124275,4,-2,3,51,5,18,2,-4
116930124275,-6,3,-2,-29,-8,-27,-8,-1
116930125069,-3,0,-6,-69,-7,7,0,0
116930125069,2,0,1,-6,7,-2,3,-1
116930138398,3,2,0,1,-1,7,-2,-2
116930138398,1,4,-4,69,-2,1,-7,-2
116930139252,-4,-2,-4,12,-3,-7,1,1
116930139252,-3,-1,7,35,2,-6,-6,-14
116930161036,3,-4,-13,0,-8,-12,-11,-6
116930161036,-6,0,-1,68,12,16,8,-2
116930161739,3,0,0,5,-1,-13,6,11
116930161739,2,3,3,21,4,13,-2,2
116930184311,-4,-10,-1,-12,2,1,-1,-4
116930184311,1,-3,5,58,-2,-7,-3,-2
116930185020,-15,-2,-4,-9,-5,-3,-5,-2
116930185020,3,-3,-1,-22,1,-2,1,6
116930206863,-4,1,-1,-29,-3,-1,0,-1
116930206863,-4,-6,-9,21,-4,-3,-1,2
116930207438,1,-1,2,-27,-4,0,-2,-2
116930207438,-2,-2,-10,-34,-10,-4,-2,1
116930221122,-5,1,3,19,7,1,0,-2
116930221122,2,-1,2,-35,-1,4,2,-3
116930221738,1,0,4,38,0,2,-1,-2
116930221738,0,-3,-1,0,3,-7,-3,0
116930244111,1,2,0,17,0,-5,-2,0
116930244111,0,-4,-7,-92,-4,6,0,3
116930244957,-2,-3,-4,28,-14,-5,-2,-3
116930244957,0,1,1,5,-5,6,1,1
116930258472,-1,-3,-2,-2,6,-10,-2,0
116930258472,-1,2,9,-1,2,-2,1,0
116930259228,4,0,-5,-24,-1,4,-5,0
116930259228,-9,-10,-2,38,1,0,-1,-3
116930289350,-3,0,-4,-33,2,7,1,-2
116930289350,-3,-16,6,51,3,-4,1,0
116930289938,4,-9,-14,0,-16,-9,1,0
116930289938,1,1,2,52,10,6,1,5
116930304211,-6,-3,-1,-49,-8,-3,1,-2
116930304211,-8,15,4,14,7,2,-8,-11
116930305078,5,9,11,48,11,0,3,0
116930305078,-3,-2,-4,-12,-12,-3,-1,0
116930318404,6,-2,-6,-47,-3,6,2,2
116930318404,30,10,-4,22,-1,-11,-3,2
116930319279,-9,6,2,-17,6,10,1,-2
116930319279,-1,2,-1,53,10,-5,-1,-3
116930341122,-8,-2,0,-66,-21,-3,-1,-2
116930341122,-8,-7,-3,27,-9,-1,-2,-2
116930341761,21,5,3,-13,12,3,2,8
116930341761,-4,-4,-4,-19,-5,0,0,-1
116930364222,3,4,2,26,7,2,-6,-1
116930364222,2,-2,2,-7,1,-4,1,3
116930365077,-7,-3,-6,26,-6,-2,-2,-8
116930365077,-7,3,3,-41,-14,-9,-4,0
116930378461,-8,-12,-9,34,1,9,1,-2
116930378461,-30,-40,-7,-37,-5,-12,-2,-1
116930379264,1,3,4,56,4,-3,-8,-9
116930379264,12,5,-4,-61,-5,6,8,6
116930400956,6,6,3,84,4,-5,-2,-1
116930400956,-17,-5,-1,-50,6,3,-1,-6
116930401698,-3,0,5,-27,1,10,-2,-6
116930401698,-7,-11,-22,-55,-27,-25,-11,-12
116930424341,-10,5,4,60,17,3,1,6
116930424341,6,6,3,8,2,5,8,8
116930424963,-10,-7,2,-16,3,1,-1,-2
116930424963,18,30,0,-16,-6,1,-6,-10
116930438426,4,2,3,36,-2,-1,6,4
116930438426,6,11,0,44,-4,0,-2,0
116930439253,39,16,0,-7,1,-9,0,5
116930439253,-15,11,11,29,13,6,1,-1
116930460968,-10,-9,-11,-32,-7,-4,-4,-4
116930460968,2,-2,-4,-19,-3,2,-1,-1
116930461821,2,4,-2,-30,-2,0,1,-4
116930461821,-5,-14,-2,2,1,-3,-1,2
116930484123,-16,-15,-1,32,-1,-3,-2,-5
116930484123,11,2,1,-1,-3,1,-1,2
116930484922,-21,-12,-2,28,3,-3,-2,0
116930484922,11,-10,-4,-9,1,-1,-1,3
116930498473,0,0,3,-19,-2,1,1,-1
116930498473,-18,-21,-1,18,2,0,-3,-1
116930499245,-3,12,-5,-34,-16,-6,1,4
116930499245,10,-3,5,38,12,3,2,6
116930521120,-9,-6,-2,-42,-6,-3,-5,-14
116930521120,-2,6,-7,18,1,-4,-2,-12
116930521727,9,10,2,24,1,1,1,-4
116930521727,-10,-11,-4,-45,-4,1,-1,1
116930544267,9,11,4,50,4,-2,-5,2
116930544267,4,17,-2,-70,-8,0,-1,4
116930545103,-12,-13,3,22,3,-3,-2,2
116930545103,5,0,-6,-12,0,-1,0,1
116930566635,5,2,0,-15,-3,-2,-2,0
116930566635,1,10,5,22,3,1,-1,-1
116930567387,-3,-10,-1,-13,0,1,0,3
116930567387,6,8,1,-9,-6,-4,-3,-4
116930580901,-28,15,-3,-28,-3,-3,2,-1
116930580901,25,-10,-6,19,1,-2,-3,-3
116930581713,-6,-2,-5,-17,-2,-2,0,-2
116930581713,-28,-15,3,26,6,1,-1,-5
116930604111,17,6,-8,-47,-13,-1,1,2
116930604111,-4,18,6,28,9,2,0,1
116930604903,-6,-13,-9,-46,-13,-3,-3,-1
116930604903,-4,-5,1,3,3,-1,-1,0
116930618368,19,3,-3,1,-2,0,-3,-2
116930618368,-19,-6,-1,-6,-3,-2,-1,-3
116930619168,4,-7,-3,4,1,1,0,-3
116930619168,11,17,10,0,1,3,2,9
116930640871,-4,-8,-5,-7,-6,-3,-4,-4
116930640871,-5,-12,-3,-12,-5,-2,-1,-1
116930641667,2,0,-2,20,-3,-4,-2,-2
116930641667,-4,-25,-4,7,-3,0,0,-2
116930664098,-3,15,2,13,5,-1,-1,-1
116930664098,21,11,4,0,-4,-1,-3,3
116930664872,1,-5,2,-8,-3,-1,2,6
116930664872,12,12,-2,10,-1,-4,2,1
116930678452,-4,-3,1,-1,0,0,-2,-4
116930678452,-16,0,-1,1,-2,-1,-3,-3
116930679192,-7,0,-1,0,0,-2,-2,-2
116930679192,-7,-7,-5,1,-2,-3,-2,-6
116930700920,9,-3,-4,1,2,0,2,3
116930700920,2,-1,-3,-10,-3,0,0,2
116930701702,-10,-10,-3,3,1,0,-2,-3
116930701702,-6,1,-1,-7,-3,-2,-2,-3
116930724039,5,-15,0,-1,-4,-3,-1,-1
116930724039,-1,-3,0,-8,-2,0,0,-3
116930724863,-2,-15,-3,-2,-1,-2,0,-2
116930724863,15,2,2,9,0,-2,-2,-3
116930738409,-5,-2,-1,-3,-1,-3,-3,-2
116930738409,6,-3,0,-2,-2,-1,1,0
116930739169,-4,4,1,2,1,-1,-1,0
116930739169,1,16,-3,-5,-3,-3,0,0
116930760893,2,-7,0,-2,-1,-1,-3,-1
116930760893,-2,1,-4,-11,-3,0,0,-2
116930761667,-1,-2,-1,1,-1,-1,0,-2
116930761667,-6,17,-1,-4,-2,-1,-2,-1
116930784163,0,17,4,-2,0,1,1,-4
116930784163,9,2,-1,8,1,0,-1,0
116930784871,13,8,0,-13,3,2,0,4
116930784871,3,12,0,-1,-3,0,-3,-5
116930798364,9,4,5,-20,-1,0,2,5
116930798364,-18,-6,-1,-2,-2,-1,-3,-14
116930799142,0,17,0,-1,-4,-1,2,6
116930799142,9,-8,-2,-5,-3,-4,-2,0
116930820918,-6,-11,-5,5,-1,0,-3,0
116930820918,-3,-9,-2,2,0,-3,1,-2
116930821682,-3,-4,1,0,1,-2,1,-1
116930821682,9,-12,-2,0,-1,0,-1,-3
116930844070,-1,-3,-1,3,-3,-3,-1,-4
116930844070,5,31,-2,-1,-4,-2,-3,2
116930844843,-2,30,3,3,0,1,-1,-5
116930844843,-11,-13,-4,3,-2,1,-1,1
116930858379,-9,-12,-4,2,1,-2,-2,-2
116930858379,2,-3,-2,-9,-2,0,-1,1
116930859164,-4,-1,-1,-2,1,-1,-3,-2
116930859164,-28,-14,-6,1,-1,-2,-4,-6
116930880892,3,-1,-1,-2,1,-3,0,1
116930880892,-6,-7,-1,-1,-1,-2,-1,1
116930881666,3,-8,-4,2,-1,-2,-2,1
116930881666,1,-5,-1,1,0,-1,0,1
116930904122,-4,-6,-2,4,-1,0,-1,-1
116930904122,-3,-8,-1,-2,-1,0,0,3
116930904844,1,-15,0,1,-2,-1,-3,-4
116930904844,-4,-17,-4,-1,-1,-2,-2,-2
116930917709,14,1,-1,-8,-2,-1,1,2
116930917709,-8,-6,-4,-1,0,-2,-1,-2
116930925920,-21,-4,-3,0,-1,-1,-1,-3
116930925920,6,8,2,0,-1,-1,0,1
116930940929,-5,2,-2,5,-1,-1,-3,-2
116930940929,-4,-12,-4,-3,-1,-3,-2,0
116930941713,-5,-9,-1,-2,-2,-2,-1,-2
116930941713,-5,-1,-1,2,-1,-2,-2,-1
116930964102,-15,-3,-2,1,-1,-1,-1,-1
116930964102,14,3,2,-2,0,0,0,-1
116930964868,-3,3,-2,-2,-2,-2,-1,-1
116930964868,-11,-10,-3,-2,0,-2,-3,-5
116930977734,2,3,0,-1,-1,-3,-2,0
116930977734,2,3,-1,-3,-2,0,0,1
116930985888,-2,-7,0,1,-2,-1,-1,-1
116930985888,-5,3,-4,-2,-1,0,0,-1
116931000899,5,-9,-2,0,-3,-3,-1,0
116931000899,-3,-3,-2,-1,-2,-1,-1,-1
116931001678,4,-3,0,0,0,0,-1,-2
116931001678,-4,-11,-9,-7,-3,-3,-3,-3
116931024062,-2,7,1,1,-2,-2,-1,0
116931024062,1,3,1,2,0,-1,-1,0
116931024889,-21,-15,-6,-2,-2,-1,-1,-2
116931024889,21,14,6,4,2,1,0,3
116931037704,11,3,3,-1,-3,-2,-1,0
116931037704,-6,4,-1,-3,-1,-1,0,0
116931045908,0,-1,-1,-3,-3,-2,-3,0
116931045908,-5,5,0,0,-1,2,-1,-1
116931060912,-4,2,-1,0,0,0,0,-2
116931060912,-2,-12,-4,0,-2,-2,-1,1
116931061651,4,-3,-2,0,-1,0,-1,-2
116931061651,0,-2,2,0,0,-1,0,-2
116931084026,4,4,-2,-1,0,0,0,-1
116931084026,-27,-33,-5,1,-1,-3,-4,-5
116931084810,0,-4,-3,-1,-2,-1,0,-1
116931084810,6,5,1,-1,-2,-1,0,2
116931097738,8,4,2,2,1,0,0,-4
116931097738,-2,1,-5,-5,-1,0,0,1
116931105903,3,8,0,-2,0,-3,-3,-2
116931105903,-3,-6,-2,-2,1,1,-2,-1
116931120908,-7,-8,-6,-3,1,-2,-3,-2
116931120908,1,3,0,1,-2,0,-2,-2
116931121714,4,3,0,1,-2,1,-1,-2
116931121714,-3,-6,-1,-1,-1,-1,0,1
116931144086,-9,-12,-7,-3,-2,-1,-2,1
116931144086,-6,11,-1,-4,0,0,0,-1
116931144871,25,6,2,0,0,0,0,2
116931144871,-12,-8,-2,-1,-2,-2,-2,-4
116931157717,-12,6,-2,-2,-2,-1,-2,-4
116931157717,9,20,5,0,-2,-2,0,1
116931165968,-17,-1,-6,-6,-4,-5,-2,-5
116931165968,-16,-10,-4,1,-1,-1,-1,-4
116931180843,11,9,2,0,0,0,0,4
116931180843,7,1,5,2,0,-1,-2,-1
116931181628,2,2,-3,1,0,0,-1,-1
116931181628,4,2,1,1,1,-2,0,-2
116931204078,-10,-12,-6,-3,-4,-3,-1,-2
116931204078,2,-14,-1,-2,-2,-2,-2,0
116931204867,6,5,-2,-4,-3,-1,-1,2
116931204867,5,1,0,-2,-2,0,0,2
116931217715,-14,-11,-2,1,-1,-1,-3,-4
116931217715,7,10,-1,-2,0,-3,-1,0
116931225885,-1,1,0,0,0,-2,0,0
116931225885,3,3,0,-2,-3,-2,-1,1
116931240625,-9,-5,-1,-1,-1,1,-2,-2
116931240625,1,-5,-6,-1,0,1,-2,-1
116931248381,-8,-3,0,1,0,0,0,-2
116931248381,1,7,-3,-3,-1,-1,-3,-1
116931264062,14,-24,-1,-1,-1,0,1,0
116931264062,-12,-12,-1,-1,1,-1,1,-2
116931264958,9,5,2,1,1,-1,-2,-2
116931264958,-21,0,-2,-1,-2,-3,-2,-2
116931286646,0,-22,-1,0,-1,-1,-1,0
116931286646,5,0,-8,-4,-3,-1,-3,-2
116931287360,-16,-9,0,-1,-1,-2,-1,-2
116931287360,18,-4,-3,-3,-2,-2,-3,-1
116931308746,-8,3,0,1,1,-1,1,0
116931308746,-3,2,1,-5,-3,-1,0,-1
116931315948,-1,-7,-1,-3,-1,-2,-2,0
116931315948,-3,2,-2,1,1,0,0,0
116931324079,-3,4,-2,0,-1,-1,0,-1
116931324079,10,-1,0,2,-1,-4,-1,0
116931324840,-11,25,-3,-4,-2,-2,-2,-1
116931324840,28,-12,0,-1,0,0,0,0
116931346668,9,12,1,-1,0,-1,1,3
116931346668,-3,4,1,2,-1,-1,-3,-1
116931347364,-1,-2,-4,-4,-2,-1,0,-2
116931347364,-4,1,1,-2,-2,0,-1,-1
116931360862,-1,-2,0,-2,-1,-2,-1,-2
116931360862,-10,-9,-3,0,1,0,-1,-1
116931361642,10,-4,2,0,-2,0,-1,0
116931361642,-8,-2,0,-1,1,-1,0,0
116931384082,4,10,1,-1,-3,-1,1,0
116931384082,-6,-4,1,1,0,1,3,0
116931384865,-1,-8,0,0,-2,-1,-3,-1
116931384865,-4,2,1,2,-2,0,0,-2
116931406595,-4,-8,-6,-4,-1,-2,-3,-2
116931406595,-12,-1,0,-4,-2,-1,-1,-3
116931407427,-1,-8,-1,1,0,-2,-1,-1
116931407427,-27,-11,-4,-2,-3,-2,-2,-3
116931420854,9,13,0,-1,0,-2,-2,-2
116931420854,-5,-6,-1,-1,-1,-2,-1,-2
116931421665,2,1,3,0,2,0,1,1
116931421665,0,7,-3,-2,0,-3,-1,-2
116931444139,-1,9,0,-2,-1,1,-1,-3
116931444139,11,9,1,0,0,0,2,2
116931444881,-2,-27,-5,-2,-1,-1,0,-3
116931444881,1,-8,0,-2,-2,0,-3,-1
116931466560,4,4,-1,-2,-3,-4,-2,0
116931466560,10,5,1,1,-1,0,-1,0
116931467347,-18,-9,-5,-1,-2,-2,-2,-3
116931467347,19,12,2,-1,-1,-1,1,3
116931480875,-7,-15,-3,-1,-1,-1,-2,-1
116931480875,-1,1,0,1,-2,-2,-1,-2
116931481689,4,7,-1,3,-1,0,-1,-1
116931481689,-13,-8,0,0,-1,0,0,-3
116931504070,-6,3,-1,-1,-2,-2,-4,-8
116931504070,2,-3,-5,-3,-2,-1,-1,1
116931504887,-3,6,0,-1,-1,-2,-2,-1
116931504887,15,9,0,0,-2,-2,1,2
116931526554,-7,-21,-1,2,0,-1,1,-1
116931526554,-10,1,1,0,0,-1,-1,-2
116931527360,0,-7,-6,-5,-2,-3,-1,-2
116931527360,3,-7,-2,0,0,-2,-2,0
116931540862,-10,2,1,0,0,0,0,2
116931540862,5,10,-1,1,-2,-2,-2,-3
116931541679,3,-4,0,-1,-1,0,-2,-1
116931541679,-8,-2,-3,-1,-1,-2,-2,-1
116931563999,6,7,0,0,-1,-1,0,1
116931563999,-11,-9,-2,-2,-1,-3,-2,-1
116931564829,-4,0,0,1,0,0,-1,0
116931564829,-6,7,-2,-2,2,-2,-1,-2
116931586582,-8,-22,-2,-4,-3,-3,-1,-2
116931586582,-14,-14,-5,-3,-1,-1,-3,-9
116931587365,6,6,0,-1,1,-1,0,6
116931587365,-12,-15,-3,-1,-2,-2,-3,-1
116931609037,-7,4,-1,-2,1,0,-1,-2
116931609037,8,5,-1,-1,0,-1,-1,0
116931609849,-1,-1,0,-1,-3,-1,0,-3
116931609849,-20,2,-4,0,-2,-1,-3,-4
116931624055,-1,1,-3,0,-2,0,-1,4
116931624055,5,-2,2,-2,-2,0,-1,1
116931624842,-2,3,0,1,-1,0,-1,-4
116931624842,6,24,1,0,0,-2,0,-1
116931646555,3,-5,-1,0,0,-1,0,-4
116931646555,-1,1,1,1,0,-2,-1,1
116931647359,-1,-2,-1,0,0,-1,-3,-1
116931647359,0,-5,0,-2,-3,0,0,1
116931660851,-11,16,-4,-3,-1,-1,-2,-2
116931660851,10,-3,0,2,1,-1,0,0
116931661722,-1,-2,-1,-2,-1,-1,-1,0
116931661722,12,-3,-1,0,-2,0,0,1
116931684040,-4,13,2,-1,0,-2,0,0
116931684040,0,2,0,-3,-1,0,0,1
116931684834,-5,1,-2,-1,-2,0,-2,-3
116931684834,4,-1,3,2,0,-1,0,-6
116931706577,1,-25,-9,-6,-3,-2,-2,3
116931706577,9,15,5,0,-1,0,-1,0
116931707370,-3,-1,-1,-2,0,0,0,-4
116931707370,1,-2,-1,-2,-1,1,-2,-3
116931720920,-15,-21,-2,2,-1,-1,-3,-3
116931720920,-11,-15,-6,-2,-1,-2,-1,-2
116931721734,5,2,-2,0,-1,0,0,2
116931721734,-3,-1,0,-1,1,0,0,-1
116931751594,10,8,1,1,-2,-1,0,-1
116931751594,-1,0,-2,1,-2,-2,-1,1
116931752334,0,-6,-1,0,-2,-1,0,-1
116931752334,-13,-4,-2,-6,-3,-3,-3,-1
116931766538,15,5,1,2,2,1,0,1
116931766538,-9,2,-4,-2,-2,-3,-3,-2
116931767446,2,2,0,-3,-2,-1,0,-2
116931767446,-4,-1,-3,-2,0,-1,-1,-1
116931780849,1,-4,0,-1,0,-1,0,-3
116931780849,-1,-3,0,-3,-2,0,0,-1
116931781670,1,-2,-2,-2,-1,-1,-1,-2
116931781670,3,3,0,-1,-1,-1,-1,1
116931811544,1,3,4,0,-2,-1,1,1
116931811544,-23,-13,-7,-3,-3,-3,-3,-5
116931813228,-5,-6,-1,-1,0,-1,0,-3
116931813228,3,-4,0,1,1,0,-1,-1
116931826581,1,4,-2,-2,-2,0,-1,-2
116931826581,-2,-16,-3,-3,-2,0,-2,-2
116931828212,19,14,2,3,1,-1,-1,2
116931828212,-16,-20,-3,-2,-2,-3,-1,-4
116931840191,-3,-7,-4,-2,-3,-2,-3,-1
116931840191,8,4,0,-3,0,-1,0,0
116931849259,-7,-3,1,0,0,-1,-2,-2
116931849259,13,8,-2,-1,0,-1,-1,1
116931864106,1,1,-2,-2,-2,-1,-2,-1
116931864106,1,0,-1,1,0,-2,-2,-1
116931865687,-5,-1,-2,0,0,-1,1,0
116931865687,0,1,-3,-1,-2,-1,0,1
116931886647,-13,-11,-4,-4,-2,-1,0,-2
116931886647,7,9,-1,0,-2,0,1,1
116931888156,-2,-5,-2,0,-2,1,-3,0
116931888156,3,-5,-1,0,-1,-1,1,-2
116931900301,4,4,0,-1,-1,-1,-1,1
116931900301,4,1,0,-1,0,-2,0,1
116931909227,-1,4,-5,-1,-2,-3,-2,-2
116931909227,-14,10,0,-2,-3,-1,-1,-2
116931924347,-1,8,1,1,0,-1,0,-3
116931924347,-12,-3,-3,-4,-2,-2,-2,3
116931925962,6,4,1,-1,0,0,-2,-1
116931925962,0,1,-1,-3,-1,0,0,1
116931946537,-7,10,4,1,0,2,-2,-3
116931946537,6,9,1,-1,1,2,-1,2
116931948163,-9,-2,-5,-3,-2,-4,-2,-3
116931948163,2,-6,-3,-1,-1,-2,-1,-1
116931960294,5,0,1,2,-1,-2,0,-1
116931960294,-3,-8,0,-1,-1,0,0,-3
116931969253,-3,-5,-2,-1,-3,-1,-1,0
116931969253,0,-19,-6,-5,-3,-1,-3,-2
116931984132,2,-1,-1,0,0,0,-1,-2
116931984132,4,0,-1,-3,0,-1,-1,-2
116931985684,-2,-4,-2,-1,-2,1,-1,0
116931985684,1,2,2,1,1,1,-2,-1
116932006697,0,-1,-3,-1,-3,1,-1,0
116932006697,5,-5,-1,2,-2,-3,-2,0
116932008295,-8,-2,-1,-5,1,-1,-1,-2
116932008295,0,4,0,1,-1,1,-1,0
116932020330,-9,-9,-5,-2,-1,-2,-1,-4
116932020330,10,6,0,0,-1,2,1,5
116932029343,1,-1,1,2,0,0,0,0
116932029343,-2,1,0,-1,-2,-1,-1,0
116932044134,-4,-4,0,0,1,-3,-1,1
116932044134,-16,-16,-8,-6,-3,-4,-3,-5
116932045808,0,16,0,-3,0,-1,0,0
116932045808,1,-5,-2,1,0,0,-2,-7
116932066586,2,0,-1,-1,-3,0,-2,0
116932066586,-2,1,-2,-3,-1,1,-1,-3
116932068199,4,-3,-1,-2,-1,-3,-1,1
116932068199,-3,2,0,-1,-2,0,0,-1
116932080216,1,2,0,-3,-1,1,-1,-2
116932080216,0,4,1,3,1,-1,-2,-5
116932089214,-7,-3,0,-2,-1,-2,-1,-3
116932089214,8,1,-1,-1,-3,-1,0,2
116932104056,-12,0,-1,1,-1,0,-3,0
116932104056,0,1,-1,-1,-2,1,-2,0
116932105701,3,-5,-1,1,-1,-1,-1,-2
116932105701,-4,-7,-2,-2,-1,-2,-2,0
116932126558,7,2,-1,-3,0,-1,0,2
116932126558,3,4,1,0,0,-1,0,-1
116932128155,-1,-2,0,2,0,0,0,0
116932128155,-21,-6,-2,-2,-2,0,-2,0
116932140263,15,5,1,-1,0,1,1,2
116932140263,-4,-1,0,-2,-2,-2,0,-2
116932149232,2,-5,-3,1,0,1,-2,-1
116932149232,1,13,0,-2,1,0,-2,0
116932164086,-4,-2,0,0,-1,-3,-1,-1
116932164086,14,-3,-1,1,-2,-3,0,-1
116932165699,-2,5,2,-1,0,1,-2,-2
116932165699,1,-21,0,1,-1,-1,-2,-3
116932186527,-5,-4,-3,-2,0,-1,-1,-1
116932186527,-6,-1,-1,0,0,-2,-1,-2
116932188348,-5,-9,-3,-2,-2,-1,-1,0
116932188348,2,4,-2,-1,-2,-2,-1,-1
116932209145,0,-2,-1,0,-1,-1,-1,-1
116932209145,-6,-10,-2,-1,-1,0,-1,-1
116932210698,0,1,-3,-2,-1,-2,-1,-3
116932210698,-2,-2,-1,-1,0,-2,0,-1
116932223416,-2,-2,-2,-1,-3,-3,-1,-2
116932223416,2,6,0,-1,-2,0,-1,-1
116932230155,-5,-3,0,-2,-3,-3,-1,0
116932230155,17,6,0,0,0,-1,0,0
116932246621,-2,2,1,0,-3,-3,-3,4
116932246621,-1,-1,-2,-1,-1,-1,-3,-4
116932248146,5,-2,-1,-1,-2,0,2,-3
116932248146,-5,-4,-4,-1,0,-2,-2,1
116932269091,16,5,2,-3,1,1,-1,1
116932269091,11,29,3,-1,-1,-1,-2,1
116932270725,-1,-7,2,-1,-1,0,-1,1
116932270725,-3,0,0,0,-3,-1,-3,-4
116932283423,-7,8,-3,1,0,1,-2,-3
116932283423,26,2,2,1,-2,1,1,3
116932290229,-6,8,0,-3,-1,-1,-1,-2
116932290229,-1,-3,-2,-1,0,-2,0,-1
116932307095,4,1,-2,-2,-1,-2,-1,-1
116932307095,-9,-10,-1,-1,3,0,0,0
116932308677,-5,-11,-5,-2,-2,-1,-1,-2
116932308677,-1,2,0,-1,-2,1,0,0
116932329064,-5,-7,-2,-2,-1,-1,-3,-1
116932329064,-20,-11,-2,3,-1,0,-1,-5
116932330680,1,-3,-1,-3,-4,-2,-1,-2
116932330680,-2,4,0,-3,-1,-1,0,-1
116932342742,-2,-5,-2,-2,-2,-1,1,0
116932342742,-10,-8,-1,-1,-1,-2,-2,-5
116932351829,2,17,0,0,0,0,-1,0
116932351829,2,-2,-1,1,-2,1,-4,-9
116932366585,-4,-3,-2,-4,-2,-1,-1,0
116932366585,7,-1,-3,-2,1,-1,-1,0
116932368236,-15,-3,-4,-2,-3,-3,-1,1
116932368236,-22,-12,-3,-3,-1,-2,-2,-2
116932389046,-3,-6,-1,2,1,0,-2,-4
116932389046,-2,2,-2,-4,-1,-1,-1,-2
116932390727,1,-8,-1,-1,-1,-1,-4,-2
116932390727,1,-1,-1,0,0,-1,0,0
116932403420,3,-2,-1,0,-2,-3,-1,-1
116932403420,4,20,0,-2,-3,-1,-1,3
116932410218,-8,-13,-4,-1,0,0,-1,-2
116932410218,11,7,1,-1,0,1,-1,3
116932434106,-2,-2,-2,-2,-2,-2,0,0
116932434106,2,1,2,0,0,0,-2,-8
116932435695,-10,-28,-8,-3,-2,0,0,5
116932435695,9,11,1,0,0,-1,1,2
116932449072,-7,0,0,-2,-1,0,-1,-4
116932449072,-10,-11,-1,-1,-1,-2,-1,1
116932450692,4,4,1,1,0,-2,0,-2
116932450692,-10,-11,-3,0,-1,-1,-1,-3
116932462769,-3,-1,-1,-3,-1,-1,-3,-3
116932462769,-2,-6,-1,1,-2,-2,-1,-1
116932471710,4,2,2,2,-1,-2,-1,-1
116932471710,2,3,0,-3,-1,-2,-2,1
116932486567,-1,1,-3,-3,-2,0,-2,-2
116932486567,-4,-7,-5,-3,-1,-1,-1,1
116932488173,2,2,-1,-1,-1,-2,-1,0
116932488173,-3,6,-1,0,-2,-1,0,-1
116932509076,-4,-11,-2,-3,0,-2,0,-3
116932509076,-3,2,1,0,0,-2,0,7
