timestamp,emg1,emg2,emg3,emg4,emg5,emg6,emg7,emg8
84004877116,5,4,-2,-3,-1,0,2,-2
84004877116,-6,-8,-2,-3,-3,-3,-2,-41
84004877903,-2,21,2,2,1,0,0,20
84004877903,8,-5,1,0,0,-1,-1,6
84004899651,-13,28,-1,-1,-1,-2,0,-2
84004899651,2,-6,-2,-2,0,0,-1,5
84004900415,-1,-7,2,-2,2,1,-1,-1
84004900415,-17,2,-4,-4,-3,-1,-3,-11
84004914608,-2,-2,-1,-2,0,-1,1,0
84004914608,1,-56,-5,-3,-1,1,1,13
84004915420,0,-5,1,-1,-1,-2,-2,-2
84004915420,27,4,0,5,-1,-1,-1,2
84004937125,-4,7,0,-1,-1,-1,-1,5
84004937125,-18,6,-2,-3,0,-3,-2,-1
84004937903,-3,-10,-3,1,-1,0,-2,-13
84004937903,-2,-7,0,-6,-4,-3,-2,-9
84004959615,-6,5,-1,-5,-1,-1,-4,-17
84004959615,3,11,-1,2,-1,0,2,42
84004960428,-16,-14,-3,-5,-5,-2,0,-2
84004960428,-4,9,-1,1,0,0,0,-1
84004974635,11,-9,0,2,-3,-2,-3,-2
84004974635,-12,2,-3,-4,-1,-1,-2,-1
84004975420,32,-3,-2,-1,-1,-1,1,-5
84004975420,1,15,3,3,3,2,2,10
84004997138,-8,9,-1,-2,-2,-1,-1,-2
84004997138,12,1,-3,2,-1,-2,-2,-4
84004997915,-33,12,-1,0,-3,-2,-5,-28
84004997915,15,4,-1,-6,1,-2,-2,-8
84005019638,-3,8,-3,1,-1,-2,-1,30
84005019638,7,34,5,-1,0,0,-3,7
84005020410,0,-9,-4,-4,-2,-1,4,-5
84005020410,1,28,2,-1,-3,-3,1,-2
84005034632,-14,-25,-1,3,1,-1,-1,0
84005034632,5,4,-3,2,-2,-2,-4,6
84005035428,-11,-10,-4,-6,-2,-1,-3,8
84005035428,-37,-14,-6,-5,-2,-2,-2,-5
84005057111,15,2,4,1,1,1,3,3
84005057111,-1,-5,-3,2,-1,1,-1,-9
84005057981,2,-1,0,3,-1,-1,-2,-20
84005057981,18,6,-2,-1,-2,1,5,69
84005079717,5,-19,-4,-1,-1,0,-2,-11
84005079717,-5,-8,1,-2,-1,-1,-1,-7
84005080343,-19,2,0,0,-4,-2,-5,-13
84005080343,0,-19,0,10,2,1,3,-10
84005094592,-4,-1,1,-6,-3,-1,0,-6
84005094592,-3,5,-2,-3,0,1,2,3
84005095394,2,1,-3,2,-1,-2,-2,22
84005095394,2,-9,1,-2,-1,0,-1,-8
84005117083,-7,1,1,5,0,0,-1,-3
84005117083,7,2,1,2,1,-1,0,-19
84005117931,8,0,0,-3,0,-2,-2,3
84005117931,1,-11,-1,1,-1,-3,-3,-7
84005147805,-1,14,-3,-5,-2,-2,0,6
84005147805,3,-1,-2,-2,-1,1,-1,-18
84005148603,-4,33,5,5,2,-1,0,-24
84005148603,1,-7,-4,-13,-3,-1,-1,-5
84005154587,21,-1,4,3,3,1,6,49
84005154587,-11,11,2,1,0,-2,-2,-10
84005155397,16,0,-4,-9,-4,-2,2,22
84005155397,2,-2,5,5,1,0,-1,-18
84005177072,-1,3,-3,-3,-1,-2,-8,-22
84005177072,8,-11,-3,0,-1,-2,4,9
84005177896,-3,-23,0,1,1,1,-1,3
84005177896,-7,1,-3,-2,-1,-2,-3,6
84005199661,-8,-18,-5,0,-1,0,1,-4
84005199661,8,7,3,-1,-4,-2,-2,6
84005200402,-2,5,3,-2,-2,-2,-8,-17
84005200402,-20,5,-2,-2,-1,0,9,16
84005214602,-3,24,1,-2,0,0,-6,-16
84005214602,-13,-9,-4,-3,-3,-4,-5,-6
84005215351,7,-4,1,4,2,1,4,16
84005215351,3,1,-2,4,-1,-2,-4,-9
84005237121,-9,-4,-2,-2,-3,-1,1,-9
84005237121,-2,-5,-2,-7,-4,-2,-3,2
84005237899,1,-6,-3,-1,-1,-1,0,9
84005237899,-21,-12,1,2,2,-2,-2,-3
84005259634,2,-8,-2,1,-1,-3,-2,-12
84005259634,1,4,-1,-1,0,0,-3,5
84005260452,20,-4,-3,-2,1,-1,1,1
84005260452,3,-4,-1,-10,-3,0,-2,-2
84005274660,-8,-8,-1,-6,-1,0,-1,-4
84005274660,-2,-10,1,6,0,-2,1,7
84005275443,-2,-11,-3,3,-3,0,0,1
84005275443,0,0,-1,-2,0,-2,-4,-13
84005297094,-1,-9,0,4,-1,-2,-1,4
84005297094,1,5,-3,-13,-1,1,0,-1
84005297936,-2,2,-2,2,-1,0,-2,2
84005297936,6,-4,-4,-3,-1,-3,-3,-3
84005319638,-7,-6,0,0,-1,-1,0,-7
84005319638,2,10,-2,6,2,-1,-1,-4
84005320416,2,8,2,-11,-2,0,1,0
84005320416,6,-2,-2,4,2,1,1,4
84005333983,-3,-1,-4,-32,-11,-3,-1,-3
84005333983,4,-3,-2,1,-1,0,-2,2
84005342127,-8,-7,0,11,-1,-1,-3,0
84005342127,5,2,0,-10,5,0,-2,1
84005357152,-3,-1,-5,-7,0,-1,-1,-1
84005357152,-5,-7,-1,11,-12,-4,-4,-5
84005357989,-1,-1,-1,14,4,-1,-1,0
84005357989,-4,-3,-7,-8,-8,-2,-1,3
84005379648,2,-2,1,16,4,0,-3,-1
84005379648,-7,-3,-1,11,5,1,-2,-2
84005380435,0,7,-4,-45,-5,-5,-1,-2
84005380435,-2,3,0,-9,-5,-1,-1,-1
84005393978,-3,-5,-3,1,-1,-3,1,-2
84005393978,-5,-6,-2,-1,-1,-1,-1,-2
84005402099,-37,-4,-5,3,-5,0,-3,-1
84005402099,-1,4,3,21,3,-1,-1,-3
84005417107,2,-24,-4,-11,0,1,-1,0
84005417107,-5,5,1,-9,-3,-6,1,1
84005417970,9,4,-1,15,1,-3,-2,-7
84005417970,-14,-11,-3,-1,-2,1,-2,-4
84005439620,-1,8,2,34,8,4,-1,-3
84005439620,-5,-4,-8,-40,-5,-1,-1,-7
84005440405,1,-12,-2,3,-6,-6,0,3
84005440405,5,-5,-1,22,-5,-5,-1,-3
84005453961,7,5,0,-41,-2,-5,4,2
84005453961,-7,-7,-2,8,4,6,-7,-3
84005462127,2,-5,0,13,4,1,-3,-2
84005462127,3,3,1,1,1,3,2,4
84005477189,-13,20,3,-15,-10,-5,-3,-1
84005477189,-2,-4,-1,-7,-3,-11,-2,0
84005477914,1,1,-4,2,2,6,3,2
84005477914,0,1,-1,6,-3,-3,-7,-6
84005499681,-2,-13,-9,-1,2,12,1,-14
84005499681,5,-4,-2,-5,-6,-16,5,-2
84005500407,6,-1,6,9,7,9,-8,-16
84005500407,8,0,-3,-11,-2,-9,-9,-22
84005513930,1,4,-1,7,-8,-3,7,35
84005513930,-2,0,4,13,10,-5,-6,-9
84005522182,3,-29,-13,-20,-5,-2,3,-8
84005522182,2,-1,-3,-8,-2,7,-12,-4
84005537139,1,-1,0,12,1,7,13,-14
84005537139,4,0,0,-16,-10,-9,17,38
84005537987,-7,10,3,9,4,-3,-17,-8
84005537987,5,1,1,-15,2,5,31,17
84005559605,0,-9,2,9,-1,-5,-26,-8
84005559605,-3,-6,0,12,4,15,20,-4
84005560437,7,9,-7,-15,-4,-10,-6,7
84005560437,-2,1,-3,-4,-7,-5,-11,-10
84005582823,-7,0,0,11,-2,-12,2,1
84005582823,-11,-2,-6,0,5,11,-6,-9
84005583609,-2,2,5,2,-5,-2,0,3
84005583609,-1,-3,-5,-4,-3,-10,0,9
84005597131,4,-3,-1,-6,2,4,2,5
84005597131,2,-1,0,3,-1,-10,-21,-31
84005597947,-9,-8,-1,-3,5,9,13,14
84005597947,-7,8,0,1,-2,-5,-1,24
84005619620,1,-14,-1,6,-4,-7,11,-14
84005619620,-2,-6,-4,-15,-5,15,-10,8
84005620425,-5,7,2,3,-2,-17,-8,-7
84005620425,3,2,-1,15,10,14,7,-4
84005633995,-3,-4,-7,-45,-10,-6,-8,13
84005633995,1,5,4,11,-1,-1,-3,-25
84005642146,1,-6,-5,-18,-5,10,11,2
84005642146,10,-4,-1,4,-6,-13,-8,22
84005657116,-2,0,-9,-12,4,-15,-17,-36
84005657116,0,-3,-4,2,0,4,19,20
84005657912,1,4,-2,-6,-9,-6,-12,1
84005657912,-13,-7,-3,1,8,14,8,16
84005679632,-5,13,1,7,-3,-1,-2,-8
84005679632,10,-6,3,9,-2,-5,-1,4
84005680407,8,0,-2,-3,1,19,3,9
84005680407,-4,7,3,-8,-8,-35,0,-30
84005702868,-1,1,7,31,12,9,2,8
84005702868,0,3,-1,-30,5,3,-7,-3
84005703618,-4,-1,4,-22,-17,6,11,-10
84005703618,-3,-5,5,32,17,8,-6,-15
84005717098,4,-3,-1,-40,-17,-28,-7,34
84005717098,-13,1,4,7,4,5,-7,-6
84005717899,3,-1,-2,7,12,3,6,-14
84005717899,-3,-3,7,8,3,1,-6,-13
84005739595,-2,-2,-5,12,4,4,12,11
84005739595,6,1,-9,-5,-1,1,-16,16
84005740393,-8,14,-5,-21,-13,-32,-19,1
84005740393,3,-6,-10,-20,1,21,9,-2
84005762814,4,2,4,35,5,35,-1,-18
84005762814,0,-2,-8,-22,4,-23,5,2
84005763619,-1,2,6,26,8,0,-2,1
84005763619,-4,-1,-6,-34,-27,-26,-21,-8
84005777134,-2,-3,0,20,14,14,12,4
84005777134,-2,3,5,0,-7,2,-6,-6
84005777933,-1,-7,-11,-3,4,6,1,8
84005777933,2,1,4,27,7,14,3,17
84005799636,-4,-5,-6,-33,-25,-14,1,-6
84005799636,-2,0,0,3,-3,-6,4,12
84005800400,-1,-2,7,19,15,-9,6,-2
84005800400,1,-2,3,19,-2,1,-16,-14
84005822823,1,1,3,-20,8,13,-8,-3
84005822823,-6,-4,2,21,-1,-15,-4,-35
84005823633,7,-2,-2,-21,2,15,1,54
84005823633,-1,-2,-9,-54,-11,11,32,-3
84005837104,-1,14,0,31,1,-33,-33,-37
84005837104,5,-3,-6,-33,-8,-12,10,18
84005837924,1,-3,0,23,2,24,-5,-13
84005837924,-3,1,9,5,8,10,-6,-5
84005859611,-4,-2,-6,-8,-7,-8,-7,1
84005859611,-6,-2,-2,18,-6,-24,6,18
84005860387,-10,-1,-7,-4,5,7,-9,-20
84005860387,-1,-2,-1,9,0,15,21,0
84005882829,-1,-5,5,-7,-5,-22,-18,5
84005882829,-3,-4,-7,-9,-5,-9,-10,-6
84005883648,-2,-6,-10,-19,-5,15,4,-8
84005883648,-1,-2,2,9,-4,3,3,20
84005897160,4,-1,6,-4,16,14,14,10
84005897160,-4,-4,-11,28,-15,-10,6,-13
84005897934,3,3,7,-11,0,13,1,16
84005897934,-1,13,-4,-25,-13,-55,-17,-17
84005919626,7,-4,-3,38,7,15,10,21
84005919626,0,3,13,30,12,-4,10,4
84005920443,-1,-3,-3,12,-8,-8,-36,-20
84005920443,1,1,1,16,14,24,42,-17
84005942789,-6,-3,0,-3,-24,6,-8,-17
84005942789,0,0,5,-19,6,-18,-3,24
84005943576,-6,-3,-2,9,3,7,8,-11
84005943576,-5,-5,-5,-11,3,-9,-33,-14
84005957138,-4,-2,-4,9,-4,14,15,-13
84005957138,4,-2,-2,-40,-2,14,-4,-9
84005957957,-1,-5,-11,24,-6,-13,6,-18
84005957957,-2,-1,9,-12,-2,-26,-20,-24
84005979608,-5,-3,-2,-3,6,1,-12,-10
84005979608,-1,3,2,12,-7,19,1,14
84005980409,-1,6,2,19,5,-12,25,14
84005980409,2,-6,-3,-54,-11,41,2,10
84006002865,-3,-2,-6,-10,-4,-31,18,-7
84006002865,3,3,1,26,6,-33,-22,16
84006003655,4,3,7,-17,-4,-1,14,13
84006003655,3,-3,-4,26,22,24,-9,21
84006017188,-2,-1,-2,4,-13,-14,-12,-18
84006017188,-3,-3,0,10,-2,15,-20,-23
84006017917,16,-6,1,-10,4,9,32,15
84006017917,-4,-5,-15,11,-6,-14,-10,-19
84006039603,2,-2,6,-23,-1,-18,-12,-10
84006039603,-14,1,-4,16,-2,24,33,2
84006040425,-6,-1,-5,-20,-15,-11,-16,-46
84006040425,-1,-2,-1,20,5,-11,9,-6
84006062808,3,-15,-7,-6,-4,15,2,-24
84006062808,-24,-8,-5,-13,-8,25,-38,-19
84006063585,28,8,5,4,12,-26,48,43
84006063585,-13,-20,3,-13,-16,0,-55,-77
84006076478,-16,15,5,7,6,-13,36,20
84006076478,16,6,0,-7,14,30,11,51
84006084637,-17,-17,2,-8,-12,-10,-34,58
84006084637,-39,2,8,20,0,-13,-40,-27
84006099640,3,2,-5,13,-3,20,17,51
84006099640,-5,1,4,-13,7,4,-2,-67
84006100435,-32,11,5,8,-1,-24,-54,-34
84006100435,29,5,-2,-5,-12,-34,53,85
84006122778,72,7,-2,1,21,25,-22,-4
84006122778,-9,-13,-8,-7,-6,6,38,33
84006123592,-4,0,-8,1,-6,-19,-21,-92
84006123592,11,9,-2,-5,-5,19,55,23
84006137113,-34,-6,-11,-9,-23,-11,-9,-17
84006137113,45,-2,0,14,27,8,9,2
84006137890,-6,-5,-2,-7,-13,-8,20,-13
84006137890,-7,-8,-4,0,10,45,-1,-20
84006159609,-45,0,-10,-14,-9,-9,-17,-82
84006159609,57,-18,-6,-2,4,12,75,74
84006160385,-22,-1,-5,1,-1,-14,-3,-17
84006160385,25,11,0,3,2,-6,7,72
84006182817,-28,1,1,-3,-5,-17,-13,-16
84006182817,-65,1,-5,3,-14,-31,-89,-58
84006183619,9,-1,-49,-1,7,26,39,10
84006183619,5,-4,-50,-11,-6,-15,1,-61
84006197076,1,-4,-41,16,18,18,-4,8
84006197076,0,-2,-23,-18,-29,-38,9,6
84006197930,21,1,-6,5,17,33,7,37
84006197930,-30,-8,8,-1,0,-3,-30,-51
84006219636,-1,-10,23,-6,-1,2,-12,18
84006219636,24,9,24,-15,-5,2,-26,-20
84006220436,19,-2,35,8,-15,-13,7,51
84006220436,12,8,29,-3,0,-27,-31,-7
84006242803,17,-15,23,3,16,31,23,48
84006242803,5,10,12,-2,-4,-12,-10,-4
84006243587,-22,-9,-2,-12,-5,8,-15,-8
84006243587,-14,-4,11,15,-11,-14,-37,-9
84006257900,-12,4,24,16,20,-2,21,23
84006257900,-48,-2,11,-6,-9,6,-43,-74
84006264725,15,-6,17,-28,0,-5,-19,9
84006264725,-46,-1,16,13,1,0,9,20
84006279597,-11,-4,3,-5,-13,-6,-13,-38
84006279597,-15,1,6,2,-8,-17,-14,-25
84006280406,11,3,2,-17,9,14,-14,55
84006280406,31,-1,-13,0,4,-5,52,54
84006302861,13,-3,-2,8,-2,-1,-24,9
84006302861,-5,0,-12,-6,0,-1,18,16
84006303600,-1,-3,-3,-16,-17,-31,-5,-36
84006303600,-2,2,-7,-16,1,13,-11,0
84006316425,13,1,-14,-38,-11,-12,9,23
84006316425,3,-4,-13,10,3,8,-23,-16
84006324674,-16,-4,-3,14,-3,-5,6,-44
84006324674,11,-2,-5,-7,0,7,0,11
84006339633,-4,5,-2,21,1,17,6,-6
84006339633,4,0,1,17,12,-9,6,-1
84006340387,-6,0,-8,-37,-17,-2,-12,-4
84006340387,5,1,0,-8,7,2,5,15
84006370373,8,-1,-1,32,-4,-2,11,-4
84006370373,-4,3,4,-12,-4,4,5,5
84006371123,0,-1,1,29,11,8,12,10
84006371123,20,-3,-4,2,-4,-4,19,10
84006376440,-3,0,-3,-40,2,-15,-20,-11
84006376440,-3,1,2,14,-1,12,5,-1
84006384669,3,0,4,5,0,-3,47,18
84006384669,-22,-3,-5,-27,-7,1,-19,-23
84006399576,-9,-1,-3,-10,1,-11,-40,-37
84006399576,1,-13,-5,-5,-7,5,25,-29
84006400432,-3,1,6,10,5,-2,-19,31
84006400432,-7,-2,-2,-7,3,2,24,-36
84006422829,2,-4,-6,-10,-5,-7,21,16
84006422829,22,0,-6,-25,-2,5,-23,-9
84006423567,-17,-3,-8,21,-7,1,-10,-44
84006423567,5,-2,-2,-30,-2,-14,-11,4
84006436442,3,5,1,1,-1,7,2,-4
84006436442,-13,-1,-7,-32,9,0,2,-33
84006444664,7,-3,2,-1,-12,-5,-14,-73
84006444664,14,3,3,29,6,-1,-24,42
84006459584,11,1,-4,-21,-4,2,31,40
84006459584,-31,1,3,29,0,-2,-30,-24
84006460383,-3,6,9,19,14,4,26,29
84006460383,-9,-1,0,15,-7,-7,-26,-57
84006482843,24,1,-4,8,0,5,-3,88
84006482843,-3,1,0,5,-2,2,32,8
84006483557,34,5,-4,-7,-4,0,-25,68
84006483557,-15,2,6,1,-1,1,23,17
84006496494,6,3,7,-4,6,0,6,-10
84006496494,23,-12,14,22,0,2,12,27
84006504637,-9,-11,10,18,-1,-12,-24,-53
84006504637,29,6,0,-24,1,16,28,76
84006519629,-22,-8,-7,1,-5,6,-6,-26
84006519629,0,6,-4,1,-8,-41,-19,33
84006520458,-8,-3,-7,-5,4,12,9,-15
84006520458,-9,-5,-8,-9,5,8,-14,-14
84006542828,-26,6,-1,27,-3,2,-4,-61
84006542828,32,4,-10,-17,-1,5,-1,86
84006543619,-1,-1,-6,3,-3,-15,-14,4
84006543619,0,-6,-10,-12,-3,-4,-4,-12
84006556433,10,4,2,-7,-4,-1,-7,-10
84006556433,-8,-4,-6,-6,-1,-5,-4,34
84006564654,-1,0,-3,6,12,18,4,-19
84006564654,-3,-5,-8,5,-3,0,-5,-8
84006579588,0,-23,-17,-8,-9,7,12,-16
84006579588,-19,4,-12,-8,0,-48,0,-34
84006580380,-6,-4,-3,5,0,9,-11,63
84006580380,10,6,-7,6,3,3,1,-27
84006602822,-19,10,-1,15,-2,-12,-1,37
84006602822,1,-2,-20,-6,3,43,37,42
84006603572,7,4,-20,-5,-1,-1,-1,-8
84006603572,3,-5,-2,-5,-3,-9,-1,-5
84006616460,2,-4,2,-2,0,-12,-10,14
84006616460,-3,1,17,-7,-8,7,-7,-78
84006624634,-1,2,61,3,2,-10,6,2
84006624634,0,0,64,8,-2,3,-3,19
84006639656,8,-14,47,-16,-2,-1,0,-32
84006639656,29,-1,124,4,10,4,-6,3
84006640413,2,-2,114,-23,-10,6,5,18
84006640413,-26,-2,67,10,-10,-20,4,-8
84006662821,13,7,4,4,5,4,2,54
84006662821,-21,1,-86,10,-1,11,1,-46
84006663634,4,-2,-120,-16,-6,-11,-10,31
84006663634,-5,9,-93,-4,1,-13,3,4
84006685307,1,-18,-82,36,5,4,6,-40
84006685307,29,11,-68,-25,-1,11,3,16
84006686134,-12,-3,-50,-7,-6,-4,-11,-73
84006686134,5,-7,-42,11,-5,-4,-6,17
84006699631,-4,3,-16,-21,-1,-13,-7,-27
84006699631,-14,-2,-1,34,-1,-2,-10,24
84006700421,-43,-18,-14,5,6,2,6,-17
84006700421,11,2,-17,-12,0,10,-3,-35
84006722778,-3,-1,6,1,2,8,0,-9
84006722778,-22,-10,8,-11,1,-2,-3,-5
84006723587,24,4,-5,-5,-8,-5,-1,36
84006723587,-11,-8,2,16,-8,-22,-8,-6
84006745311,-10,4,9,-6,-3,-16,-7,19
84006745311,3,0,2,25,12,15,0,36
84006746117,-20,2,3,-8,8,0,1,-31
84006746117,-1,-9,4,-14,2,26,11,68
84006759628,-7,-1,5,8,-6,-23,-6,-14
84006759628,-19,-8,0,-9,-14,-7,-14,-46
84006760398,6,-2,-2,6,-1,-1,-5,-30
84006760398,-13,-8,7,33,9,-2,-7,-11
84006782811,13,-15,1,-61,-1,5,-5,-22
84006782811,-52,-23,-3,4,2,-1,-3,-24
84006783581,0,1,1,-8,-3,-1,0,-30
84006783581,12,3,-7,-8,-12,0,-3,15
84006805350,-2,6,2,0,-8,-22,-20,-76
84006805350,37,10,-2,5,9,18,24,46
84006806077,5,-2,-14,-12,-5,-6,-5,-49
84006806077,-10,4,1,-6,0,3,1,-36
84006819592,-11,3,3,7,0,13,-2,-12
84006819592,-14,-16,-1,-9,-9,-12,-11,-9
84006820370,-22,5,3,10,-4,-23,-11,-14
84006820370,-3,5,2,-11,4,11,-21,-64
84006842872,-8,0,2,22,8,13,28,49
84006842872,12,7,3,15,2,3,27,6
84006843646,7,2,6,-2,6,6,2,12
84006843646,-39,-14,1,-8,-11,-15,-9,-52
84006865287,3,36,4,4,-2,12,-7,29
84006865287,-19,-2,-7,-44,-13,-30,-18,-102
84006866890,3,-14,-2,23,9,3,-14,-13
84006866890,12,3,0,-7,3,12,20,42
84006878956,-6,-7,-9,10,4,3,-5,9
84006878956,25,6,-2,0,-7,1,-4,53
84006895480,3,-19,-4,12,-7,-6,-12,-17
84006895480,21,7,-2,-36,-5,-13,-4,22
84006902820,-1,-15,0,10,2,7,12,-1
84006902820,-20,1,3,10,7,5,-1,-20
84006904368,1,7,4,-10,-2,2,9,16
84006904368,-4,-2,1,25,0,-4,3,-7
84006925320,0,-3,4,-8,-6,-9,-4,-2
84006925320,29,-4,-2,-14,-1,0,7,28
84006926912,-3,9,4,7,0,3,4,-6
84006926912,8,-2,4,11,6,1,6,5
84006939007,5,-6,-2,-9,-2,-4,-5,1
84006939007,-7,1,0,-12,-2,1,-6,-17
84006947983,-2,5,-3,-3,2,1,1,16
84006947983,10,-29,-1,-1,-3,1,1,-11
84006962778,1,-4,-2,-5,2,-4,-5,4
84006962778,3,3,-1,9,-5,2,-2,2
84006964393,-1,6,-2,-5,-3,-1,0,10
84006964393,-28,5,-9,-12,-6,-3,-1,-17
84006985330,6,-1,-2,-1,-1,0,-1,52
84006985330,15,-27,-1,15,4,1,-2,-3
84006986931,8,6,1,-33,-6,0,10,36
84006986931,-8,10,-2,2,3,1,-6,-28
84006998996,-18,-8,-1,2,-3,-2,-2,-23
84006998996,4,31,11,20,0,-1,-1,4
84007008099,3,-6,1,9,4,0,0,4
84007008099,3,3,1,-8,-13,-5,-2,7
84007022814,6,3,1,-18,4,0,3,6
84007022814,-2,3,-7,0,-3,-4,-7,-1
84007024431,-2,3,1,5,5,0,2,-11
84007024431,7,5,1,-23,-6,-1,1,13
84007045292,1,0,2,7,-2,-3,-1,-18
84007045292,-3,-3,-2,-1,6,2,-2,-6
84007046910,-5,-4,1,4,-1,0,0,0
84007046910,13,-6,-2,6,1,-1,-5,2
84007058987,6,3,1,13,-4,-4,-1,-1
84007058987,-9,-3,-5,-30,-4,1,1,-5
84007075400,1,-4,-1,21,0,0,0,5
84007075400,5,3,-1,16,4,-3,-1,8
84007090309,3,13,-7,-20,-5,-1,-2,-7
84007090309,-23,-10,1,-6,-4,-1,0,2
84007091937,-1,7,-1,27,-2,-2,-6,-11
84007091937,-6,-1,-1,-34,-2,-1,3,8
84007105327,-8,-11,1,14,1,0,1,-4
84007105327,-4,3,0,2,5,-1,-3,-8
84007106904,-10,-28,-6,-17,-8,-2,-4,2
84007106904,23,3,-2,5,1,-2,-3,-2
84007118952,-9,-5,1,11,2,2,-1,1
84007118952,-1,7,-2,-23,-4,-1,0,-10
84007127898,4,11,3,2,0,-1,-2,-46
84007127898,-2,-26,-3,26,5,-1,2,25
84007144201,-3,-6,-2,-27,-5,-2,-4,-7
84007144201,8,-5,1,8,-1,-1,-2,2
84007145852,-14,-17,-5,-6,-3,-2,-2,-2
84007145852,-4,12,-1,-1,-2,-1,-3,-12
84007165327,2,8,0,3,0,0,-1,13
84007165327,-7,-69,-2,8,3,1,3,7
84007166954,-13,1,-5,-24,-6,-2,-1,3
84007166954,-9,6,-2,8,-2,0,-3,-25
84007179003,9,-5,-4,0,3,1,0,18
84007179003,7,24,1,-15,-8,-2,-5,-14
84007187930,16,3,-2,-28,-7,-4,-1,53
84007187930,-24,-7,-4,-2,-1,-3,-10,-81
84007202775,-18,-5,0,5,-2,-3,-1,-7
84007202775,1,10,0,-9,1,0,2,7
84007204398,-1,-2,-3,8,-3,-1,-1,-13
84007204398,10,18,2,2,-2,0,-1,7
84007225296,-5,-3,-2,-3,1,-1,0,-6
84007225296,-1,18,0,-11,-4,-3,0,2
84007226940,-30,-14,-5,1,-4,-3,-2,43
84007226940,-16,-3,4,9,2,-1,-1,-32
84007238926,20,4,-3,-3,-4,-3,-3,24
84007238926,-10,-18,-3,8,-1,0,-8,-11
84007247963,-15,38,-2,3,0,-1,-1,42
84007247963,-3,-39,1,1,1,0,11,23
84007262777,-1,0,1,-3,-2,-2,-3,-13
84007262777,9,16,1,7,1,-1,-2,-29
84007264418,34,11,5,-2,2,1,-1,1
84007264418,-3,10,2,0,-1,0,0,2
84007285351,10,0,0,0,-2,-1,4,52
84007285351,-3,-4,-5,7,3,-1,1,-11
84007286985,3,-10,-6,-5,-2,0,-1,-41
84007286985,12,-1,-3,-3,-2,1,1,27
84007298941,6,-7,5,5,1,-1,-2,-28
84007298941,2,15,-4,0,-4,-2,-2,11
84007307975,12,-19,-2,-2,-1,0,0,1
84007307975,-6,13,-1,3,-1,-1,2,7
84007322814,-10,-21,-5,-8,-4,-2,-5,-23
84007322814,-7,-12,3,9,2,1,0,41
84007324412,-17,-3,-4,-6,-2,1,0,-18
84007324412,-12,-4,-6,-5,-4,-2,-5,-3
84007345260,1,7,1,4,-1,1,1,-1
84007345260,-1,14,1,8,2,-2,-4,-34
84007346909,-14,-13,0,-3,-1,-2,-6,-38
84007346909,2,-5,-3,-9,0,0,-2,12
84007358972,-20,23,0,14,-1,-2,-4,-24
84007358972,8,3,-1,1,-2,-2,0,-7
84007368017,18,24,5,7,0,1,2,0
84007368017,8,-13,-1,-8,-3,-1,0,-7
84007382168,1,2,-4,-6,-2,-3,-3,-38
84007382168,-9,-13,-5,-9,-2,0,0,20
84007388963,-5,-7,-1,2,-2,-2,-3,-31
84007388963,31,2,-4,0,-2,-4,2,88
84007405316,15,4,0,-9,-3,1,0,-9
84007405316,-8,-6,-2,2,-2,-3,-3,19
84007406934,-13,-8,0,-8,0,0,3,-7
84007406934,-8,2,-1,4,-2,-1,-3,-14
84007418945,-11,14,-4,-8,-3,-2,-2,17
84007418945,-3,1,1,3,-1,0,-2,-37
84007428013,20,1,-3,-1,-1,-3,2,18
84007428013,-21,-31,-3,4,1,-1,-2,-9
84007442810,-10,-8,-1,-2,-3,-2,-1,-4
84007442810,-8,3,1,-3,1,1,-3,-35
84007444410,5,-4,-3,6,0,-1,0,40
84007444410,10,14,6,2,1,1,0,-5
84007465337,28,0,-3,-10,-2,-1,4,65
84007465337,6,-8,-2,5,-3,-2,-4,-1
84007466909,-11,7,2,0,0,0,0,-14
84007466909,-1,9,-4,-5,1,-1,-1,1
84007478945,-7,-6,-1,2,-2,-1,1,12
84007478945,-16,-2,-3,-2,-3,-3,-3,8
84007487981,-7,-1,-1,-1,-2,0,-2,-3
84007487981,-17,7,-2,-4,-2,-1,0,-12
84007502837,-17,-46,0,-6,1,0,-4,-35
84007502837,11,4,-2,5,1,-1,3,17
84007504433,5,-29,-3,-5,-2,-1,-1,-4
84007504433,3,-9,-2,2,0,-2,1,-17
84007525246,7,8,-2,2,-2,-2,-2,-22
84007525246,3,-7,-4,-12,-3,-1,4,67
84007526915,-1,14,2,0,0,-3,-8,-13
84007526915,7,2,-2,5,-1,-2,-5,-10
84007538935,-1,5,1,2,1,-1,0,5
84007538935,-9,-10,-2,-1,-2,-3,2,2
84007547965,1,15,0,2,-1,-1,-1,-9
84007547965,-18,-16,-4,-10,-1,-1,1,10
84007562848,-16,9,0,4,-1,-1,-3,-6
84007562848,17,-6,-3,-3,-1,-1,-3,-24
84007564454,5,-14,-2,2,-1,0,1,1
84007564454,16,15,5,9,0,-1,1,0
84007585312,1,5,0,-9,-2,-1,-2,-16
84007585312,-3,8,0,-1,-1,-1,0,-3
84007586907,-1,-5,-5,-5,-1,-2,0,29
84007586907,1,3,-1,-1,-1,0,2,8
84007607832,-15,-6,0,1,1,-1,-3,-31
84007607832,-5,8,1,0,-2,-1,-3,-11
84007609401,18,2,1,-3,-1,-1,-2,-16
84007609401,10,0,1,4,0,-3,-4,-8
84007622160,-17,-21,-7,1,-2,-3,-1,10
84007622160,-8,-7,1,-5,-2,-2,2,-19
84007628949,-25,-22,-8,-6,2,1,0,-1
84007628949,-9,28,1,1,-1,0,-5,-15
84007645325,8,-2,-3,-8,-1,0,-2,-15
84007645325,0,7,2,0,2,2,1,7
84007646934,-20,-4,0,2,-1,-2,4,22
84007646934,1,2,-2,-8,-1,-2,2,12
84007667789,2,-4,0,4,0,-2,0,5
84007667789,-2,-8,-6,-4,-1,-2,-2,-1
84007669398,-2,1,-2,1,0,0,2,24
84007669398,1,1,0,1,-3,-2,-4,-6
84007682836,12,9,2,-7,1,1,-1,-23
84007682836,-6,-8,4,10,0,0,4,14
84007684406,10,5,2,3,-2,0,-4,-29
84007684406,-6,-2,0,-5,-3,0,0,5
84007705275,3,-45,-9,0,-2,-2,0,13
84007705275,4,2,3,3,1,0,-2,-8
84007706948,2,0,-2,-10,-2,-3,-4,-18
84007706948,4,-11,-1,-4,1,0,2,34
84007727853,3,29,9,4,1,0,1,4
84007727853,6,9,-3,6,2,-1,-2,1
84007729456,-11,0,-1,-8,-3,-3,0,-7
84007729456,-2,-2,-2,-8,-2,-1,0,-16
84007742169,-3,5,-1,6,-3,-2,-3,6
84007742169,5,-5,-5,-4,-1,0,0,43
84007748898,17,11,4,3,3,0,0,40
84007748898,1,-25,0,6,1,-1,2,-11
84007765311,13,10,0,-12,-3,0,-1,-14
84007765311,-2,-5,-4,0,-4,-1,2,-1
84007766928,1,1,1,2,-2,0,-4,-10
84007766928,-6,-4,-2,-7,-2,-1,-2,-2
84007787780,-9,-5,0,0,0,-1,1,3
84007787780,-7,-1,-3,-10,-2,-3,-2,-13
84007789409,2,4,-2,-5,-3,1,1,-18
84007789409,-28,-32,-7,-1,-3,-1,-3,6
84007802104,-6,-13,0,-4,0,-1,0,-2
84007802104,-8,6,0,1,-3,-1,-6,-25
84007808950,-5,-7,0,-1,-3,-1,2,21
84007808950,18,44,2,0,0,0,-2,-55
84007825334,-5,0,-1,7,1,-1,-1,6
84007825334,7,0,3,-9,0,-1,2,10
84007826939,1,5,1,1,-1,-2,-4,-27
84007826939,-3,4,-1,3,-3,-3,-3,0
84007847836,-9,-3,-3,-5,-2,-1,-4,-19
84007847836,7,0,0,-4,0,0,0,-21
84007849397,7,6,-4,5,-2,0,1,-21
84007849397,7,-32,-3,-3,-1,-1,1,14
84007862093,-4,-1,-1,-3,-3,-3,-2,5
84007862093,-6,-26,-3,6,-1,-2,-1,4
84007868969,10,-9,1,3,1,-2,-4,-13
84007868969,-4,1,-4,-11,-2,-2,2,34
84007885312,4,-3,-3,2,-2,0,0,-2
84007885312,7,6,3,-3,-1,-1,0,71
84007886938,-14,1,-1,0,-3,-1,0,-13
84007886938,6,10,6,8,1,1,-1,-37
84007907796,10,14,-2,-5,0,-1,3,54
84007907796,8,4,-4,-4,0,1,1,-13
84007909410,-1,0,0,4,1,-1,-2,-2
84007909410,-14,-4,-4,-9,-1,0,-4,1
84007922159,-4,4,1,4,-3,-2,-2,-10
84007922159,-7,2,1,5,0,-2,-4,-18
84007928927,11,15,1,0,-2,-2,1,15
84007928927,5,-5,1,0,-1,-2,-2,-8
84007945290,10,7,-2,-3,1,-1,-1,-15
84007945290,-10,15,-1,-5,-1,-1,-2,-21
84007946910,-2,1,-1,-7,-1,-1,0,11
84007946910,9,3,-2,-7,-4,-2,0,2
84007967844,-7,-9,-1,6,0,-2,-2,-38
84007967844,3,0,0,-4,-3,0,-1,36
84007969433,-13,-5,-3,-3,-1,0,-5,-19
84007969433,-11,-23,-6,1,-3,-1,-3,15
84007982165,-6,6,-2,-4,-3,-3,-3,-3
84007982165,-12,-1,4,1,-1,-3,-2,-18
84007988970,-9,-5,-5,-8,-3,-1,-1,-9
84007988970,12,16,4,12,0,-1,2,19
84008005311,-1,-3,0,5,-1,2,-1,-3
84008005311,-6,6,0,-8,-4,-2,-1,28
84008006883,-8,-35,-6,-4,-4,-3,-3,-2
84008006883,-4,14,0,-1,0,-1,-4,-19
84008027811,13,7,-2,-5,-1,0,2,19
84008027811,10,7,-2,3,-2,-1,-1,-14
84008029403,-2,-6,2,-6,-1,1,1,10
84008029403,4,6,-4,5,2,-1,-4,-53
84008042142,-7,-10,0,6,0,-2,0,23
84008042142,-6,-14,-2,-3,-1,-2,-2,-8
84008048965,-12,14,0,-2,2,-1,-2,-10
84008048965,-9,-4,1,0,-2,0,0,14
84008065292,5,19,2,-1,2,-1,0,-3
84008065292,5,-5,-2,3,-2,-2,-3,-20
84008066906,29,16,1,3,1,-1,4,2
84008066906,6,-27,2,-2,1,1,-4,-11
84008087826,11,-5,-2,5,-3,-2,1,5
84008087826,-9,0,-2,0,0,-1,0,-5
84008089429,13,7,0,-3,-1,0,-2,4
84008089429,-6,3,-1,-3,-2,-3,-2,5
84008101491,-16,1,-6,-8,-4,-3,-3,-3
84008101491,5,-8,-1,1,1,0,-1,-13
84008117900,7,-6,-3,0,-2,-2,-8,-51
84008117900,-5,8,2,-1,0,2,6,-7
84008125262,-1,-13,-8,-2,-4,-3,-2,38
84008125262,9,5,-2,-1,-2,0,-1,-1
84008126902,-14,-4,0,3,0,1,-2,-28
84008126902,19,1,-1,1,-2,-2,1,40
84008147826,-6,-5,1,-3,-1,0,0,-7
84008147826,-1,-15,-5,-2,-3,1,-1,-17
84008149444,-10,1,-1,-9,-5,-4,-4,10
84008149444,4,25,1,11,1,-2,0,12
84008161436,-2,-9,-1,-2,0,0,-1,-7
84008161436,-14,13,1,-8,-2,-3,-1,2
84008170449,-4,14,-2,1,-3,-2,1,19
84008170449,-5,-9,0,-9,-1,0,-4,3
84008185619,-4,-2,-4,-1,-2,-1,-3,-12
84008185619,-3,10,6,6,1,1,-2,-92
84008186936,7,2,0,-2,0,0,0,25
84008186936,-30,1,-5,2,-1,-2,4,-5
84008207734,-2,3,3,-2,0,2,1,-5
84008207734,3,-2,-2,-3,-3,-1,-1,2
84008209342,-11,-5,-2,1,-1,0,-1,-12
84008209342,-1,6,-2,0,1,-1,-3,21
84008230308,1,-9,-4,-5,-1,1,0,-8
84008230308,-19,-8,-4,2,1,-2,0,19
84008231899,12,-4,3,-1,0,-1,-3,4
84008231899,1,14,-4,2,-1,0,-2,6
84008245302,-6,-13,-1,-5,-1,-1,-4,-8
84008245302,2,-7,-4,-8,-4,-3,-1,15
84008246877,-4,4,4,9,0,-2,-2,-11
84008246877,-9,5,0,0,0,1,0,-7
84008267945,4,6,1,0,-2,-1,-4,-1
84008267945,-14,-10,-7,-3,-3,-3,-9,-1
84008269433,-6,-7,-2,-2,0,0,1,-9
84008269433,-6,-9,-1,-8,-1,-2,-1,-13
84008281452,1,17,-2,-8,-3,-2,-3,23
84008281452,-8,-12,-2,3,0,-1,1,-18
84008290456,0,0,0,0,-2,-2,1,13
84008290456,1,-2,-2,-4,-6,-2,-3,-4
84008305268,9,3,2,0,0,0,-3,-19
84008305268,5,11,-2,3,2,-1,1,6
84008306895,-6,-3,-5,-9,-2,-1,-1,8
84008306895,3,-10,-1,9,0,1,2,-14
84008327769,-4,-7,-1,-10,0,-1,3,33
84008327769,9,20,-1,7,-1,0,1,14
84008329349,-18,-33,1,4,0,-1,-3,7
84008329349,-9,-7,-5,-8,-1,-2,-8,-13
84008341448,3,8,1,0,-4,-1,1,-18
84008341448,22,4,2,0,2,1,3,46
84008350467,0,10,-3,-4,-2,0,3,48
84008350467,13,3,0,-4,-1,0,-2,-7
84008365294,-2,-4,2,10,-1,-2,-2,-4
84008365294,-3,-10,-3,-10,-1,0,-4,-13
84008366921,0,2,0,0,-2,1,3,-6
84008366921,-13,-26,-9,-4,-4,-4,-3,12
84008387780,-5,-1,-1,4,-1,-1,-5,-42
84008387780,-6,-7,-3,-13,-4,0,-2,-17
84008389377,-7,18,-2,-4,1,-1,-1,-9
84008389377,10,-9,-2,-1,-3,2,4,10
84008401525,-6,6,-6,2,-2,0,0,-12
84008401525,-37,-11,0,-1,-2,-4,-10,-55
84008410444,3,1,-2,5,1,-1,3,6
84008410444,3,19,6,-1,0,-2,0,-18
84008425306,6,-16,0,-5,-3,1,1,56
84008425306,-1,5,3,4,-1,0,2,7
84008427002,-5,-5,-5,-1,-3,-1,-2,-1
84008427002,-13,-6,2,-2,1,0,-2,-3
84008447832,5,-11,1,-1,-2,-1,-1,-21
84008447832,4,0,4,8,1,1,3,39
84008449438,11,-3,-2,-16,-1,-1,-2,-8
84008449438,5,8,5,18,1,0,0,3
84008461475,-7,8,-3,-7,-1,-1,2,-11
84008461475,6,-4,-5,1,0,-1,1,4
84008470426,-1,6,1,2,0,0,0,-15
84008470426,17,2,1,-4,0,-1,1,-22
84008485302,2,23,-1,-5,1,-1,0,12
84008485302,-13,-8,-4,-4,-2,-2,-1,1
84008486917,-8,-5,0,2,-1,0,-4,-39
84008486917,9,2,-3,-3,-2,0,1,18
84008507823,-5,20,5,4,1,0,1,0
84008507823,21,1,-3,-1,0,0,-2,39
84008509457,-29,-21,1,3,2,0,2,-2
84008509457,3,-20,-5,-7,-5,-4,-3,0
84008530267,0,-7,-4,-3,-4,-1,2,-5
84008530267,10,1,6,-6,-2,-2,1,-5
84008531900,50,-6,-3,4,-3,-1,0,34
84008531900,-13,6,0,3,1,-1,-5,3
84008545283,-10,-11,-2,-1,2,0,-4,3
84008545283,1,-2,0,-3,-2,0,-1,-43
84008546853,-6,11,0,7,-1,-3,1,16
84008546853,8,0,-3,-11,-2,-2,0,4
84008567798,-2,-10,-3,-3,-1,-1,-1,-15
84008567798,-35,2,2,-1,0,-3,-1,-7
84008569460,14,-5,-6,-2,-2,0,-6,-8
84008569460,2,-5,-5,-6,-3,-2,-3,-3
84008590284,-15,-21,-3,9,-1,-2,-3,-2
84008590284,2,-11,-2,-6,-3,1,0,-9
84008591886,3,5,-3,-4,-4,-3,-5,0
84008591886,-10,6,3,0,-2,-2,-2,4
84008605298,1,-2,1,4,1,2,-2,-21
84008605298,0,-12,-8,-7,-5,-3,4,53
84008606938,-25,-10,-1,1,-1,-2,-3,-18
84008606938,-5,0,0,-6,1,1,-1,-7
84008627781,5,1,0,-1,-1,-3,-1,-19
84008627781,16,-3,1,6,2,2,-3,40
84008629405,6,4,4,0,2,0,4,5
84008629405,-13,0,-4,2,-1,0,-1,-4
84008650289,-6,-2,-1,-6,-3,-2,-3,2
84008650289,17,1,-2,0,-2,-2,-1,-10
84008651831,0,6,-3,-1,-2,-3,-2,-6
84008651831,-4,-19,-5,-9,-2,-3,-1,9
84008672807,-7,-3,-1,5,0,-1,-5,-17
84008672807,14,27,2,0,-2,0,-3,-6
84008674409,-2,3,-1,-5,-2,1,1,15
84008674409,-3,-36,-5,6,1,0,0,-10
84008687796,1,-6,-3,-5,-4,-1,-3,39
84008687796,-4,2,-1,-2,-1,0,1,4
84008689406,-12,-4,-2,-2,-1,-3,-6,-19
84008689406,-11,-2,-4,-6,-3,-3,-7,6
84008710349,21,11,4,6,2,-1,4,-37
84008710349,-6,-25,-3,0,0,0,0,-13
84008711922,-1,13,2,-1,-2,1,1,0
84008711922,12,12,4,1,0,-1,4,13
84008724616,-3,1,-4,-8,-3,-3,-7,-5
84008724616,-21,41,-2,-4,-1,-4,-5,-7
84008731430,-4,-19,0,0,0,-1,1,-6
84008731430,0,6,2,-2,-1,-1,-1,-8
84008747813,-6,-4,-3,2,-1,-2,2,16
84008747813,2,5,0,4,1,0,-2,-12
84008749392,2,20,-3,-5,-1,0,-2,9
84008749392,-10,-6,-3,-4,-2,-1,-4,-10
84008770288,-3,-5,-1,-3,-5,-3,-3,-14
84008770288,6,-14,-2,-5,-1,-1,0,-8
84008771887,4,13,2,-1,-2,-1,0,3
84008771887,0,7,2,4,-2,0,2,-4
84008784620,5,3,0,2,1,-1,-3,20
84008784620,9,-16,4,3,1,0,-1,-35
84008791453,-14,-22,-11,-11,-4,-2,1,-2
84008791453,3,12,1,8,0,-1,-1,2
84008807782,2,-1,-3,-3,-1,0,1,7
84008807782,4,1,-1,-4,-3,-2,-1,1
84008809409,0,17,2,9,-1,-2,-4,-5
84008809409,1,-1,0,-5,-1,0,1,-7
84008830241,8,2,-4,-2,-4,-2,-1,10
84008830241,-9,-11,-3,-1,1,-1,-3,-7
84008831911,18,10,0,-5,-2,-3,0,-3
84008831911,-6,8,-3,-3,0,0,0,1
84008844617,16,-3,-2,-4,-2,-2,1,-5
84008844617,9,2,2,6,-1,-1,1,6
84008851455,1,-9,-3,-4,-3,-1,1,29
84008851455,7,3,3,3,3,0,1,4
