timestamp,emg1,emg2,emg3,emg4,emg5,emg6,emg7,emg8
83613709552,-24,8,1,0,1,0,-1,-2
83613709552,4,4,0,0,-1,0,-4,-22
83613711133,-2,-6,-8,-3,-1,-1,-1,5
83613711133,-6,-6,0,1,-1,-2,-1,-7
83613723871,21,17,-1,-1,0,-2,-2,8
83613723871,-3,-5,-1,-1,0,-1,-1,1
83613730723,1,24,5,0,-1,-2,-1,3
83613730723,-8,-11,-10,-3,-3,-3,0,-5
83613746981,5,11,-1,-6,-2,0,0,1
83613746981,9,5,-1,0,-1,-2,0,4
83613748672,-6,-1,-2,-4,-4,-3,-1,-3
83613748672,-2,1,-1,-1,-1,0,0,1
83613769557,1,-5,0,0,-2,-2,-1,-1
83613769557,-6,-2,0,-2,0,0,-2,1
83613771178,-2,-9,1,-2,1,0,0,-3
83613771178,-6,-5,-1,-14,-2,-1,-1,0
83613783900,4,5,4,20,-1,-3,-2,-3
83613783900,-2,-4,-4,-16,-5,-4,-3,2
83613790684,-2,-4,5,5,-3,-2,-2,-4
83613790684,-2,1,-3,-11,1,5,1,0
83613807029,1,-2,-10,-9,0,-1,-2,-1
83613807029,3,-4,-8,4,0,-1,1,2
83613808661,-11,-7,-3,-2,-5,-1,-2,-5
83613808661,-2,2,6,14,2,-3,-5,-10
83613829582,-1,2,0,-4,1,0,0,6
83613829582,-9,-3,1,21,1,3,-1,-1
83613831188,12,-5,-5,2,-5,-5,-2,-2
83613831188,-10,4,1,-18,7,11,3,-4
83613843180,-4,1,-6,-12,-9,-16,-4,-1
83613843180,7,3,-2,-15,-3,1,1,7
83613852210,18,-4,8,6,2,1,0,15
83613852210,-16,-8,-11,-10,-6,-1,-1,-9
83613874612,0,1,13,-3,-5,0,1,-7
83613874612,-3,-18,-13,5,4,-7,-5,-2
83613876209,0,-2,-12,-40,-6,5,-7,-6
83613876209,0,-4,-7,28,-7,-7,-2,3
83613889559,4,-4,8,-2,2,6,-2,-18
83613889559,-9,4,17,12,2,-3,-1,2
83613891126,3,3,-7,12,-2,3,0,0
83613891126,22,-3,9,-11,15,18,6,16
83613903215,-35,-4,-15,2,-10,-20,7,-10
83613903215,-4,2,9,-8,-16,-15,-12,-5
83613912253,6,3,6,-12,6,2,-6,1
83613912253,2,2,-5,13,4,1,7,4
83613927124,6,-3,-6,10,2,2,7,3
83613927124,3,2,-6,-40,-10,17,-7,-1
83613928759,-14,-2,0,5,12,-3,4,-4
83613928759,13,1,-2,-6,-11,4,1,6
83613949607,-6,3,3,-24,6,-7,-2,-40
83613949607,0,-37,-11,2,-15,-17,-8,0
83613951300,5,3,0,-2,-2,8,13,28
83613951300,13,9,11,4,14,-6,-6,12
83613963316,22,-2,3,9,14,5,-2,4
83613963316,-42,3,-4,5,7,8,-5,-48
83613972258,56,1,2,0,-15,-12,-6,73
83613972258,-38,-19,-12,-10,-16,-11,4,-2
83613987092,32,13,0,17,-1,3,1,40
83613987092,27,2,-5,1,12,11,1,33
83613988690,-1,1,1,-10,-30,5,5,-18
83613988690,8,6,-6,7,-7,-16,-14,3
83614009587,-7,-2,2,7,6,1,7,60
83614009587,2,6,3,4,19,2,-2,-1
83614011198,-19,-29,-7,-8,-12,10,-9,-54
83614011198,27,8,7,3,-6,-9,-4,29
83614023147,-52,-3,-5,-6,-6,-16,-16,-108
83614023147,23,7,-2,1,-6,34,29,45
83614032215,2,5,-1,6,0,-36,-4,9
83614032215,-1,-4,-1,-4,-1,4,-18,-29
83614047044,-2,-7,-7,12,-1,14,-9,-41
83614047044,-8,4,-3,-34,5,-27,12,9
83614048708,-34,-3,-2,24,21,19,-13,-85
83614048708,5,-2,3,-7,-8,-13,5,27
83614069528,12,6,7,13,5,5,7,14
83614069528,14,2,-4,6,-1,-9,-2,-17
83614071190,-32,-6,1,-3,7,46,55,44
83614071190,-10,2,10,21,18,-9,-18,-20
83614083220,42,3,3,-35,-30,-34,-26,47
83614083220,-12,0,3,18,-3,11,1,-16
83614092242,-4,2,0,16,20,-53,-14,-26
83614092242,-30,-30,-12,-1,0,26,-11,-56
83614107076,-15,-10,-17,-29,4,104,49,17
83614107076,13,3,4,15,-19,-50,-28,28
83614108688,22,3,-7,-46,-15,-53,-42,-3
83614108688,-43,-2,4,8,9,-13,13,3
83614129579,20,4,3,24,0,5,-8,-3
83614129579,-11,-5,2,13,-1,11,16,-29
83614131178,0,7,4,2,-14,-1,-3,-3
83614131178,4,0,-3,-11,10,29,5,-22
83614143753,-9,-4,5,-14,1,-13,3,36
83614143753,-3,6,-5,4,6,-24,-4,-5
83614152143,-3,1,-1,-3,-13,44,2,8
83614152143,21,2,-10,-17,-7,-60,15,16
83614166390,-13,7,1,-1,-12,13,0,7
83614166390,1,-11,-1,5,23,14,-22,38
83614173225,-3,0,-1,14,-25,-23,-34,-2
83614173225,7,4,-6,-5,-11,14,17,-18
83614189590,33,8,-2,4,47,-4,8,3
83614189590,-45,-10,-5,-28,-30,-5,5,-45
83614191199,-14,8,2,-2,10,47,7,6
83614191199,-21,-4,-5,7,-11,-30,-34,-11
83614203245,11,-5,-9,-36,-29,-32,5,25
83614203245,19,1,1,60,24,7,-1,-2
83614212210,3,0,-5,-31,6,-3,4,4
83614212210,1,-22,2,9,-12,7,7,1
83614226392,-16,-3,-1,-15,1,-9,-10,-32
83614226392,-3,-2,-3,-26,-19,19,3,1
83614233203,-7,4,1,9,34,1,13,15
83614233203,37,11,3,-9,-29,-13,-4,6
83614249559,-72,-7,-2,21,13,-4,-19,-7
83614249559,18,-5,-8,-26,-12,1,15,11
83614251237,3,9,12,12,-5,-17,-6,2
83614251237,-24,27,3,-22,5,12,7,2
83614263261,-8,-14,4,42,15,-1,-7,-12
83614263261,9,13,-1,-3,-9,-4,0,51
83614272180,-19,-13,-24,-7,-6,-11,4,-21
83614272180,22,9,15,-7,6,13,-4,-6
83614286405,0,3,0,-19,-12,-3,2,-3
83614286405,-10,-5,-4,25,8,-6,-10,-33
83614293221,11,-2,-6,2,9,3,9,-3
83614293221,15,-15,-6,-1,-6,8,1,29
83614309586,-19,-22,-6,-7,-19,-14,-17,-41
83614309586,23,-1,-4,-24,-3,-2,11,38
83614311200,-6,1,8,25,-1,0,-5,-2
83614311200,12,2,-12,24,14,3,3,36
83614323203,5,-3,4,8,5,-5,4,20
83614323203,13,8,0,-23,-19,-2,-6,-21
83614332255,-28,-13,2,-29,-8,-2,-2,-30
83614332255,-22,1,3,26,7,-5,1,6
83614346420,24,3,-6,-5,1,0,-1,26
83614346420,-45,-26,0,2,2,0,-1,3
83614353193,47,20,2,-2,3,-1,3,-60
83614353193,-67,-7,3,-1,-11,0,-7,-14
83614369593,-21,-14,0,-16,-23,-4,-12,-76
83614369593,-8,6,-7,2,12,2,-1,-1
83614371184,31,4,2,-2,-6,-2,5,38
83614371184,10,15,-3,-23,1,-4,-10,-12
83614392062,-17,-3,-5,15,4,-2,-2,-17
83614392062,4,9,4,-1,0,1,-4,-24
83614393668,0,-6,-6,12,5,-3,-2,20
83614393668,3,-1,-2,-14,5,3,-2,-28
83614406429,16,8,9,-6,-13,-6,0,25
83614406429,-9,-6,2,0,-12,0,-11,-53
83614413263,-3,4,5,16,12,0,4,48
83614413263,9,-5,-11,10,4,1,2,6
83614429598,4,4,1,-3,-4,-2,1,4
83614429598,0,7,9,-32,-15,-2,-2,-32
83614431191,-34,-18,-9,7,14,1,7,8
83614431191,-16,-9,-4,-16,-6,-2,-6,-73
83614452036,43,12,-2,26,5,-1,16,86
83614452036,-42,-1,7,15,7,-1,-6,-12
83614453718,8,1,-7,-12,-6,-2,8,49
83614453718,-8,3,-12,-3,-5,-2,-6,-46
83614465722,-67,-18,23,-13,-3,-2,-5,-38
83614465722,-10,-10,-25,17,20,-1,-7,-44
83614474674,65,16,15,1,-22,-6,-5,51
83614474674,-42,-11,-4,5,9,3,3,-3
83614489768,16,-2,-28,-16,-8,0,0,58
83614489768,23,8,9,-7,4,-1,3,-5
83614491232,-24,-7,-19,-2,6,-2,-11,-72
83614491232,9,-28,-2,13,-4,-2,-3,55
83614512138,-3,11,2,-40,-13,-5,-5,-27
83614512138,8,-29,-19,42,10,3,9,31
83614513779,-34,5,5,-24,-3,0,-2,-1
83614513779,9,3,7,-12,-12,-3,-11,-56
83614525828,-4,-6,-17,15,22,4,8,50
83614525828,-6,14,33,20,0,-5,0,-30
83614534816,20,-6,1,32,11,3,3,-49
83614534816,-27,-12,-5,-15,-12,-2,-4,-3
83614549726,-38,12,6,-3,-5,2,-8,43
83614549726,55,25,-9,-22,12,4,22,73
83614551154,68,-12,-3,15,-19,-2,-1,48
83614551154,33,-5,12,-11,-3,-1,4,1
83614579648,45,14,8,11,5,-2,0,26
83614579648,-79,13,3,-14,-3,-1,-12,29
83614581205,27,-12,3,8,-1,-2,2,-35
83614581205,-51,12,-17,-36,-10,-4,-7,-6
83614585745,41,-2,20,7,12,0,4,40
83614585745,81,7,17,25,-11,-6,-16,-105
83614594819,-126,-21,-12,-29,-7,-2,-13,-105
83614594819,48,13,12,32,11,-3,8,30
83614609790,-1,3,-18,-14,8,-2,-1,-47
83614609790,11,3,-11,-40,-23,-3,0,19
83614611237,5,10,12,11,1,6,-2,3
83614611237,-31,-1,-29,-9,-11,1,-9,-6
83614632312,-9,5,-5,-36,-12,-5,20,-38
83614632312,19,-11,-34,-9,-9,-5,-3,13
83614633749,10,-8,14,1,31,5,-6,29
83614633749,-3,9,18,31,-45,-20,2,26
83614645764,16,-9,-19,-31,-1,-8,-12,-22
83614645764,17,0,15,-20,-17,-6,4,34
83614654819,-33,-1,-20,-26,21,29,27,-5
83614654819,37,-1,3,17,44,12,1,12
83614669783,-7,-15,-8,30,-7,-13,-17,-38
83614669783,-21,-11,-2,-24,-6,-15,3,12
83614671241,9,5,8,29,13,0,-25,12
83614671241,24,6,2,15,44,31,42,29
83614692090,9,8,14,15,-12,28,5,-14
83614692090,-68,-18,-5,10,65,24,-5,-4
83614693727,1,-7,2,-33,-43,-68,-22,2
83614693727,0,-4,-16,-30,-13,-27,-19,-1
83614705921,-16,19,6,52,0,-16,-10,-23
83614705921,23,8,8,41,8,12,21,18
83614714810,-19,8,-2,0,-18,6,0,-2
83614714810,-3,-8,-2,11,-8,-6,-11,-15
83614729801,-67,-12,1,-47,-31,-9,1,-20
83614729801,33,18,-4,-10,13,14,2,9
83614731237,-74,-17,-6,55,-14,-3,-6,-1
83614731237,18,-11,-6,-27,-10,-5,-6,-2
83614752265,20,4,7,10,16,12,3,38
83614752265,-23,-6,0,1,-7,5,-3,-4
83614753762,7,-5,-8,-30,-6,8,7,-3
83614753762,7,2,10,1,-6,14,6,7
83614765784,6,-4,-1,30,7,-3,-13,-22
83614765784,-11,-13,-2,-2,2,-13,-7,4
83614774787,36,7,-2,-3,-29,5,15,13
83614774787,-4,2,3,2,17,10,-5,-9
83614789633,12,-5,0,-4,31,4,12,-2
83614789633,0,2,3,-7,-53,-39,-15,-1
83614791310,24,6,2,5,18,15,-1,1
83614791310,-30,13,1,1,4,0,3,1
83614812133,-2,-8,-3,9,11,-15,-7,-10
83614812133,1,-4,1,-21,-23,11,-1,1
83614813702,3,-2,-7,-3,0,-4,5,2
83614813702,14,-5,0,6,1,0,4,11
83614834644,21,3,-1,-21,-30,-12,-9,-7
83614834644,-4,-4,-1,23,14,3,0,-14
83614836219,-77,-1,0,-6,18,7,-6,-28
83614836219,18,0,-19,-30,9,2,0,1
83614849791,16,6,19,13,9,11,10,0
83614849791,2,-7,-1,-20,-43,-30,-10,-5
83614851204,11,-39,-5,21,12,1,1,-2
83614851204,13,14,12,3,-3,7,4,14
83614872295,11,0,-19,-6,-2,6,6,2
83614872295,-16,2,-7,-5,-2,-7,-10,-15
83614873775,13,11,0,-35,-21,-15,-7,9
83614873775,-10,-4,3,13,7,-10,-4,-4
83614885783,6,-13,-6,5,-20,11,1,1
83614885783,-8,-1,2,14,13,3,-4,-56
83614894738,21,18,-4,0,14,5,2,19
83614894738,-4,-21,-2,-3,-18,-19,7,15
83614908979,-9,-3,-4,-12,3,0,-9,0
83614908979,-3,-1,-1,15,11,3,-2,-4
83614915948,8,1,-1,-22,-25,2,-2,-11
83614915948,-1,6,-3,-14,-5,0,0,-4
83614932339,19,22,6,20,5,-5,-7,-9
83614932339,1,-12,-5,18,23,5,1,13
83614933771,34,-5,0,-10,-4,-6,5,17
83614933771,-48,-5,-1,-10,-10,3,-4,2
83614945947,-37,-1,-4,12,6,-3,-5,-33
83614945947,9,3,0,-16,0,10,-9,-59
83614954814,-15,-11,-3,11,17,2,20,40
83614954814,62,8,1,-14,-7,-2,-2,0
83614969100,-21,-8,-4,-16,-8,-3,0,-2
83614969100,-11,-10,0,18,-16,-1,-3,1
83614975800,-14,-3,-7,3,11,-8,-15,-1
83614975800,9,1,-2,-5,-16,-2,0,-13
83614992314,55,5,1,-6,8,1,-2,2
83614992314,6,11,4,-12,-4,4,9,63
83614993753,0,28,5,8,8,-2,-6,-32
83614993753,19,-2,-1,9,14,3,3,12
83615005820,-15,-1,-3,-26,-39,-6,-12,-7
83615005820,-10,2,-2,21,6,3,3,-17
83615014764,5,5,6,10,12,-1,-1,-2
83615014764,-8,-8,0,-8,-1,0,3,-3
83615029580,-9,-5,-5,17,22,-1,-4,-5
83615029580,-10,-1,-7,-8,-7,-3,-14,-60
83615031215,-1,3,3,-32,-15,-1,4,-34
83615031215,-12,-1,-1,25,22,-1,-3,37
83615052040,-6,-4,-2,-31,-28,-4,1,-33
83615052040,-6,-3,3,1,16,1,5,60
83615053719,20,2,2,8,-14,-3,-8,-26
83615053719,-9,-1,-16,-18,-6,-1,-3,-33
83615065935,-35,-5,12,-32,-44,-1,1,-7
83615065935,-16,-7,0,32,37,-2,0,-5
83615074724,9,-9,-11,-30,-26,-3,-4,17
83615074724,-23,22,5,-7,13,5,1,-42
83615097100,29,10,3,2,-1,1,6,35
83615097100,8,-8,-4,-18,-11,-1,7,27
83615098707,9,2,-1,-2,14,3,7,29
83615098707,3,4,-11,-19,-30,-3,-5,-18
83615112038,-15,-8,4,40,34,1,-4,-7
83615112038,-3,-2,-10,-24,-16,-3,-5,-22
83615113768,-61,-24,0,14,0,-2,-12,-43
83615113768,11,-5,-4,-19,-14,2,7,57
83615125903,-9,-8,-10,23,21,-2,-1,3
83615125903,5,1,6,-15,2,2,0,12
83615134706,-8,2,-3,14,10,2,10,-3
83615134706,-2,2,19,41,11,-4,-7,3
83615148974,45,-1,-13,-1,0,-1,1,13
83615148974,2,2,-3,-27,-5,2,4,-10
83615155723,-71,8,7,17,0,-4,-14,-56
83615155723,-66,-15,1,0,4,-5,-15,5
83615172089,18,22,-13,2,10,4,18,70
83615172089,14,-9,8,-24,-12,-4,1,-6
83615173727,41,10,7,8,-6,-1,-4,12
83615173727,-8,-3,-12,40,18,3,14,-21
83615185861,44,2,21,-43,-10,-8,-17,-25
83615185861,-64,-1,-1,-13,-10,3,13,-41
83615194749,40,15,-12,-16,1,-1,2,90
83615194749,-21,-21,-1,16,-2,-5,7,31
83615209026,-8,0,-11,-12,-11,-1,-18,-84
83615209026,35,-3,-26,-7,-14,-7,-13,-76
83615215859,1,-9,31,19,14,2,11,16
83615215859,-25,-4,8,-33,-10,-1,13,66
83615232206,-34,7,3,7,6,-5,-6,113
83615232206,-16,-10,15,13,1,7,0,10
83615233754,1,12,-16,1,3,9,0,-74
83615233754,-45,2,0,-18,-15,-8,-17,-88
83615245916,40,1,-4,-43,-13,1,-12,-76
83615245916,117,18,-32,25,7,-10,71,127
83615254769,-20,-3,30,11,-3,3,-9,-80
83615254769,71,16,8,13,4,6,0,6
83615268887,26,2,-33,14,6,-1,-25,-128
83615268887,-52,23,13,-9,-6,-1,13,75
83615275830,26,-1,12,33,-1,0,8,12
83615275830,107,13,2,-14,5,-5,-3,-19
83615292105,-93,-49,12,9,1,-3,-7,-57
83615292105,24,-5,-3,-45,-15,3,-54,-74
83615293668,-14,-23,-39,17,26,10,41,46
83615293668,60,2,25,18,-2,-5,7,7
83615314789,-27,-4,-53,-39,-30,-22,0,34
83615314789,-39,-44,8,12,-8,-6,-9,-58
83615316264,20,-3,-9,-49,4,-3,-11,38
83615316264,-18,-8,-27,-17,-48,10,-3,11
83615329107,15,4,56,40,28,16,24,26
83615329107,42,3,-28,14,27,-2,-3,29
83615335809,-61,7,12,7,-52,-8,-12,-29
83615335809,-29,-11,-5,-9,20,-11,-5,-5
83615352093,4,-7,-9,2,0,-10,-2,32
83615352093,-21,1,1,9,-21,-5,-11,-15
83615353695,50,3,7,-28,35,8,1,15
83615353695,-23,-14,-11,33,-50,-7,-12,-25
83615376068,-17,-1,21,40,31,10,20,8
83615376068,16,2,-5,-64,-19,8,-5,-3
83615377626,23,-10,-26,-28,-9,-16,-9,-17
83615377626,-19,7,-10,14,16,-2,-3,-10
83615388174,66,19,2,-53,-2,3,1,22
83615388174,4,15,45,99,9,-2,3,8
83615397257,-6,-9,-25,-62,-22,-8,-14,-9
83615397257,-12,-15,8,-8,23,-1,-11,-26
83615412190,26,9,2,22,-4,2,-1,28
83615412190,18,5,-14,-18,3,2,-4,-7
83615413824,-35,-23,-5,-21,-26,-1,4,-26
83615413824,40,17,-6,14,16,8,15,51
83615434817,-14,6,-6,6,-10,2,1,8
83615434817,6,9,3,-25,4,-2,-9,-33
83615436205,-19,-10,0,31,3,-3,-6,-4
83615436205,-33,-19,4,-19,5,-1,-5,-18
83615448251,-23,4,9,1,-9,0,12,39
83615448251,-32,-6,7,41,23,1,5,2
83615457207,48,17,13,21,3,-2,2,11
83615457207,-27,7,6,13,18,2,6,-11
83615472179,-23,-10,-1,-14,-12,0,1,-41
83615472179,14,-3,-3,3,11,0,7,58
83615473783,-11,-5,-4,7,5,-1,2,12
83615473783,47,0,-1,-28,-17,0,-2,11
83615494511,-6,-6,-3,18,15,0,5,-6
83615494511,17,12,-4,-6,4,1,4,47
83615496154,18,26,6,13,5,-4,-3,-3
83615496154,6,-10,-8,-11,-8,6,-10,-14
83615508214,-4,-1,-3,1,0,0,3,-42
83615508214,18,-12,-4,-3,-3,-1,-2,26
83615517188,-15,13,-4,-7,-7,-3,-3,2
83615517188,9,-25,-6,3,-1,-9,-7,-31
83615532150,-1,-5,-5,0,0,2,-6,29
83615532150,-22,-4,-4,-9,-4,-2,-9,-45
83615533829,12,-6,-7,2,1,1,-3,1
83615533829,-13,6,-2,-9,-5,-1,0,-7
83615554593,-11,-10,-6,-1,-3,-3,-3,9
83615554593,-16,-6,-2,-8,-7,8,-1,-4
83615556167,-7,-6,-4,1,-2,-30,-10,4
83615556167,-5,10,-2,0,4,9,3,2
83615568292,-5,-3,-1,-9,-7,-4,-2,-8
83615568292,-8,4,-2,7,3,6,-3,-11
83615577195,0,-4,-1,6,3,12,2,-3
83615577195,-3,3,1,-3,-2,-7,-3,-6
83615592183,3,-2,-1,0,-2,1,-4,2
83615592183,-11,-5,-2,-10,-6,-9,2,-13
83615593821,1,-2,0,1,-2,1,-4,0
83615593821,-4,1,2,0,0,-2,-3,11
83615622061,-3,-3,-2,0,0,-1,-2,4
83615622061,-4,0,1,-7,-2,5,0,-3
83615623734,0,-4,-2,7,-1,-4,-2,-1
83615623734,-3,3,0,-2,-2,-1,1,-4
83615628258,-2,-2,-2,-1,-5,-6,-6,0
83615628258,-5,-2,-1,-2,-1,-4,0,-16
83615637234,2,-4,-2,-1,1,4,-2,1
83615637234,-3,-3,0,-2,-2,2,-1,-4
83615652092,-2,-2,-2,2,1,-2,2,0
83615652092,-1,-4,1,-1,0,-2,0,4
83615653729,0,-2,-1,-5,-4,-2,-6,-2
83615653729,0,2,-2,-2,0,-3,-3,0
83615674803,0,3,1,5,3,4,5,10
83615674803,-3,-13,-1,-4,-2,-2,-2,-9
83615676216,0,-3,-3,-3,2,2,-1,-1
83615676216,-4,2,1,9,-5,-13,-3,-2
83615689756,-2,0,-2,-15,-6,4,0,1
83615689756,-4,3,-1,0,1,-2,-1,-2
83615697411,-1,-1,0,10,0,2,3,-1
83615697411,0,-4,-2,-5,0,-2,-3,-1
83615712127,-3,-5,-1,2,0,-1,1,-1
83615712127,-5,0,-1,-8,-5,-3,-1,-1
83615713842,0,-4,-1,-9,-1,10,-1,-1
83615713842,-2,3,0,0,0,-14,1,0
83615734665,-1,-2,-2,2,-1,0,-5,-3
83615734665,-2,1,0,1,0,-4,-3,-1
83615736148,1,2,-3,-7,-1,-2,0,3
83615736148,-7,-3,-4,2,-3,10,2,-7
83615748393,5,-1,0,-1,-1,-14,-6,7
83615748393,-1,-1,0,8,0,-11,0,3
83615757174,-1,0,5,20,9,10,1,0
83615757174,-4,-5,-7,-55,-11,2,-1,-5
83615772133,-2,-5,-4,1,-3,-3,-1,-2
83615772133,-2,1,-3,-33,-10,-6,-1,-3
83615773684,1,0,1,2,0,3,1,2
83615773684,0,-2,0,14,2,3,-1,0
83615794807,-2,-1,0,6,1,1,1,-2
83615794807,-1,-2,0,13,1,-1,-2,-2
83615796261,-3,-2,-4,13,-1,-6,2,-4
83615796261,2,0,1,4,0,3,-5,2
83615808306,-2,-2,-1,-15,-1,0,-1,-2
83615808306,-2,-2,-3,50,1,-3,-2,-2
83615817205,-1,-2,0,13,-1,-6,2,-1
83615817205,-3,0,-6,-37,-9,-2,-7,-1
83615832306,0,-1,-2,-8,1,1,1,-21
83615832306,0,0,2,7,5,6,2,11
83615833801,-3,-3,-3,20,-2,-4,-3,-3
83615833801,-1,-1,-1,11,-4,-8,0,3
83615854565,-7,-1,0,1,1,1,1,-8
83615854565,2,0,-3,-19,1,15,0,-4
83615856243,0,-1,-1,-7,-6,-17,-5,3
83615856243,0,1,2,14,3,-3,-2,-8
83615868315,-1,-1,-3,3,1,9,0,5
83615868315,-2,-1,-2,1,-3,-3,-3,-5
83615877323,0,-1,-1,-25,0,2,-1,4
83615877323,-5,-1,1,20,1,0,-2,-4
83615892264,4,2,2,12,-2,-7,0,3
83615892264,-2,3,-1,-18,-1,-1,-1,1
83615893818,-1,-1,-2,-3,-4,0,-1,-8
83615893818,-5,-4,1,2,5,-3,1,-2
83615914785,-1,1,-3,20,-1,-2,-3,3
83615914785,0,1,-1,-10,-2,-5,0,-2
83615916295,-2,-4,-1,-4,1,5,1,-2
83615916295,4,2,0,9,-1,-2,-4,-24
83615928281,3,-2,-2,3,-1,-2,2,29
83615928281,4,-2,-3,-11,-3,-1,-3,-2
83615937182,-3,5,-4,-17,-2,-1,-1,-2
83615937182,0,-1,0,-2,3,3,2,3
83615952143,-3,-2,0,-4,-4,-5,-5,-10
83615952143,-3,-2,-3,-19,-2,-12,-3,-6
83615953744,-1,0,1,-2,1,8,-1,0
83615953744,5,-1,0,-1,0,2,2,13
83615974739,-3,-4,-3,-10,-4,0,1,-5
83615974739,-5,-1,3,17,4,1,-1,-3
83615976215,1,0,0,1,-7,3,1,-5
83615976215,-7,-1,-2,-33,-5,-16,0,-1
83615988268,-1,-3,1,10,8,10,2,1
83615988268,2,1,-1,7,-4,-1,-4,-9
83615997268,-1,-3,0,-22,-6,-3,-1,2
83615997268,0,0,0,13,1,5,3,6
83616011386,2,-3,1,8,-1,-7,-2,-2
83616011386,-1,-3,-5,-12,-1,-1,0,3
83616018171,5,0,-2,3,2,-1,-3,-20
83616018171,-6,0,-4,-14,-1,2,1,18
83616034808,-3,-2,-3,3,-6,-4,-1,-6
83616034808,-9,-3,-4,-5,0,2,-5,-43
83616036206,9,0,-7,0,-2,-3,-1,19
83616036206,0,12,-5,19,2,1,-7,-11
83616048214,-1,-10,-7,-43,-7,-2,-5,-4
83616048214,0,1,-2,1,-5,-3,-5,6
83616057198,-9,-2,-2,19,-1,-5,-7,-6
83616057198,0,1,-4,-37,-5,1,-2,-2
83616071527,-3,4,-1,-13,-5,0,-3,2
83616071527,-1,0,6,22,0,-2,1,8
83616078410,5,-5,3,-27,-7,-3,0,2
83616078410,-17,-1,12,25,7,3,5,6
83616094550,-8,-2,-6,36,-7,-7,1,-10
83616094550,-3,-3,5,-9,3,1,4,9
83616096142,-1,2,2,-4,0,-3,3,9
83616096142,2,-6,2,26,4,2,4,-5
83616108250,1,1,3,-13,3,-3,0,-1
83616108250,-5,2,-1,1,1,1,1,3
83616117229,-16,-5,-2,28,-3,-3,-4,-1
83616117229,3,-8,-4,3,3,-2,-4,0
83616131526,-4,18,1,-6,-1,0,-1,-18
83616131526,4,-7,-2,5,-1,0,4,14
83616139081,-4,0,2,1,3,0,-3,-31
83616139081,3,-4,-5,-48,-11,-3,-1,-1
83616153928,1,4,2,21,3,0,-3,6
83616153928,-2,-1,-5,-21,-2,-3,-2,-5
83616154714,-5,-4,-6,-26,-7,-3,-2,-11
83616154714,6,1,-3,15,3,1,-3,1
83616176544,12,7,-2,-9,-3,-1,3,5
83616176544,1,-2,1,7,10,3,-1,3
83616177187,-3,-4,-2,-11,-11,-2,-2,-1
83616177187,-1,-1,1,49,8,2,1,14
83616190969,-1,-3,-1,-33,-6,-1,-2,3
83616190969,-5,-4,-4,20,-1,-3,-1,-3
83616198917,13,7,3,-35,6,1,2,15
83616198917,-1,-1,-2,2,-6,-3,-2,-10
83616213908,-9,-8,-7,-8,-3,-2,-5,-7
83616213908,2,4,-1,-9,-5,-2,-2,2
83616214772,-2,-29,-6,8,5,0,-1,8
83616214772,-1,-2,-2,-31,-5,0,-3,-7
83616236589,2,-6,0,-2,-1,-1,-1,1
83616236589,1,2,5,9,3,-1,-5,-3
83616237171,-1,8,0,4,-6,-1,-1,4
83616237171,-2,-3,-1,-1,-1,-2,0,-6
83616252190,-4,-6,5,11,0,-3,-1,0
83616252190,-1,0,-3,3,-3,-1,-1,2
83616258970,-5,1,-9,-9,-13,-5,-3,-2
83616258970,1,-2,-1,2,-5,-3,-3,1
83616273887,-3,-3,-5,-3,-2,-1,-1,-2
83616273887,-2,-3,-3,-7,-2,-4,-2,0
83616274762,-1,2,-2,5,7,-3,-2,-1
83616274762,2,1,2,15,13,3,1,1
83616296484,-2,-1,-2,-8,-12,-4,-2,1
83616296484,-5,-1,1,15,-6,1,-1,-3
83616297215,0,-2,-6,-62,-9,-3,-2,1
83616297215,-5,-1,0,24,7,1,-2,-3
83616310800,5,-4,-3,-21,4,1,-1,3
83616310800,3,0,-3,-14,-3,1,1,-7
83616318967,-2,3,6,22,6,3,1,19
83616318967,-6,-4,-5,-24,-9,-3,-3,-3
83616333959,0,-3,1,16,0,-2,0,0
83616333959,2,0,3,4,0,-1,0,-3
83616334699,-2,1,-5,-6,0,-3,-3,-5
83616334699,-13,-5,-5,-14,-7,-2,-2,-3
83616356426,-7,10,-1,13,3,2,-1,-4
83616356426,-25,-20,-5,-9,-3,-3,-3,1
83616357199,-2,3,4,24,3,0,0,-7
83616357199,-1,0,1,-5,-5,-1,-1,2
83616370766,-6,1,-5,-5,1,-1,-2,-9
83616370766,1,2,0,-2,-5,-2,-2,-3
83616378926,2,-1,-1,4,1,-1,-3,-3
83616378926,0,-3,-2,-2,-2,-2,0,-4
83616393959,2,-6,-2,2,0,0,-1,-4
83616393959,4,0,-5,-7,-2,-2,0,5
83616394752,-8,-2,-4,10,-1,1,1,-8
83616394752,14,9,0,1,1,0,2,1
83616416494,14,2,4,7,3,0,-1,26
83616416494,-3,3,-3,-7,-1,0,1,-3
83616417200,-5,3,3,5,-1,-1,0,-4
83616417200,41,34,6,2,-1,-1,1,2
83616430765,11,4,-2,-1,1,-1,1,8
83616430765,14,15,5,1,2,1,-1,2
83616439115,1,-12,1,8,4,1,0,6
83616439115,-26,-4,-3,-5,-3,-1,-4,-14
83616453997,-1,2,1,2,0,0,1,-3
83616453997,8,-3,-2,-2,-2,-4,-2,2
83616454747,-6,-2,0,1,-1,-2,-2,-8
83616454747,-4,-10,-3,-2,-3,-1,-4,2
83616476610,-14,-8,0,-1,0,-2,-1,-14
83616476610,-5,-7,-2,0,-1,-2,0,-1
83616477171,5,-2,-4,-2,-2,0,-1,2
83616477171,-7,-12,-1,0,1,-2,-2,-1
83616490900,-1,-1,-3,-3,-1,-2,-1,-2
83616490900,1,-2,-5,-4,-2,-3,-4,0
83616498908,0,4,0,4,0,-2,-1,1
83616498908,-3,-6,-2,-1,-2,-1,-1,0
83616513906,-9,-9,0,2,0,0,-1,-7
83616513906,-3,-1,-1,-4,-3,-1,0,-1
83616514755,2,5,-1,0,-1,-1,0,-4
83616514755,-14,-31,-7,-3,-3,-3,-1,0
83616536374,9,8,2,1,0,0,-2,0
83616536374,-3,-5,-2,-2,-2,-2,-2,-4
83616537129,13,23,5,3,1,0,-1,-3
83616537129,5,3,2,-1,-1,0,3,4
83616550704,-13,16,0,0,0,-1,-3,-7
83616550704,3,-41,-5,-1,-2,0,-1,0
83616558595,-1,-2,0,1,-2,0,1,-3
83616558595,-3,12,-3,-1,-1,-2,-2,-1
83616574295,-3,-26,-6,-3,-3,-3,-2,-5
83616574295,2,19,3,0,0,-2,0,1
83616581558,-5,-9,-3,2,-1,-2,-2,2
83616581558,-1,-3,-1,1,-1,1,-1,-4
83616596402,0,-6,-2,-2,-6,-2,-2,2
83616596402,-3,3,-2,1,0,0,-1,-1
83616597217,-4,-10,-3,-2,-2,-1,-1,-5
83616597217,3,2,-3,-2,-1,-2,-1,1
83616610818,0,1,1,0,0,-1,-1,-2
83616610818,-5,3,1,-2,-1,-1,-1,0
83616619007,-3,-1,-2,-4,0,-2,-1,-1
83616619007,0,4,0,-2,-2,-2,-2,-1
83616633939,-8,-3,1,-1,0,-2,1,-1
83616633939,15,17,0,-1,-2,-1,-1,-1
83616634784,-16,-15,0,1,0,-1,-3,2
83616634784,3,-4,-6,-2,-1,0,-1,-3
83616656380,-8,-3,-4,-1,-1,-2,-1,1
83616656380,2,8,1,1,1,0,-2,-1
83616657202,5,4,-4,-3,-2,-3,-1,-2
83616657202,-6,-4,-3,0,-1,0,-3,-3
83616671361,0,1,-3,-1,-2,0,-3,-2
83616671361,-4,-3,-2,-1,-2,-1,-3,-1
83616672203,-1,0,2,-1,0,-1,-2,1
83616672203,-5,-6,-2,0,-1,-2,-1,-1
83616693845,2,0,-1,-2,0,0,0,-1
83616693845,-4,-3,-1,-2,-3,-1,-2,-1
83616694703,-3,-3,-1,-2,-2,-1,-3,0
83616694703,3,5,0,-2,-2,-1,-1,0
83616716356,3,-1,-1,-2,-2,-2,-2,-2
83616716356,-6,-2,0,0,1,1,-2,-1
83616717128,0,1,-2,-1,-1,-1,2,-1
83616717128,0,-2,0,0,0,-2,-1,0
83616731325,-1,-17,0,-1,0,-1,-2,0
83616731325,-4,-3,1,0,0,0,0,-1
83616732162,-10,-6,-2,-2,-2,-1,-2,0
83616732162,23,11,5,1,-2,-2,0,0
83616753867,-8,-2,-1,0,-1,0,-1,1
83616753867,-5,-3,0,0,-1,-3,-1,-1
83616754710,-11,1,-1,-3,-4,-1,-3,-5
83616754710,7,-3,-3,-2,-2,-1,-1,2
83616776383,2,9,-2,-2,-1,-2,-1,-2
83616776383,3,1,0,-2,1,0,-1,-1
83616777165,4,1,-4,0,-1,-1,1,-1
83616777165,-10,-7,-1,0,-2,0,-1,-2
83616791339,4,4,0,1,1,0,1,1
83616791339,-8,-8,-10,-6,-4,-2,-4,-5
83616792171,3,1,1,-1,-1,-1,-1,0
83616792171,-10,-4,-6,-2,0,-3,0,-6
83616813866,0,0,1,5,1,-1,0,0
83616813866,-4,-3,-8,-6,-2,2,2,1
83616814682,4,-2,2,0,-1,0,-2,1
83616814682,-5,-1,0,-3,-3,-2,-1,0
83616844538,0,-4,-2,-5,-3,-3,-1,-4
83616844538,-1,-2,1,0,-2,-3,-3,-2
83616845365,1,0,-2,0,1,-1,-1,0
83616845365,-5,-5,-2,-1,1,0,0,-2
83616850595,-8,1,-3,-2,-1,-1,-1,-2
83616850595,3,-2,2,1,-1,-1,-1,-3
83616858881,-3,-4,-2,-1,0,-2,-1,1
83616858881,-9,0,1,0,-2,-2,0,1
83616874052,20,-1,-1,-2,-1,-1,-1,-6
83616874052,17,21,5,3,2,1,4,9
83616874722,6,3,-1,-1,-1,-1,-1,-3
83616874722,0,-5,-2,-1,-1,-1,-2,3
83616896612,2,3,-1,-2,-2,0,-1,-3
83616896612,-7,-7,-3,-3,0,-1,-2,-5
83616897196,0,-1,-4,-1,1,-1,-2,0
83616897196,3,2,-3,-6,-2,1,0,1
83616910818,-5,2,4,3,1,0,-1,2
83616910818,-7,-6,-4,-3,-2,-2,-4,-10
83616918868,-6,-3,2,3,-1,0,-2,6
83616918868,-2,0,-2,-1,0,1,-3,-3
83616934124,-4,-1,0,-2,-2,-1,-2,2
83616934124,-4,-7,5,3,0,-1,0,-2
83616934787,2,3,-2,-4,-4,-2,-1,-4
83616934787,0,0,0,-3,-3,-2,-3,-1
83616956418,-4,-5,-3,-3,-3,-1,0,-1
83616956418,0,5,1,1,2,0,1,3
83616957194,-4,-3,-5,-1,-3,-2,-1,-4
83616957194,-1,-3,-1,-1,0,-2,-1,-1
83616979579,-22,-6,-4,-2,-3,-2,-3,-4
83616979579,-4,-3,-2,-5,-4,-1,-2,-6
83616980353,3,0,1,2,2,1,2,5
83616980353,-3,-6,-3,-3,-3,-1,-2,-3
83616993905,9,10,-1,0,0,-2,-1,0
83616993905,-12,-6,-2,-2,-1,-1,-1,-2
83616994649,3,-3,-3,-2,0,-2,-1,-1
83616994649,4,2,1,2,1,0,-1,-6
83617016315,-15,0,-2,0,-1,0,0,3
83617016315,-1,-2,0,0,1,-2,-2,1
83617017124,-2,1,1,0,-1,-1,-1,-2
83617017124,1,-1,1,0,-1,-2,0,-1
83617030777,7,18,-2,-1,0,-1,0,-2
83617030777,1,-5,0,-1,-1,-2,-1,2
83617039047,-7,-1,0,-1,-1,-1,-1,-1
83617039047,0,-1,0,0,-1,0,-1,0
83617054063,2,-3,1,3,-1,0,0,-1
83617054063,0,0,0,2,-3,-1,0,3
83617054739,4,-1,-2,-1,0,-2,-1,-4
83617054739,-3,1,0,-2,-1,0,0,2
83617076487,3,-7,-2,-2,0,0,-2,-3
83617076487,2,2,-2,-2,-2,-2,-1,1
83617077182,-1,-4,0,-1,-3,0,-1,-2
83617077182,-1,-2,-2,-2,-2,-1,-1,1
83617090984,-6,-8,-1,-3,-2,-1,0,-1
83617090984,20,6,-6,-4,0,-1,0,-3
83617098954,-12,-33,0,-4,-1,-1,-2,4
83617098954,-6,6,4,3,0,0,0,2
83617113856,-4,-4,-4,-2,-5,-2,-2,-2
83617113856,-3,0,3,0,0,0,1,0
83617114635,11,5,-4,0,-1,-2,-1,-2
83617114635,-6,1,2,1,0,-2,0,-4
83617136435,-5,-23,-6,-4,-2,-4,-3,-1
83617136435,-2,7,0,-1,-3,-2,-4,-2
83617137171,0,6,-6,-4,-3,-4,-2,-2
83617137171,-4,-8,-4,-2,-2,-1,-1,-1
83617150760,4,8,2,2,0,1,-1,0
83617150760,-5,-6,-1,-3,-5,-2,-2,-2
83617158886,-1,2,0,-1,-1,0,0,-2
83617158886,4,6,0,1,1,-1,-3,0
83617174103,0,-2,-1,-2,0,-2,-2,-1
83617174103,-2,-4,-2,0,-1,0,-1,-1
83617174670,-3,4,1,2,0,1,0,0
83617174670,1,1,-2,-1,-2,-2,-1,0
83617196416,3,-2,0,-3,-1,-1,-1,-1
83617196416,-7,-7,-2,1,0,-1,-1,0
83617197142,-1,4,0,2,0,-1,-1,-1
83617197142,-1,1,-3,-1,-2,0,-3,-4
83617219785,1,-1,-2,-1,0,-1,-1,5
83617219785,-3,0,0,0,-1,0,1,-1
83617220401,-4,0,-1,-2,0,-3,-2,-5
83617220401,2,-2,-1,-1,-2,-1,-2,4
83617233952,12,0,0,1,-1,-2,1,2
83617233952,-4,8,-1,-1,1,0,0,-1
83617234865,-18,-13,-5,-2,-3,-1,-3,1
83617234865,1,2,0,-2,-1,0,-1,-1
83617256629,-2,4,0,3,2,0,0,-3
83617256629,-6,-1,-3,-5,-3,-1,-1,0
83617257224,1,4,3,0,-2,-2,-1,-5
83617257224,-3,-4,-3,-2,-1,-4,0,-3
83617279555,-5,-5,-1,-1,-1,-1,-1,0
83617279555,2,-5,-2,-1,-1,1,-1,-4
83617280337,3,6,2,-3,-2,-1,-1,-1
83617280337,0,-5,-1,-2,1,0,0,-1
83617293899,-1,-1,-3,-1,-2,-1,-1,-1
83617293899,-2,-6,-1,0,0,-1,-2,-1
83617294707,4,2,-1,0,-2,1,1,-1
83617294707,-3,-2,-2,0,-2,-1,-1,6
83617316579,-3,2,-1,-1,-2,0,0,-2
83617316579,-1,-3,-4,-2,-3,-1,-2,-1
83617317163,1,-1,-2,-1,2,-1,0,1
83617317163,0,-2,-2,-2,-1,-2,-2,-5
83617339610,-2,-3,1,-3,-1,-2,1,-2
83617339610,1,0,-2,-1,-2,0,1,1
83617340416,3,1,-1,-3,-1,0,0,-2
83617340416,-1,-2,0,-1,1,1,-1,-1
83617353940,-3,-2,0,-1,-1,-1,-3,-2
83617353940,-14,-15,0,2,1,-1,-1,-2
83617354685,-11,-4,-4,-2,-1,0,-2,-2
83617354685,1,6,1,-1,-3,-3,-2,-12
83617376576,-4,4,3,1,0,0,1,6
83617376576,2,-20,-2,-1,0,0,1,-1
83617377255,-4,-7,-2,-1,0,-1,-1,0
83617377255,-1,-4,-3,-4,-3,0,1,0
83617399653,-19,3,-2,-3,-3,-3,0,-5
83617399653,2,5,-2,0,0,-3,-3,-1
83617400313,4,-2,-1,1,-2,0,0,0
83617400313,0,-3,-1,0,1,-1,-1,0
83617415407,6,-4,-2,-2,-1,-1,-2,-3
83617415407,2,1,-7,-3,-2,-1,-3,0
83617415458,-1,-2,2,1,-2,-2,-1,-1
83617415458,2,2,-2,-1,-1,-2,-1,0
83617436360,-1,-4,-1,-3,-4,-2,-2,-1
83617436360,0,2,0,-2,0,1,0,-2
83617437137,7,2,1,-1,-1,-1,-1,-5
83617437137,1,0,3,-1,-2,0,0,3
83617459587,3,-2,-1,2,1,0,0,-1
83617459587,1,2,-1,-2,-2,-2,-1,-1
83617460397,1,1,-1,-2,-2,0,0,-1
83617460397,7,-4,0,3,0,-1,-2,-5
83617473818,-2,-3,0,0,0,-1,0,3
83617473818,-1,1,-2,-1,-1,-1,0,-2
83617474568,-1,0,-1,0,0,0,0,2
83617474568,3,-2,-3,-2,-1,0,-2,-1
83617496442,7,3,1,0,-1,-1,-2,-2
83617496442,-8,1,0,-1,-1,0,-1,-3
83617497197,-11,-24,-5,-4,-3,-3,-1,-2
83617497197,-5,-1,-1,-2,-2,-2,-1,0
83617519806,9,5,-3,-2,-2,-1,-2,-2
83617519806,-3,2,2,2,0,-2,0,0
83617520352,-4,3,1,0,0,0,-1,-13
83617520352,-5,-2,-3,-1,0,0,0,10
83617533917,-1,-3,0,-1,0,0,-1,-1
83617533917,2,1,1,-1,-1,-3,-2,-3
83617534815,2,6,-3,0,0,1,0,0
83617534815,-1,-2,-1,1,-1,-2,-1,-4
83617556620,0,-2,-2,-6,-3,-2,1,-3
83617556620,3,0,-3,-2,-1,-1,-2,1
83617557170,1,0,-3,-3,-1,-2,-2,1
83617557170,-2,0,3,1,0,0,0,1
83617579753,-7,-7,-9,-2,-2,-2,-3,-3
83617579753,1,-1,-2,-1,-1,-1,0,-2
83617580377,3,3,0,-3,-2,-1,0,3
83617580377,7,-1,-2,-1,-2,-1,-2,-8
83617593851,-6,-2,1,1,0,-1,-1,6
83617593851,4,0,3,-1,-1,0,-1,0
83617594606,2,3,-1,0,-1,0,-1,1
83617594606,-4,-8,-6,-1,-1,0,-1,-4
83617616365,-13,-13,-1,-1,-1,0,-4,0
83617616365,1,1,-1,2,0,0,-1,-1
83617617093,-22,7,-3,-4,-1,-2,-2,1
83617617093,-7,-19,-2,0,-1,0,1,0
83617639608,5,1,1,1,0,-1,0,-2
83617639608,-9,0,-2,-4,-2,-2,-1,-2
83617640409,5,0,-1,-1,-2,-2,-4,2
83617640409,-3,7,0,-1,1,1,0,-3
83617654121,2,-1,1,-1,1,-1,-2,-3
83617654121,-2,-5,-3,-3,-1,-2,0,-1
83617654774,7,2,2,1,2,0,2,-2
83617654774,-2,2,-3,-5,-3,-1,-3,0
83617676601,3,0,-1,1,0,-1,1,0
83617676601,0,-2,-1,-2,-3,-1,-2,1
83617677203,1,-3,-1,0,0,-1,0,-1
83617677203,-2,2,0,-1,0,-1,-1,2
83617699766,-2,1,-2,-2,-1,0,1,-2
83617699766,1,3,1,1,0,0,0,-7
83617700425,1,-3,1,-1,-2,-3,1,7
83617700425,-2,-2,-2,-3,0,-1,-1,-2
83617713865,2,0,-1,-1,-1,-1,0,-3
83617713865,5,23,1,0,-1,-1,-1,0
83617714685,0,-7,-4,-4,0,0,-3,-4
83617714685,11,1,-1,-1,-1,-2,-4,-7
83617736405,2,9,0,-1,0,1,-1,6
83617736405,-16,-4,-1,-2,0,0,0,2
83617737173,3,4,3,3,0,-1,-1,-1
83617737173,-1,-1,-3,-1,1,1,0,2
83617759648,3,2,-2,1,-3,-2,0,-2
83617759648,1,-9,-1,-3,-2,-1,0,-1
83617760402,7,0,-2,1,0,0,0,8
83617760402,-7,-3,1,-4,-1,-2,1,-3
83617773334,-3,-2,-3,-2,-2,-1,-2,-4
83617773334,-1,-5,0,1,-1,-1,-2,2
83617781607,-5,-5,-3,-1,-2,0,-3,-7
83617781607,-1,5,0,2,-1,-1,-1,0
83617796605,0,-2,1,-2,-1,0,-1,-1
83617796605,0,-5,-2,-4,-1,-1,1,-2
83617797261,-2,1,-2,-2,-1,-2,0,-3
83617797261,-2,-4,-2,0,0,1,0,2
83617819537,-5,-4,-2,-1,0,-3,-2,-4
83617819537,1,-3,-1,-1,-3,-1,-2,-1
83617820313,-1,-3,-6,-4,-2,-2,-2,-4
83617820313,-2,1,-2,2,-1,-2,-1,3
83617833428,-3,-7,-2,0,-1,-1,-2,-2
83617833428,-1,-1,-1,-1,0,0,-1,0
83617841573,-3,-1,1,1,1,0,-3,-4
83617841573,-7,-6,-4,-2,-1,-2,-2,-7
83617856499,7,2,0,-1,-1,-1,0,0
83617856499,-1,-2,0,2,-1,-1,-3,-1
83617857164,0,0,2,0,-1,0,0,0
83617857164,-3,-3,-3,-1,-1,-1,-4,-4
83617879656,-6,-1,-1,-1,0,-1,-3,-7
83617879656,15,-3,0,1,1,-1,7,13
83617880404,-2,-1,1,2,-1,0,3,9
83617880404,1,20,-2,-3,-4,-1,-2,-24
83617893398,1,-4,0,-2,-3,0,1,18
83617893398,-7,-10,-4,-2,-2,-1,-5,-9
83617901397,8,11,2,-1,-2,0,-2,-1
83617901397,-4,-12,-5,-2,-2,0,0,5
