timestamp,emg1,emg2,emg3,emg4,emg5,emg6,emg7,emg8
116859139294,3,2,0,0,0,-2,-2,3
116859139294,1,1,-2,-1,-1,-2,-1,-1
116859140198,-3,-1,0,-2,1,0,0,1
116859140198,-2,-1,-1,-2,-1,-3,-1,-3
116859140882,4,-2,0,2,0,-1,2,0
116859140882,2,-3,-2,-1,-1,-1,-1,-7
116859144276,-2,-1,-1,-1,0,-1,1,3
116859144276,2,4,0,0,0,-1,-1,-1
116859150752,-3,-2,-2,-1,-1,-2,-1,-4
116859150752,-1,-1,-2,-1,-1,-1,0,-2
116859159587,-9,-7,-4,-3,-3,-2,-3,-4
116859159587,9,-1,-2,0,-1,-1,-1,0
116859167212,-3,-1,1,0,0,0,-1,9
116859167212,-2,1,1,1,0,-1,0,1
116859180660,-3,-2,0,-4,-1,0,-2,-3
116859180660,-5,-2,-1,1,-2,0,-2,-1
116859192192,0,-1,-2,0,-1,-3,-2,-5
116859192192,-2,-2,0,-2,0,-1,-1,-1
116859212181,4,2,1,0,1,-1,-1,5
116859212181,-3,-3,-2,-1,0,0,-3,-4
116859213811,-2,1,-1,-1,-2,0,-1,-3
116859213811,-1,0,-1,-1,-2,0,-2,1
116859225533,0,0,0,0,-1,-1,-2,-3
116859225533,0,-1,-1,-1,-1,0,-2,0
116859267315,1,-1,-2,-5,0,0,0,-1
116859267315,0,0,-2,-1,-2,-2,-1,0
116859268164,0,1,-1,-2,-3,-1,1,0
116859268164,0,1,1,-1,-1,-1,-1,-1
116859271876,-2,-1,0,2,0,-2,-1,-3
116859271876,-4,-5,-1,-1,-2,-2,-3,-3
116859273476,3,5,0,-2,-1,-1,-3,5
116859273476,0,-2,-3,-1,-1,0,-3,1
116859278001,0,1,-1,-1,-1,0,-1,1
116859278001,-3,-1,-1,-3,-1,0,0,-4
116859286940,2,-3,0,0,0,-1,-1,-9
116859286940,-2,-1,-1,-1,-2,-1,0,0
116859300458,-3,-1,-2,-1,-1,-3,-1,-1
116859300458,1,0,-1,1,-1,-1,1,1
116859309493,-1,-1,0,-5,0,-2,-1,-4
116859309493,-1,-4,-3,-1,-1,-2,-1,0
116859323706,-1,0,-2,-1,-1,0,0,-1
116859323706,-1,-2,0,-1,-1,0,1,-1
116859338623,-5,-3,-1,0,-3,-1,-3,0
116859338623,2,0,-1,-1,-1,-1,-2,-1
116859339403,-3,-3,0,1,-2,-1,-1,-3
116859339403,2,-1,0,-1,-1,0,1,2
116859352955,-3,-2,-2,0,1,1,-1,0
116859352955,-4,-2,-1,-3,-2,-3,-2,-3
116859360502,-2,-1,-1,-1,-1,-1,-4,-2
116859360502,-3,-4,-2,-4,-1,-2,-3,-6
116859376449,4,-1,-3,-1,-1,-2,1,2
116859376449,1,-1,0,2,0,-1,-1,-2
116859376969,0,-2,-1,-2,-1,0,1,0
116859376969,-3,3,-1,0,-1,-2,-1,-3
116859398886,-4,-1,0,1,-1,1,2,0
116859398886,-1,0,-1,-2,0,-1,-1,1
116859399546,-1,0,0,-1,-2,-1,-1,-2
116859399546,0,-1,-1,-1,0,-1,-2,5
116859421451,-2,-2,-2,0,-2,-1,-1,-2
116859421451,-1,-3,-2,-2,0,-1,1,0
116859421901,-2,-2,-1,1,-1,-1,0,0
116859421901,-2,0,1,0,-2,-2,-3,-4
116859436485,-1,-1,-1,-1,-3,-2,-3,1
116859436485,-5,-1,-3,2,-4,0,1,0
116859436931,1,-1,0,-4,0,-1,-1,0
116859436931,0,0,-2,-3,-2,-1,-2,-1
116859458885,-1,-1,-2,0,0,0,-1,-2
116859458885,0,0,0,0,0,0,0,-2
116859459488,-1,-1,-3,3,0,-1,-3,-1
116859459488,-1,-1,0,-1,-1,-1,-2,-4
116859481136,0,0,0,1,0,-4,-2,-1
116859481136,2,-1,0,-7,-2,-1,1,1
116859482065,-3,0,0,-2,-5,-1,-2,-2
116859482065,-1,-1,-2,-3,1,-2,0,2
116859496462,-3,-1,1,-2,0,1,0,-2
116859496462,-1,-1,-1,2,-2,-8,0,-2
116859496901,-1,-3,-3,1,-1,3,-2,-1
116859496901,-1,-2,0,6,-1,2,2,-3
116859518883,1,-3,-1,1,5,2,1,-1
116859518883,-2,-2,-1,0,-2,0,-2,-1
116859519496,6,6,-1,-6,-2,-2,-2,0
116859519496,-20,-23,-4,2,-3,7,0,-5
116859541269,5,-1,-1,-3,-4,-14,-2,2
116859541269,0,1,0,2,0,3,-1,-4
116859542067,1,-5,-2,-3,0,-5,-1,3
116859542067,9,6,0,15,3,2,-2,0
116859556279,-3,2,4,-7,-3,3,2,4
116859556279,-2,-8,-6,-2,-4,1,1,-2
116859556955,-5,1,-3,6,-2,-2,0,-5
116859556955,-4,2,-2,-6,-3,-7,-7,-6
116859578808,1,-2,-2,27,1,-2,-3,1
116859578808,3,8,2,-45,-8,-14,-6,-2
116859579439,0,-2,1,9,5,7,-1,1
116859579439,3,15,7,0,0,-2,3,1
116859601716,-4,-1,-6,0,5,12,3,-2
116859601716,-4,-7,8,22,-3,-6,-3,-1
116859602512,2,-1,-18,-6,0,-2,2,1
116859602512,1,-8,15,-24,-2,-8,-4,-1
116859616188,-9,-5,-23,-6,-11,-2,-7,-9
116859616188,0,0,6,48,7,3,1,0
116859616972,-1,-8,-12,-57,-16,10,0,4
116859616972,5,18,3,23,4,-17,1,-4
116859638750,-14,4,8,5,1,3,1,-2
116859638750,1,1,6,36,1,1,2,15
116859639662,1,-14,0,8,0,-2,-1,7
116859639662,4,-8,-13,-22,-5,3,-1,-3
116859661399,-1,-4,4,1,0,-11,-2,-3
116859661399,-11,-1,-3,-33,-6,2,-2,-16
116859662009,6,10,1,6,7,5,3,3
116859662009,9,3,7,77,16,8,-5,-5
116859676466,-6,5,-21,-81,-32,-17,-5,4
116859676466,-2,4,-2,8,2,6,-3,-5
116859677021,-2,-1,6,2,-3,5,1,-3
116859677021,-6,-11,-4,-5,0,-18,-6,-4
116859698907,8,7,6,19,9,5,0,4
116859698907,6,-14,0,-30,-5,-2,0,4
116859699562,-19,4,3,-5,2,-10,-4,-16
116859699562,-9,-1,-9,-3,-6,17,11,49
116859721246,-3,8,6,8,12,-8,-7,-30
116859721246,42,8,-4,-28,-7,3,19,42
116859721968,-87,-28,1,38,5,-13,-15,-63
116859721968,24,3,0,-30,-8,8,7,13
116859736417,-2,-24,-1,1,-3,-4,-3,-2
116859736417,-13,-9,-10,5,2,-5,-8,-8
116859737007,28,21,10,-15,2,3,-3,12
116859737007,-5,-6,-6,27,4,2,7,-19
116859758646,14,6,-1,-4,-9,36,6,16
116859758646,15,-1,-4,14,-9,-37,-3,-2
116859759612,-17,-4,-1,-2,0,12,-2,20
116859759612,-3,-2,-5,-20,-9,-30,-9,-12
116859781426,19,4,4,0,4,7,-6,3
116859781426,-5,1,-2,17,8,14,6,-10
116859781899,14,-7,-5,-15,-17,-7,6,61
116859781899,4,4,0,-15,6,-7,-7,1
116859796279,-11,-5,-2,18,10,-1,7,7
116859796279,-8,-1,-3,-33,-7,1,4,-12
116859796950,2,-3,-2,-7,-3,0,-11,-28
116859796950,19,3,-1,11,-1,15,4,13
116859818904,0,-2,1,-13,-5,-21,-1,-1
116859818904,-18,7,-2,26,11,23,3,10
116859819437,-22,-4,1,10,1,-11,8,-51
116859819437,-25,-1,0,-2,1,0,-23,-79
116859841374,31,3,2,-1,-13,-20,17,52
116859841374,4,9,1,-29,-10,9,-3,24
116859841901,46,1,1,25,8,-7,-4,14
116859841901,3,-2,-5,-2,1,2,-3,-6
116859856318,-39,-5,4,-4,4,15,-5,-27
116859856318,-5,-7,-5,10,-3,-11,-3,-26
116859856998,22,5,-1,-31,-5,-10,-8,-4
116859856998,8,-2,0,9,-10,9,12,-7
116859879299,2,-6,-4,-16,4,13,-4,12
116859879299,4,0,2,5,6,-23,-2,30
116859879971,-9,-2,2,14,6,5,-8,-9
116859879971,20,4,0,-26,-6,-18,4,7
116859901281,-21,-6,-3,-10,-7,-2,-18,-66
116859901281,8,3,0,8,6,23,21,65
116859901864,14,-6,3,18,10,-3,19,32
116859901864,-29,-7,-4,-31,-18,7,-19,-8
116859916213,27,3,-2,38,17,-11,10,16
116859916213,3,-3,-6,-29,-4,3,-5,-37
116859916962,-31,2,1,-7,-13,-5,3,-9
116859916962,10,3,-6,-28,-15,-16,-1,25
116859938871,-1,-5,-4,23,-2,-5,-4,-1
116859938871,-12,-2,1,50,25,20,-5,-21
116859939486,-6,2,0,-22,-25,-15,-8,-13
116859939486,2,-2,-1,0,10,6,-6,-14
116859961162,-3,2,-4,-4,5,-7,-10,24
116859961162,-41,-7,2,-16,-15,-1,20,-25
116859962086,20,5,6,12,8,4,-11,2
116859962086,-10,-6,-8,-22,-2,15,-3,21
116859975508,6,-14,4,8,-16,-23,-1,-52
116859975508,-2,-7,-4,33,19,4,-12,9
116859983747,0,0,-5,-5,-5,-11,-3,-1
116859983747,-8,-1,0,20,5,5,5,4
116859998728,3,5,-1,-13,-7,4,-7,-2
116859998728,4,0,-3,-45,-6,-11,-15,-26
116859999466,-1,-1,-1,42,5,7,5,-4
116859999466,8,-2,2,15,7,-5,1,-2
116860021227,-14,-2,1,13,7,18,16,24
116860021227,5,-1,-4,-16,-25,-19,-10,-17
116860022117,7,6,2,-24,3,-1,-15,4
116860022117,-3,-5,-4,11,4,-11,26,8
116860035662,-3,-2,-7,-38,-16,-4,-34,-54
116860035662,-11,9,13,53,27,2,2,-15
116860043926,25,3,-4,-2,6,9,6,7
116860043926,-15,1,3,6,-12,-9,-17,-5
116860058910,-5,1,1,-2,-10,3,12,-3
116860058910,2,-2,-6,-54,-14,-4,-16,-20
116860059532,18,-3,-1,28,7,-5,-2,18
116860059532,-1,1,0,13,9,11,-16,-18
116860081287,2,5,-4,-17,-7,-3,1,15
116860081287,7,2,-4,-18,-9,5,5,8
116860082026,-19,-9,-2,2,-4,-15,2,-4
116860082026,3,-2,0,12,1,1,5,27
116860095765,1,5,6,10,6,4,5,20
116860095765,-1,-5,-5,-9,1,-3,-9,-14
116860103929,-5,-6,-7,-38,-21,3,-1,-25
116860103929,-1,2,3,22,20,5,20,54
116860118885,2,-9,-2,-21,-5,-4,-3,20
116860118885,13,3,3,21,-8,-7,-7,-6
116860119552,1,3,-2,-1,4,2,-8,-9
116860119552,-5,-6,-3,2,-4,3,1,-31
116860157731,-10,3,-1,-3,5,5,6,13
116860157731,26,-11,-1,13,-2,-5,-12,25
116860158292,-24,-8,-6,-12,-6,0,8,-17
116860158292,-7,3,3,-16,-3,-4,-5,-6
116860159905,-9,-6,-1,-1,2,0,-4,-3
116860159905,-12,-1,-3,1,-3,-5,-10,-25
116860163897,5,3,3,21,10,5,5,3
116860163897,-7,0,-1,-5,-3,-3,-6,-16
116860178970,-16,-2,-3,-17,4,0,3,-44
116860178970,6,-1,-1,20,-11,-1,11,46
116860179515,36,28,3,-8,-1,0,-2,-12
116860179515,-19,-9,-2,-12,-2,-4,7,-24
116860201022,23,1,-1,23,5,12,8,33
116860201022,-1,4,-2,-20,3,-4,-3,-17
116860208903,10,0,0,-24,-4,6,2,15
116860208903,19,6,2,33,2,-3,7,-2
116860215704,-7,3,-3,-9,-7,-8,-5,-13
116860215704,2,5,3,6,6,1,2,-29
116860223910,-16,8,0,-2,-6,0,-4,-4
116860223910,-8,-3,-5,-32,-10,-5,-20,-47
116860246908,-13,-9,-1,14,4,-8,-21,-40
116860246908,1,-3,-1,16,1,4,12,-11
116860247673,15,2,-2,-3,-2,-1,12,39
116860247673,-24,-5,-2,9,1,3,-3,-15
116860261222,12,12,-5,-65,-9,-12,-6,-6
116860261222,-11,-6,1,42,1,-2,-10,-1
116860261871,-58,-21,-2,-23,-5,-3,-11,-47
116860261871,-3,11,5,13,5,6,4,-16
116860284595,-2,-5,-7,-21,-22,-2,-10,32
116860284595,21,10,3,37,16,-3,26,26
116860285247,13,-17,3,47,-1,0,14,43
116860285247,-18,-12,-10,-22,0,8,-6,-11
116860307026,39,5,13,36,8,-12,-8,-10
116860307026,-54,1,-4,-7,-2,0,-20,-37
116860307635,11,3,-6,14,-1,2,4,49
116860307635,39,5,3,-35,-5,1,7,50
116860321293,-11,-7,-2,21,10,11,6,-8
116860321293,0,-6,0,-30,-22,-21,-28,-14
116860322025,5,-8,-11,-7,3,-13,8,-31
116860322025,7,0,-3,-24,2,28,2,20
116860344484,-6,-2,1,51,8,-4,13,12
116860344484,2,0,-7,-55,-13,-15,-9,11
116860345303,-14,-3,1,11,6,-4,-17,-24
116860345303,-5,-6,-4,-2,-13,-17,-3,1
116860367067,-2,-1,-6,-4,2,-13,-31,-64
116860367067,18,3,9,-8,-3,11,52,20
116860367697,-4,6,2,3,24,50,4,-41
116860367697,21,-2,4,23,19,8,-27,6
116860381222,-19,-4,0,2,-6,0,56,29
116860381222,17,-2,-5,-20,-15,-25,-11,-6
116860381944,2,2,1,-11,-19,-14,6,-2
116860381944,-3,0,-5,-3,-5,-8,4,24
116860404332,1,-1,-1,6,6,4,-9,17
116860404332,-18,-8,-2,56,15,7,-17,-70
116860405069,11,0,-2,-26,-13,-7,6,62
116860405069,-15,-6,-8,19,3,-10,-8,-21
116860443266,17,4,-1,-16,-12,18,12,31
116860443266,-16,-6,-6,-22,3,-10,-9,1
116860443975,-23,-18,-2,-4,7,12,-12,-11
116860443975,14,2,2,-11,-24,-20,-7,3
116860445598,2,-1,-4,-19,3,5,18,21
116860445598,-9,-6,-5,18,0,12,-18,5
116860448696,3,0,-3,-1,0,-17,-4,-24
116860448696,6,3,0,-13,-10,-5,4,9
116860464354,19,0,4,34,12,6,-8,-27
116860464354,-54,-5,-4,-12,-2,4,-5,-26
116860465217,-7,3,0,0,-1,-13,7,6
116860465217,-6,1,2,0,-3,9,8,-14
116860494404,6,-2,-8,-20,-8,-7,-29,50
116860494404,20,2,0,-11,0,3,16,20
116860495120,-2,-3,-3,20,4,-1,-5,-30
116860495120,-6,-2,-4,-9,4,3,6,-21
116860501293,-14,5,4,-2,-5,-11,-11,-21
116860501293,13,-17,-8,-10,-3,-1,-9,23
116860501962,2,1,0,-9,-1,11,2,5
116860501962,3,5,-1,12,0,-5,-8,-47
116860523458,8,-3,-3,-7,-4,-9,13,67
116860523458,-31,-2,2,-6,2,10,-4,-24
116860531367,-8,-4,-2,-26,-13,-5,-7,-11
116860531367,-6,4,-4,12,12,-6,-4,-11
116860547346,40,4,3,-3,-13,-6,-12,-21
116860547346,-66,-4,-2,-12,-1,6,12,-48
116860548131,-1,2,1,9,-1,0,-6,-31
116860548131,-8,-1,-2,-17,-3,-2,0,31
116860569450,-8,-3,0,25,2,-2,-1,-38
116860569450,15,3,-2,-3,1,-2,-4,19
116860570317,3,-2,-6,-41,-7,0,7,7
116860570317,-3,-2,5,67,7,-1,5,5
116860584540,-13,-4,-3,-12,5,4,-5,33
116860584540,19,-11,1,2,-6,-2,-5,-30
116860585297,-3,1,-1,-6,-1,-3,-5,3
116860585297,8,-3,-1,-17,-2,-2,0,27
116860606939,-19,-4,1,20,-2,1,21,-38
116860606939,18,9,1,-9,3,3,0,48
116860607867,5,1,1,9,1,-4,-6,-16
116860607867,-7,-13,-3,-4,-4,-1,10,41
116860620568,-17,1,-2,-26,-2,1,-12,-32
116860620568,-2,1,6,39,7,1,6,12
116860636271,0,-4,2,18,8,-3,-1,-11
116860636271,-4,0,-2,-21,-8,2,-3,-25
116860644374,-20,0,0,5,1,-1,-2,-12
116860644374,18,2,-6,-35,-10,0,-2,27
116860645267,12,3,-2,12,-2,-4,-2,20
116860645267,-7,-3,1,15,3,-3,4,-35
116860667102,-11,4,-1,-25,-3,-1,5,-2
116860667102,15,-2,-1,0,-3,-4,-7,1
116860668495,12,-6,2,29,6,2,19,40
116860668495,-15,6,-2,-21,-4,-2,2,-44
116860680644,7,13,2,-13,-6,-1,-4,-65
116860680644,22,-1,-1,19,11,1,8,43
116860689550,-19,-3,-7,-7,-6,-5,-9,-2
116860689550,2,-7,-3,-14,-9,0,-5,12
116860702992,17,-2,2,13,9,-13,-7,40
116860702992,0,6,2,0,5,9,5,-33
116860712042,13,9,-5,-27,-2,6,-2,-61
116860712042,18,0,0,20,-2,1,3,47
116860727086,-23,-27,-6,9,0,17,3,-7
116860727086,-11,0,0,-18,-12,-30,-8,16
116860728457,-6,1,-1,14,4,-11,-15,8
116860728457,3,-7,-1,-10,-1,-4,-1,-6
116860740778,1,-11,-1,27,4,5,3,4
116860740778,6,2,-1,-7,2,18,9,10
116860749562,-12,-6,-4,-5,-2,-7,-3,5
116860749562,8,4,0,-4,-2,-14,-6,4
116860763038,31,4,-9,-9,3,10,0,53
116860763038,-46,-7,-4,10,-10,-12,0,-31
116860771979,-10,0,5,-6,-3,-3,-10,-42
116860771979,5,-3,-5,-1,1,25,14,53
116860786903,-17,3,1,-7,5,-23,2,-15
116860786903,28,0,-1,-5,-6,8,-1,14
116860788482,-1,0,4,24,-1,-7,-7,11
116860788482,-14,-4,-3,-9,-3,0,-4,-14
116860800545,7,-2,-2,0,-11,-4,-37,-7
116860800545,0,7,-1,11,-1,-6,0,-1
116860809528,-5,-2,-3,-16,-11,-1,11,21
116860809528,-3,-1,2,9,4,-7,3,-9
116860823946,6,1,-5,-12,-6,-4,-6,7
116860823946,12,0,-2,-18,0,-3,-11,-2
116860838131,-14,-4,-1,20,2,4,0,-1
116860838131,15,3,3,10,12,1,-7,4
116860847048,-34,-4,0,-9,-6,-1,7,-21
116860847048,-2,5,0,-1,7,3,0,-2
116860848495,6,-2,-1,-7,0,7,3,12
116860848495,-4,0,-4,-6,-3,-6,-8,-1
116860860627,-3,0,0,-2,0,0,1,6
116860860627,-1,-2,-1,2,3,2,1,1
116860869480,3,0,0,-8,-4,1,-5,15
116860869480,-5,-1,-3,-8,-3,-6,-7,-17
116860883879,-4,5,1,4,1,-1,6,-5
116860883879,4,-1,-2,-8,-5,-1,-3,-3
116860890745,16,-3,0,6,3,-2,1,-1
116860890745,-18,0,1,-10,-4,-3,0,-1
116860906971,1,-2,-1,7,3,0,3,-16
116860906971,8,1,0,-10,-1,-2,4,11
116860908441,-1,-2,-3,-6,-3,0,-2,5
116860908441,0,1,-1,-1,-2,-3,0,-4
116860929417,1,0,0,-3,-1,2,-1,1
116860929417,-2,-3,-1,-10,0,-1,-5,4
116860931029,-4,-6,0,14,1,1,-5,-2
116860931029,11,10,0,-12,-6,2,0,4
116860943947,-17,-2,0,3,4,-2,-1,-10
116860943947,2,-2,-3,-1,-8,7,9,3
116860950509,17,3,1,-12,0,-3,-9,6
116860950509,-26,-7,-1,17,8,-6,-4,-20
116860967056,11,-1,2,-5,-4,6,3,6
116860967056,1,1,2,7,3,2,1,-3
116860968513,-21,0,-6,-13,-8,-3,0,10
116860968513,10,-1,2,-6,-3,-2,-4,-1
116860990030,-1,-2,-2,-8,-2,-2,-1,-1
116860990030,-10,-8,-5,-11,-5,-5,-4,-7
116860991456,8,0,0,23,-3,1,1,2
116860991456,2,-3,-2,-12,4,-1,-1,-2
116861003019,-1,0,1,28,0,4,4,7
116861003019,2,0,-1,-16,-2,-2,-2,-3
116861012021,-3,-2,-2,5,0,-1,-3,-6
116861012021,0,-1,1,18,-3,-3,-3,1
116861027043,-2,1,-2,-14,-1,-2,-1,-2
116861027043,0,1,-2,11,0,-10,-5,-3
116861028505,-8,-3,-5,-18,2,11,2,-5
116861028505,-5,-3,-2,6,-3,-9,-3,-2
116861049606,5,1,3,14,-1,-4,0,5
116861049606,-5,-3,1,12,3,2,-2,-6
116861050979,-5,-1,-1,-15,-1,2,0,0
116861050979,3,-1,-3,21,-5,-14,3,-1
116861063227,-1,-3,-3,12,4,9,2,0
116861063227,1,-1,1,8,2,0,-2,-1
116861072048,-4,-2,2,-16,0,-2,1,-5
116861072048,3,-2,-6,-45,-11,6,0,0
116861087049,0,-1,2,17,2,-11,-2,0
116861087049,-2,-5,-2,-8,-7,0,-2,-3
116861088551,0,0,-2,16,-2,-12,-5,-1
116861088551,-1,-1,0,12,4,6,5,3
116861109352,-2,1,-2,-12,-1,1,-4,3
116861109352,2,2,0,-2,1,7,0,7
116861110953,-5,-1,-1,-2,0,-6,-4,-6
116861110953,0,-2,-2,1,-3,11,-3,0
116861123037,5,0,-2,-6,-6,-21,-3,1
116861123037,11,2,-2,3,1,-9,-3,-3
116861132037,-34,-6,-2,7,-1,12,-1,-17
116861132037,54,4,-1,1,2,-2,3,31
116861147103,-45,-6,-2,-5,1,12,0,-21
116861147103,-17,-3,-1,14,-2,-3,-4,-15
116861148500,7,0,-1,8,-2,-6,0,3
116861148500,5,-2,-2,5,-2,-1,-2,1
116861169578,35,3,-1,-7,-3,2,-4,18
116861169578,-5,-5,-4,-4,0,-4,-1,-4
116861171020,1,0,1,-7,0,8,1,4
116861171020,-9,-2,0,1,1,-3,-3,-6
116861183205,14,-1,0,6,-2,-6,4,1
116861183205,-20,-4,-1,-8,-2,-1,-2,-6
116861191982,9,0,-1,0,0,-3,0,1
116861191982,-16,-3,-2,-53,-6,-3,-4,-10
116861207035,3,-3,-1,-6,-2,-3,1,-2
116861207035,8,1,0,-4,4,2,0,2
116861208515,5,1,-4,16,-1,-4,-1,1
116861208515,-9,-1,-2,26,-1,-2,1,-6
116861229342,-11,-1,-3,12,-2,-1,1,0
116861229342,5,0,-2,2,-4,4,-3,6
116861231017,-2,1,1,-13,0,-3,-2,-1
116861231017,-10,-1,8,18,10,4,1,-7
116861243043,-3,-3,-15,-69,-15,-6,-4,-3
116861243043,-1,0,5,-10,3,-2,3,-2
116861252022,3,-3,-8,-30,-10,-5,0,-4
116861252022,-4,0,3,43,6,3,1,-4
116861267058,-10,-5,-4,-4,-3,0,-1,3
116861267058,3,-1,-4,-29,-6,-3,0,5
116861268463,-1,-1,2,11,4,0,-2,-5
116861268463,-6,-1,1,-31,-6,-7,2,0
116861289455,-2,-3,-3,-8,3,6,0,1
116861289455,0,-2,-4,14,0,0,-12,-10
116861291003,1,3,4,13,0,1,2,13
116861291003,-3,-7,-3,-9,-4,0,0,2
116861303189,4,1,7,17,7,1,1,-1
116861303189,2,-1,-4,5,-1,-2,0,-2
116861311995,4,2,-4,-37,-1,-1,-3,2
116861311995,-6,-3,-3,-16,-5,-4,-7,-9
116861326878,31,1,-2,-20,-1,0,2,-3
116861326878,-9,10,1,35,-3,0,3,5
116861328452,-3,0,0,5,-2,-2,-1,-4
116861328452,-7,2,4,14,0,0,1,0
116861349393,-1,1,4,16,-1,-3,6,-2
116861349393,2,-3,-3,-22,-3,-6,5,0
116861350961,-2,-5,-4,11,-3,-1,-1,-2
116861350961,17,16,-7,-9,-2,-1,-3,9
116861362976,-19,-18,-2,29,1,1,-9,-8
116861362976,-2,-5,-3,-12,-4,-1,-1,2
116861372034,-4,-4,-3,-7,0,0,0,2
116861372034,5,-2,1,-10,-2,0,-9,-11
116861386816,1,6,3,20,2,-3,-1,15
116861386816,5,-2,1,-8,-2,-4,-4,7
116861388454,-5,-5,3,5,2,-3,-4,-1
116861388454,-7,-1,3,52,3,-2,1,-12
116861409307,-7,-5,-10,-32,-11,-3,-4,3
116861409307,-6,-1,0,-4,3,-2,0,6
116861410855,4,3,3,7,3,-1,-2,-8
116861410855,15,0,-4,2,-3,-5,-2,-9
116861422949,-11,7,7,11,3,0,5,-8
116861422949,15,-5,1,7,0,-2,2,-7
116861431969,3,3,1,7,-4,-1,0,-2
116861431969,-5,-10,-4,-17,-1,1,-2,2
116861446260,0,16,-3,-15,-3,-2,-7,-4
116861446260,-5,0,-3,-6,-3,1,-3,-1
116861453036,-7,-2,-2,2,0,-3,-2,-1
116861453036,12,1,-1,-20,-3,-2,-1,2
116861469321,-13,0,0,-3,1,0,-1,-1
116861469321,-11,-1,-2,2,0,0,-1,-4
116861470978,0,-4,-5,7,-1,-1,-1,2
116861470978,-8,1,-4,0,-1,2,1,5
116861482960,10,-5,-2,-2,-4,-3,-4,-4
116861482960,6,12,-5,-21,-1,0,-3,-4
116861491931,6,-2,-6,-8,-6,-2,-2,-1
116861491931,-24,-15,-2,21,2,-1,-2,1
116861506817,-1,-7,0,-27,-1,0,-2,-2
116861506817,0,-5,-4,-7,-10,-2,-2,-6
116861508420,-3,-4,-1,-4,1,0,2,3
116861508420,-19,-4,-1,-1,0,2,-1,-2
116861529432,5,6,5,17,6,1,0,-1
116861529432,12,-6,3,4,-5,-4,-4,2
116861531004,11,15,2,-8,0,0,-1,0
116861531004,5,2,4,-2,1,0,-1,-3
116861542985,-18,-28,-7,7,-3,-3,-1,-4
116861542985,-1,-5,-3,-7,0,-2,1,-3
116861551983,1,0,0,-12,-5,-1,0,4
116861551983,-5,-3,-1,5,2,-3,0,-2
116861566785,-4,5,0,-25,-3,-2,-1,-3
116861566785,-8,-4,-1,-8,2,-1,-2,-5
116861568427,4,-1,-3,17,-1,-3,-4,-13
116861568427,-14,3,-1,-6,0,-1,-1,3
116861589344,-1,-4,1,8,0,1,-1,-1
116861589344,-7,-6,2,8,1,0,3,7
116861590893,8,11,4,-2,4,2,1,-3
116861590893,6,-1,-4,-18,-9,-2,3,-1
116861602972,2,1,-4,20,3,0,-1,2
116861602972,8,2,-1,-2,-1,0,-3,-5
116861611999,-5,-19,-5,0,-2,-1,2,3
116861611999,9,3,-1,7,3,0,-3,-3
116861626215,-1,-1,1,-3,-1,-2,-3,-2
116861626215,-5,4,2,10,1,0,1,0
116861633002,-4,-8,-3,-1,-3,0,1,1
116861633002,-1,-3,-2,-9,-2,0,0,-4
116861649331,3,-1,-3,2,-2,-2,1,-5
116861649331,-6,-2,-1,1,1,0,-4,-3
116861650958,1,-3,2,3,0,-2,-3,4
116861650958,-2,0,-3,-6,-1,-1,1,1
116861671807,9,6,-2,-4,-1,0,0,-5
116861671807,-14,-1,0,13,1,1,1,13
116861673420,-6,-7,-1,-8,-4,-2,2,-25
116861673420,4,2,-3,-6,-2,-2,-5,-2
116861686143,3,17,-2,-3,-2,1,2,-2
116861686143,1,9,0,-1,-3,-1,2,1
116861692983,-3,6,-4,-1,0,-2,-2,-10
116861692983,-8,-2,2,-6,-3,-3,1,-3
116861709337,-2,-3,-2,6,-1,-3,-1,12
116861709337,-9,-8,-4,1,-3,-2,-4,-44
116861710969,-15,-5,-3,-4,-2,-3,-5,3
116861710969,-1,4,0,0,0,0,-2,-4
116861722948,-17,-7,-1,-4,-2,-3,-6,-2
116861722948,3,-4,-1,2,-2,-3,-1,11
116861731974,2,-2,-1,2,2,0,3,9
116861731974,6,-1,4,-3,-1,-1,0,-3
116861746234,8,-1,2,-4,-2,-1,-2,3
116861746234,-10,-5,-4,-6,-1,-2,-4,5
116861752939,2,2,0,-1,-1,-2,1,-4
116861752939,-2,-2,-2,-5,-1,0,-1,6
116861769296,-1,-12,-1,-12,0,0,0,-5
116861769296,1,-2,0,-2,1,-1,-2,-7
116861770925,1,-4,-2,-2,-2,-1,-1,14
116861770925,4,-3,-1,-1,-2,-2,0,14
116861782992,1,0,-1,4,0,-3,0,-33
116861782992,-2,-1,2,0,-3,1,2,0
116861791948,3,-4,-5,-4,-5,-3,-5,4
116861791948,6,-5,-3,5,-1,0,-4,-7
116861806201,-11,-5,-5,3,-2,-2,2,12
116861806201,9,12,4,1,-1,-1,0,4
116861820477,-5,0,0,0,-2,-2,-5,-6
116861820477,-2,-3,-3,-2,-1,1,-4,0
116861829348,8,5,0,-3,-1,1,0,1
116861829348,1,-7,-4,-1,-1,1,0,2
116861830943,1,3,2,1,2,-1,1,8
116861830943,-3,5,-4,-6,-3,-2,3,-7
116861851823,0,3,2,4,0,-1,1,1
116861851823,5,17,3,3,0,-2,-1,4
116861853408,0,1,2,-5,-1,1,-1,-6
116861853408,3,-6,-2,-4,-1,-2,-2,3
116861866188,-4,14,0,-5,0,-1,-1,0
116861866188,10,2,2,-1,0,-2,-1,8
116861880491,-18,-6,-4,-3,-1,0,-1,3
116861880491,0,-4,0,-2,-1,0,-1,-3
116861889296,-7,-10,0,-9,-5,-1,-2,-1
116861889296,10,-2,3,-6,0,-2,-1,0
116861890809,4,1,0,-3,2,-1,-1,-2
116861890809,-1,5,-1,-14,-2,-2,-1,-1
116861911830,-10,-9,-3,11,4,0,-3,-3
116861911830,-7,-7,-2,-18,-6,0,-2,-4
116861913454,-1,-4,2,0,-1,-1,0,-4
116861913454,7,16,1,6,1,-7,1,3
116861926834,-3,-7,-1,-1,-2,-8,-2,2
116861926834,2,7,-4,9,2,-2,-1,9
116861928442,3,3,-4,-11,-2,6,3,-30
116861928442,-6,12,0,4,2,10,-1,-2
116861949308,13,-13,-1,11,-3,6,-2,5
116861949308,4,-13,-6,-27,-2,0,-2,0
116861950854,10,7,4,11,1,0,-1,1
116861950854,1,-3,-1,2,-1,-4,2,12
116861971838,-9,0,1,-1,0,-1,-1,-7
116861971838,-3,-7,-4,17,-2,-5,-2,-5
116861973478,-4,-8,-2,-1,-2,-5,-1,2
116861973478,-13,-11,-1,-3,-3,-2,-2,-1
116861986197,6,3,-1,9,-1,-3,-2,4
116861986197,-5,-17,-3,3,0,-5,-2,-3
116861992938,-4,6,-1,-9,0,-3,-3,5
116861992938,2,-1,1,5,-2,-5,-2,-5
116862009324,-6,-5,-1,-9,-2,0,0,3
116862009324,-1,10,0,6,-2,2,-2,15
116862010823,-1,-4,0,2,-1,1,-1,-9
116862010823,-2,-7,-2,-11,-1,1,0,-6
116862031848,-14,-3,-4,-3,-4,0,1,-7
116862031848,-22,-11,-5,1,-4,1,-3,-9
116862033448,6,2,1,6,0,1,-1,16
116862033448,-5,-7,-6,2,-3,-2,-4,-6
116862046215,5,1,0,-3,-1,-2,-1,5
116862046215,2,-2,0,8,-1,-2,5,-9
116862052966,-7,-9,-5,-7,-4,-3,-2,5
116862052966,-2,-4,0,0,-2,-1,0,-2
116862069079,3,2,0,-2,0,-2,-2,0
116862069079,0,-4,-1,2,2,1,-1,-5
116862082989,1,-1,-1,-3,-1,-3,0,-3
116862082989,-3,-6,-2,-16,-4,-2,-1,-7
116862099344,2,0,-2,6,0,0,-2,5
116862099344,1,2,-5,1,-5,-3,-1,0
116862100959,-2,0,-3,1,0,0,-1,5
116862100959,-5,-2,2,4,1,0,-1,-5
116862106381,0,0,1,-3,-1,0,1,-2
116862106381,-5,-1,1,-1,1,-1,-2,13
116862113153,-8,1,0,4,-1,1,2,-9
116862113153,8,-1,0,1,-2,-2,0,0
116862129425,-10,3,0,1,-1,0,-5,-15
116862129425,4,10,-1,4,0,0,-5,2
116862130998,-3,-10,-6,-19,-6,-4,-1,1
116862130998,-4,-2,-2,2,-1,0,2,2
116862151952,-4,0,-1,2,1,-2,1,3
116862151952,-6,-1,-1,-8,-5,-2,-1,-13
116862153487,4,3,0,12,2,-2,1,2
116862153487,4,2,-1,4,1,-2,-2,-3
116862166253,2,-10,-4,-1,-2,-2,-3,3
116862166253,6,-3,1,1,3,-1,1,-4
116862173117,19,2,1,15,-2,-3,0,-1
116862173117,8,0,5,2,-1,-1,0,43
116862189354,3,4,0,2,0,0,0,-20
116862189354,-1,-4,-4,-3,-1,1,0,-4
116862190884,-8,7,-2,-1,-2,-2,-4,5
116862190884,-7,16,0,7,0,-2,-3,-11
116862211888,4,2,0,-8,-2,-2,-2,17
116862211888,1,-3,-2,3,2,0,0,-4
116862213489,-3,-1,-2,-10,-2,-2,2,-4
116862213489,-7,-4,-4,2,-2,0,3,-11
116862226443,-6,-1,-3,-5,0,0,2,-5
116862226443,-3,-2,0,-6,-3,0,-2,-5
116862233118,-2,2,-2,-2,0,1,-3,2
116862233118,2,-6,1,22,3,1,-3,-1
116862249395,6,-4,-3,-43,-6,-1,-1,7
116862249395,-1,-3,2,1,1,-1,-1,2
116862250995,2,4,-1,-20,-3,-1,-2,-4
116862250995,2,-7,2,9,1,-1,-1,-8
116862272080,-22,-12,-3,8,-2,-3,-5,-6
116862272080,-8,3,4,0,1,0,-4,-12
116862273504,-3,-2,-2,-2,-3,-3,-3,-3
116862273504,-11,-5,-3,-13,0,-3,-3,-9
116862286251,-3,4,0,11,-1,-2,1,-4
116862286251,-3,0,-3,-11,-3,-1,1,3
116862293017,1,-3,-2,3,-2,-1,0,1
116862293017,1,-1,-4,-12,0,0,0,1
116862309582,-14,17,-1,9,1,-1,-1,-3
116862309582,18,-4,2,12,0,0,3,5
116862310963,-1,-14,3,0,2,1,-1,1
116862310963,1,-3,-4,-8,-4,0,-1,-3
116862331853,10,8,2,-1,1,-1,2,1
116862331853,-8,-13,-3,-2,-2,-4,1,-5
116862333391,-15,-3,0,10,1,2,0,-3
116862333391,-6,1,-2,-13,-4,-1,-3,-6
116862345498,8,-3,2,4,0,1,-2,-1
116862345498,-12,-13,-5,-4,-2,-2,-4,-3
116862354487,-4,-1,-3,2,-1,-1,-4,33
116862354487,-1,-12,-1,0,1,1,2,-13
116862376820,-2,-26,-4,3,-1,-1,1,3
116862376820,-15,-17,-7,-10,-3,-4,-1,2
116862378408,37,17,0,0,-1,-2,-1,-1
116862378408,8,10,-8,-5,-3,-5,-3,-5
116862391768,-11,-27,6,0,0,-2,-2,-6
116862391768,0,12,7,4,1,-1,1,-38
116862393442,-14,-23,-6,-11,-5,-1,3,25
116862393442,-23,0,-4,2,-3,-5,-3,-1
116862414286,0,-4,-4,-1,0,1,-1,-7
116862414286,13,5,2,3,0,-1,-3,7
116862415920,-7,3,2,-1,0,0,-3,-14
116862415920,0,-1,3,-1,0,0,-1,-2
116862429323,-15,1,-6,-6,-2,-3,-2,3
116862429323,-1,5,1,2,1,2,1,7
116862430984,-2,2,-1,-21,-3,0,0,-13
116862430984,2,-3,1,-6,1,1,0,12
116862451762,1,9,-1,1,0,-2,-1,-7
116862451762,9,-25,-4,0,0,-1,2,2
116862453440,-12,4,3,6,-2,-1,0,-9
116862453440,-11,-9,-3,3,-1,-1,-3,-14
116862465444,2,-2,-2,-3,-2,0,-2,14
116862465444,16,22,0,-1,1,0,0,4
116862474487,-4,-29,-6,2,-1,-2,-2,-11
116862474487,12,-9,-3,-5,-1,-1,-3,10
116862489316,10,17,2,5,-1,-2,-3,-3
116862489316,5,1,1,-1,-1,1,0,9
116862490913,-10,3,-1,2,1,1,-1,-18
116862490913,8,11,3,-3,-1,-1,1,3
116862511779,4,1,0,-1,-1,-2,2,-2
116862511779,-28,-12,-6,-5,-3,-4,-4,-11
116862513406,-10,-18,-3,-2,-3,-3,-3,-1
116862513406,-8,1,-1,-2,-2,-3,-1,-34
116862525445,-3,-3,0,-5,-1,0,-1,-6
116862525445,5,1,-2,-3,-1,0,-3,7
116862534444,9,10,1,1,2,-1,-2,-1
116862534444,-5,-7,-4,10,-3,-3,-1,15
116862549273,0,-6,-9,-3,-2,-3,-1,-1
116862549273,-9,10,-2,-3,-3,-2,-4,-5
116862550883,-6,3,-2,5,1,-2,-3,2
116862550883,-6,12,2,5,4,1,3,1
116862571798,10,-16,-4,-1,-6,-4,2,2
116862571798,-5,-1,-2,-2,-1,-2,0,9
116862573448,3,5,0,-2,0,0,-3,-4
116862573448,5,-7,-1,-5,-2,0,-5,11
116862585495,-7,13,4,3,0,0,-2,-4
116862585495,10,9,-1,-5,-1,-2,-1,0
116862594442,-14,-11,-4,3,-3,-1,-3,-10
116862594442,14,7,3,-3,-1,-4,-1,7
116862609265,5,2,-2,2,0,-4,0,1
116862609265,1,-1,-1,2,-3,-5,2,-3
116862610845,1,3,0,-1,0,-1,2,7
116862610845,-5,-10,-5,-6,-2,-1,-2,1
116862631838,5,7,-1,3,1,1,-2,-3
116862631838,-17,-5,-1,3,-1,1,-4,4
116862633432,10,10,3,5,2,1,-1,-3
116862633432,-20,-2,-5,-2,-2,1,-1,-2
116862654337,-7,-44,-4,-4,0,0,-2,-13
116862654337,-1,1,-2,-3,2,1,-2,10
116862655889,0,4,-1,2,-5,-3,-1,-4
116862655889,2,-6,-4,-6,-2,-2,-1,0
116862669267,-9,1,-1,-1,0,1,-2,-4
116862669267,12,15,0,3,-1,0,1,4
116862670895,1,-4,0,-4,0,0,0,0
116862670895,4,0,3,-3,0,-1,3,-2
116862691810,-1,12,-5,-1,-2,-1,0,4
116862691810,-2,-1,-1,-4,0,-1,-1,-6
116862693404,-6,2,-1,-1,-3,-1,-4,-2
116862693404,0,3,-1,5,1,1,-1,8
116862705461,1,7,1,-2,-1,1,-1,3
116862705461,0,-2,0,2,-1,1,0,-5
116862714465,0,2,-2,-3,-2,-2,2,-2
116862714465,1,0,-2,0,0,-4,-1,28
116862729266,-1,-16,-2,-3,-2,-1,1,-14
116862729266,11,-18,-2,-4,0,-2,1,5
116862730847,0,1,1,3,0,0,-2,-2
116862730847,16,-11,-3,-4,-3,1,-3,2
116862751872,3,8,0,-6,-2,3,-2,1
116862751872,-14,-3,-2,0,-3,-2,-3,-12
116862753506,1,11,0,-4,-1,-1,-1,6
116862753506,-4,-2,3,3,0,-2,0,-11
116862765418,10,13,-3,0,-2,-2,1,4
116862765418,-4,2,2,1,-2,0,-1,-5
116862781992,1,-24,-4,-2,-2,-1,-3,-18
116862781992,-3,4,-2,-4,-2,-2,-2,-7
116862789297,-3,2,2,0,0,-3,-2,3
116862789297,-19,-6,-4,-5,-2,-1,1,1
116862790975,7,5,2,2,2,-2,2,2
116862790975,-6,2,-1,1,-1,0,0,-2
116862811904,-4,-1,0,-3,0,-2,0,-6
116862811904,4,-2,-2,4,-2,-2,0,2
116862813497,1,3,0,-2,0,1,0,4
116862813497,-1,-3,-1,1,-2,-2,-4,-9
116862834402,0,9,0,0,-2,-1,-3,4
116862834402,3,2,1,-3,-1,-2,-3,0
116862835934,-12,1,-5,-2,0,-3,-2,-6
116862835934,6,-2,1,-2,-1,-1,0,1
116862849273,-5,1,-3,-8,-5,-2,-1,0
116862849273,5,1,0,1,0,1,-1,-4
116862850956,2,-4,0,-4,-1,-1,-1,2
116862850956,12,-4,-4,-5,-1,-2,-1,-5
116862871838,1,7,3,1,-1,-1,0,3
116862871838,-2,7,-2,-2,0,-1,0,15
116862873430,-3,-12,-1,0,-3,-1,1,-23
116862873430,0,3,-2,-1,-2,-1,0,-2
116862894320,2,-1,1,3,-2,0,-1,6
116862894320,0,3,-1,-3,-2,-1,-4,-1
116862895922,-6,0,-4,0,-2,-1,-6,-1
116862895922,-5,2,1,4,1,-1,0,-4
116862909278,7,-5,-2,-3,-1,-3,2,-5
116862909278,-6,-1,3,-4,-2,-2,0,-1
116862910817,10,4,0,0,-1,0,-2,4
116862910817,-6,-4,1,-3,-3,-1,-3,-6
116862932311,6,0,-3,-1,0,-1,-5,-3
116862932311,-1,-3,-1,1,1,1,-1,-2
116862933860,-3,3,-1,0,-1,-1,1,6
116862933860,-18,-7,-6,-3,0,-1,-1,-29
116862954329,0,7,1,4,0,-1,1,-1
116862954329,-18,-13,-5,-3,-2,-3,-2,-8
116862955854,10,2,-1,-1,-2,0,3,7
116862955854,-1,2,0,-2,1,0,-1,11
116862968592,10,-8,-3,-3,-2,-2,-1,0
116862968592,4,10,1,-1,0,-1,-2,-9
116862975444,-9,0,-3,-3,-1,-3,-4,6
116862975444,-1,-4,-4,-3,-3,-1,2,0
116862991856,-3,-1,0,3,-2,-1,-2,-2
116862991856,9,2,-2,-2,-2,-1,-2,1
116862993451,0,-4,3,1,-1,0,-2,-1
116862993451,4,2,-2,0,-3,-3,0,2
116863014331,-8,-3,0,-2,0,-2,-1,-8
116863014331,5,-7,-4,1,0,-2,2,9
116863015878,1,-4,0,-4,-2,-3,-1,-5
116863015878,-13,-5,-3,-2,-2,-3,-6,-21
116863027965,1,2,0,-2,-2,-1,-2,7
116863027965,4,-4,-2,0,-1,-1,0,-6
116863036973,3,1,0,-3,-2,1,2,-2
116863036973,-6,-7,-2,0,-1,0,0,9
116863051766,-1,0,-2,-3,-1,-1,-1,2
116863051766,8,-15,-2,-2,-2,-1,-1,-5
116863053427,-9,-3,-3,-2,-2,-3,0,5
116863053427,-12,-1,-1,0,-1,-3,-4,-2
116863074298,-5,-1,1,2,1,1,-2,-4
116863074298,1,4,-4,-3,-3,-2,-1,2
116863075929,-2,1,0,0,0,-1,-1,0
116863075929,2,-4,-2,-3,-1,0,1,4
116863087934,-11,8,-2,-1,0,-1,0,-7
116863087934,-28,-20,-3,-2,0,-2,-1,-17
116863096937,-1,-1,0,0,0,-1,-2,-5
116863096937,8,7,0,0,0,-3,0,3
116863111857,-4,-9,-1,1,-1,-3,-2,-6
116863111857,-2,7,2,2,-1,-2,0,5
116863113450,-3,3,-4,-1,0,1,2,-1
116863113450,8,-10,2,1,1,2,-1,5
116863134332,5,-1,-3,-1,-3,0,-3,6
116863134332,-1,2,-2,-4,-1,-2,-2,-1
116863135937,-5,0,-1,-2,-1,-2,-1,-3
116863135937,-1,8,0,-1,-1,-3,-2,4
116863147915,-2,-4,-3,-3,-1,-2,2,-1
116863147915,1,3,1,0,0,-1,0,-1
116863156986,-10,-1,-3,0,-1,0,-4,-36
116863156986,-7,1,2,2,-3,0,-3,-5
116863171830,-6,-4,-4,-2,-3,-2,-2,3
116863171830,4,5,-2,-1,-2,0,0,1
116863173434,2,-4,-2,0,1,-2,-2,14
116863173434,1,-2,0,-6,-1,-2,-2,-3
116863194297,-6,-2,2,-2,3,1,-1,-10
116863194297,16,2,0,-5,-1,-2,-2,4
116863195855,-9,3,-6,2,-2,-2,1,5
116863195855,5,2,2,0,0,-2,-1,0
116863208718,-1,-1,-3,-3,-3,-1,-4,3
116863208718,-4,3,2,1,1,0,0,-4
116863215458,2,-1,-1,-1,-2,0,-2,5
116863215458,-2,1,1,2,-1,1,1,-2
116863231863,1,-8,-5,-4,-4,-2,-1,-25
116863231863,-3,7,-1,-1,-1,-2,0,6
116863233445,4,-2,0,-1,0,-2,1,1
116863233445,-4,2,-1,-3,-1,-1,-1,-4
116863254342,-2,-7,1,0,-2,-1,-3,7
116863254342,-5,-1,-4,-1,0,2,-2,-4
116863255849,-3,-5,2,3,0,-1,-1,-6
116863255849,5,4,-2,-24,-3,-1,-2,5
116863268641,1,8,1,0,2,-2,1,4
116863268641,2,8,-3,-1,-3,-3,0,-4
116863275461,18,0,2,1,-1,1,2,8
116863275461,-12,-4,0,5,1,1,2,0
116863292452,0,3,-2,-2,-1,0,0,2
116863292452,-8,-2,-4,-3,-2,0,-3,-8
116863297947,-1,-3,-1,-3,-3,-2,-2,0
116863297947,0,-4,-1,4,0,-3,-2,-2
116863314423,5,6,4,0,0,0,1,2
116863314423,6,-7,1,1,-1,-1,-1,30
116863316149,0,0,-2,-7,-3,-1,0,-19
116863316149,7,-4,-1,-1,-2,-1,0,3
116863327956,-3,-6,-3,0,-1,-3,-2,3
116863327956,-1,-2,0,2,1,2,-2,-3
116863337057,-4,-1,-2,-6,0,0,-1,7
116863337057,-4,2,0,0,0,-2,0,-7
116863351955,1,-3,1,0,0,-2,-1,-1
116863351955,-10,-18,-4,3,-1,-3,-2,-8
116863353464,-7,-5,-2,0,0,-1,-2,-1
116863353464,1,9,-3,3,-1,1,-1,-1
116863374465,10,6,2,1,-1,2,-2,4
116863374465,-1,-1,-1,-2,0,0,0,-7
116863375966,-7,-4,-2,-1,-2,-2,-2,3
116863375966,-12,-3,-2,-1,-2,-3,-2,-2
116863388014,-6,-1,-1,3,-1,0,1,1
116863388014,-3,2,-2,-3,-2,1,-1,-6
116863396999,2,-1,-1,-3,0,-1,-3,1
116863396999,2,-2,-3,1,-1,0,-1,-2
116863411880,-3,-1,-2,-1,-2,-1,1,0
116863411880,2,-2,1,-2,0,-1,1,-6
116863413531,-4,-4,-1,3,0,-1,-1,2
116863413531,1,-6,0,0,-1,-3,-2,2
116863434601,-3,-1,-1,1,-1,0,-2,0
116863434601,0,1,-2,-6,0,-1,0,-2
116863435895,0,3,-2,-1,-1,-3,-1,0
116863435895,0,-1,-1,2,0,-1,0,0
116863448101,2,-5,-1,-2,-1,0,-2,3
116863448101,-16,0,0,0,-1,-2,-1,-7
116863456959,4,16,3,-1,-1,0,0,0
116863456959,5,-11,-1,1,1,0,0,1
116863471844,-5,-6,-4,-6,-2,-3,-1,1
116863471844,3,5,-1,4,0,2,0,-9
116863473477,-1,-2,-3,0,0,-1,0,7
116863473477,-6,2,3,-2,0,1,-3,-8
116863494305,5,-2,-3,-3,-5,-2,0,3
116863494305,-2,-3,-1,1,0,-2,0,-1
116863495896,0,-6,-4,-1,-1,-1,-1,-4
116863495896,2,1,0,4,1,-1,-2,5
116863507983,-1,-2,0,0,1,1,-4,-5
116863507983,0,0,-1,-3,0,-2,-1,0
116863516907,-1,-5,-4,-3,-3,0,0,-1
116863516907,2,-3,-2,-1,-1,-1,1,1
116863531765,-16,0,-4,-1,-2,1,-2,-7
116863531765,3,-3,0,-1,-1,-1,-3,0
116863533423,-3,-4,2,-1,-1,-1,-5,-3
116863533423,2,-3,1,-2,-2,-1,0,-1
116863554324,2,1,-1,0,-1,-2,2,-1
116863554324,3,0,-2,-1,-1,-1,-2,1
116863555902,-7,-7,-4,-3,0,-2,-2,-2
116863555902,-6,-1,-5,-2,-2,-3,-1,-3
116863567918,-9,-23,-2,-3,-3,-3,-4,-33
116863567918,-7,-1,-1,-1,-3,-2,-1,-11
116863577044,6,2,0,-3,0,-1,0,-6
116863577044,-12,-1,-7,-5,-5,-2,3,12
116863591827,5,6,3,1,3,-1,-1,12
116863591827,3,-2,-4,0,-1,0,-1,-2
116863593417,-3,-6,-1,1,0,-1,-4,-6
116863593417,1,6,0,-2,0,0,-5,-1
116863613377,-1,4,-3,-5,-2,1,2,2
116863613377,-2,-1,-2,-1,-1,0,-2,1
116863621947,-7,5,-2,-1,-1,-1,1,12
116863621947,3,-4,-1,1,-1,-1,-1,-3
116863627941,5,2,-1,0,0,-2,1,3
116863627941,0,-2,-1,-1,-1,-1,-1,-5
116863637022,4,-1,-2,-1,-1,0,1,2
116863637022,1,-2,1,2,0,0,-1,-4
116863652003,-8,0,-2,-1,-2,-2,-2,-3
116863652003,3,4,0,-2,-1,-2,2,6
116863653444,-2,-5,1,0,1,0,0,-3
116863653444,-3,-2,0,-4,-2,-2,-2,6
116863674416,4,4,1,2,1,-1,-2,-2
116863674416,4,-4,0,-1,0,-3,-1,-5
116863676045,-10,-1,-4,-3,-3,-2,-1,8
116863676045,15,7,1,0,0,0,0,-2
116863688100,-1,5,1,0,0,-2,0,5
116863688100,2,0,2,-2,-1,0,-4,3
116863697001,3,-4,-1,0,-1,-2,-2,-3
116863697001,-1,-3,-3,-3,-3,-2,0,0
116863712052,0,0,-1,-2,0,1,-1,3
116863712052,-5,-2,-1,-1,-2,0,-2,0
116863713461,7,7,1,0,0,0,-2,-4
116863713461,-4,-4,1,1,-1,-1,-1,-2
116863734361,2,0,-2,1,-1,0,-2,-6
116863734361,-1,-3,-3,0,0,-1,2,6
116863736012,-2,-4,-1,-2,-2,-2,1,-1
116863736012,-1,0,-3,-1,1,-2,-1,-6
116863764378,-11,-6,-3,-2,-3,-2,-1,30
116863764378,-5,-1,3,2,0,1,-1,-24
116863765839,7,-1,-1,0,0,-2,-1,9
116863765839,-2,-1,-1,-3,-2,-1,-1,-1
116863772024,2,-1,-2,-1,-1,0,-1,0
116863772024,-2,-2,-1,-4,-2,-2,-2,6
116863773459,-4,-2,-1,-1,-2,-1,0,-10
116863773459,6,-2,-1,0,-2,0,-2,-10
116863794471,-2,12,2,-1,0,1,1,-3
116863794471,-1,-10,-8,-3,-2,-2,-2,6
116863795977,-6,4,4,0,0,2,-2,-7
116863795977,-1,0,-5,-3,0,-2,-1,0
116863817013,2,0,-3,-2,-2,-2,-1,-6
116863817013,-7,1,-4,-2,-2,-2,-3,28
116863818469,0,-3,-1,-1,-1,-2,-2,-8
116863818469,-1,-1,-1,0,-1,1,-2,-3
116863831785,-2,-2,0,-1,-1,-1,-1,-12
116863831785,6,-2,0,-1,-2,-1,1,2
116863833403,0,13,-1,0,-2,0,-1,1
116863833403,-3,-4,-1,1,0,0,0,1
116863854420,6,-4,-2,0,0,-1,-1,2
116863854420,-4,-1,-1,-1,-3,0,-2,-10
116863855963,11,3,-1,-2,-2,-1,-2,10
116863855963,-2,0,1,0,-2,-2,0,-5
116863877065,7,-5,-3,-1,-2,-1,1,1
116863877065,-6,4,1,0,0,-1,1,-4
116863878465,0,-7,2,-1,0,-1,0,-5
116863878465,0,2,-5,-1,0,0,0,1
116863891350,-4,-6,0,-2,-3,-2,-4,0
116863891350,-1,2,0,0,0,0,-1,-9
116863898261,0,10,-2,-1,-1,-2,-1,2
116863898261,-7,-10,-2,-1,-1,-1,-1,-9
116863914619,-4,1,-1,-1,0,0,-2,-8
116863914619,1,-1,-2,-2,0,0,0,-5
116863915995,-5,-4,-1,-1,-2,-2,-2,-8
116863915995,5,-1,-2,-1,0,-1,-1,14
116863936861,-2,-2,0,-1,0,0,-1,-3
116863936861,-2,-3,-1,-1,-3,-3,-2,5
116863938421,-5,-8,-3,-1,0,1,1,1
116863938421,-5,-1,-1,-4,-1,-1,0,-3
116863951410,6,-1,-1,-2,-2,-2,0,-2
116863951410,13,2,-1,0,1,0,-1,3
116863958050,-7,-4,-3,-3,-1,-1,-1,2
116863958050,0,2,1,-1,-2,0,-2,-1
116863974588,-1,1,1,-2,-1,-2,-1,-7
116863974588,-1,2,-1,-2,-1,-2,-3,-33
116863975913,-20,-13,-4,-2,-2,-3,-3,-5
116863975913,0,6,1,0,0,1,-1,-3
116863997067,-3,-6,-4,-1,-1,-1,0,3
116863997067,1,1,-2,0,-1,-1,-2,12
116863998555,1,-4,-3,-1,0,1,-3,1
116863998555,-3,0,0,0,-1,-2,-2,-8
116864011467,-6,-2,0,-3,-2,-2,-2,-1
116864011467,3,-4,-2,-1,-2,0,0,4
116864018210,6,0,1,-2,-1,0,1,1
116864018210,-2,-3,-1,0,-2,-1,-3,-1
116864034323,1,0,-4,0,0,-1,-1,2
116864034323,-6,-3,-1,-1,-1,0,0,0
116864040551,2,-2,-5,0,-2,-1,-3,-2
116864040551,-1,-1,-2,-1,-1,-1,-1,0
116864056919,-5,-1,2,1,0,0,-1,0
116864056919,-4,-1,-3,-1,-2,-2,-2,0
116864058434,0,0,1,-2,-3,-2,-1,-2
116864058434,-4,-3,-3,-4,-5,-1,-1,-2
116864071300,-2,-3,-3,-1,-1,-2,-1,-3
116864071300,-1,1,0,0,1,-1,-2,3
116864078008,1,-2,-1,-2,0,-1,-1,-29
116864078008,2,13,2,-3,-1,-1,-1,0
116864094370,7,-4,-3,-2,-2,-1,0,4
116864094370,-3,1,2,-2,-1,1,0,-2
116864095948,-11,-3,0,0,-2,-2,-2,4
116864095948,6,6,1,0,0,0,1,8
116864117014,0,0,-1,-4,0,-3,-2,-10
116864117014,-2,-1,-3,-1,-1,-3,0,3
116864118498,-1,2,1,-1,-2,-1,1,1
116864118498,-5,-8,-2,1,-2,-3,-1,-1
116864131306,-3,-2,0,-1,-2,0,-1,2
116864131306,0,-4,0,0,-1,-2,-2,1
116864137962,0,0,-1,-2,0,-1,0,3
116864137962,-1,-2,-1,0,0,0,-1,-1
116864154419,-3,0,-3,4,-2,-2,-4,-1
116864154419,-2,1,-1,-8,-2,-1,-2,-2
116864155923,4,1,-2,-1,0,-3,-2,-1
116864155923,-4,-2,-2,-2,-2,-1,-2,-3
116864177154,1,-1,1,1,-1,-1,1,11
116864177154,-1,-2,-1,2,0,-1,1,-19
116864178465,-2,1,1,-1,-2,-2,-2,6
116864178465,0,-5,-2,-1,-4,-1,-1,-1
116864191311,-5,1,1,0,0,1,-1,-1
116864191311,-4,-1,-1,0,-2,0,-1,5
116864198066,2,0,2,2,0,1,-1,3
116864198066,-1,-2,-4,-2,2,-2,-3,-6
116864214409,-6,-1,-5,-8,-5,-1,-3,-4
116864214409,-3,-2,-1,0,0,-2,-2,-4
116864215995,-1,-2,-5,1,-2,-1,-1,-3
116864215995,-3,-2,1,-8,-3,1,1,4
116864237077,1,0,0,0,1,0,0,-5
116864237077,0,-4,-4,-2,-3,-3,0,4
116864238488,3,0,-4,-8,-1,-1,1,5
116864238488,2,-4,-3,4,1,-3,0,-2
116864250567,0,-3,-4,1,0,-3,-1,-3
116864250567,1,-1,0,1,1,0,0,-1
116864259491,0,-2,1,-1,-3,0,-1,-1
116864259491,7,4,-6,-1,-2,-3,-3,-6
116864274388,-1,1,7,0,1,2,1,0
116864274388,1,-1,-3,2,-3,-1,-1,5
116864276017,-2,-3,5,1,0,-1,0,0
116864276017,-9,-3,-9,-4,-3,-1,-2,-1
