timestamp,emg1,emg2,emg3,emg4,emg5,emg6,emg7,emg8
89429712290,-4,-3,-1,1,1,-1,-2,-3
89429712290,-10,-2,-3,-1,-1,-3,-4,-6
89429716287,13,1,2,-1,-3,1,-1,1
89429716287,-1,-3,-3,-2,-2,-2,-2,0
89429717118,1,1,-3,0,-3,-3,-2,-2
89429717118,0,-1,1,-1,-1,-1,0,-1
89429717904,-4,-1,0,-2,0,1,0,0
89429717904,-1,0,-3,0,-1,-2,-1,-3
89429723560,4,2,-3,-3,-1,-3,-1,-1
89429723560,-2,-1,1,-2,-2,1,-1,2
89429730913,-3,-2,-2,-1,0,-2,-2,-4
89429730913,2,-3,-1,-2,-2,-2,-1,8
89429744903,-4,-3,2,-3,0,-1,-2,-11
89429744903,2,-2,-2,1,-2,-1,-1,6
89429751968,-2,0,-4,2,1,-2,-4,-16
89429751968,-3,-2,0,-2,0,0,0,-3
89429763443,2,-1,1,-1,0,-1,3,3
89429763443,-7,-1,-2,-1,-1,-1,-1,-6
89429783386,0,-1,-1,-2,-2,-1,-1,3
89429783386,15,1,-1,0,-1,-1,0,6
89429784984,-13,-2,-2,-1,-1,0,-1,-4
89429784984,12,0,-3,-1,-1,-2,-3,-1
89429830302,-1,0,0,1,0,-1,-3,-4
89429830302,2,-1,-3,-1,-1,-3,-1,-4
89429830997,-5,-3,0,-1,-3,1,0,3
89429830997,5,-1,-3,-1,-1,-1,0,-1
89429831895,-6,-2,-2,-2,-1,-1,-2,-3
89429831895,-1,-2,1,-1,-1,0,-2,-1
89429834320,-8,-3,-2,1,0,-1,-1,8
89429834320,14,3,-3,0,-1,-3,1,-11
89429843280,-1,-1,2,0,-3,0,1,5
89429843280,-7,-1,2,-1,-1,1,-1,-1
89429849335,15,2,-2,-1,1,-2,-2,-3
89429849335,-10,-2,-1,-4,-1,-1,-2,0
89429864338,1,-2,1,0,-2,1,1,3
89429864338,0,-1,-4,-1,0,-2,1,5
89429871750,1,-1,-2,0,-2,-2,-2,-17
89429871750,-7,-2,2,-1,0,0,-1,2
89429880808,3,-2,-3,-2,0,-2,-1,-4
89429880808,0,0,-4,0,-3,-2,0,6
89429902230,-3,0,0,-1,-2,-1,-2,2
89429902230,-18,-6,-2,-1,-2,-1,-3,-7
89429910767,-1,1,-2,-3,-1,0,0,-3
89429910767,-1,-1,-2,-1,-1,-1,-2,-3
89429917491,-2,-1,1,-2,0,0,1,-1
89429917491,1,-1,-1,-2,-1,-2,-2,4
89429924336,-3,-1,0,-1,-2,-1,-4,-2
89429924336,-4,1,2,-1,0,-2,0,-4
89429940611,-5,-2,-2,-1,-1,0,1,1
89429940611,13,2,0,-1,-3,-2,-2,3
89429942261,1,-1,-2,-2,-1,-1,-1,8
89429942261,5,-1,-2,-1,-2,-1,-2,10
89429963152,0,0,0,0,-3,-2,-3,-6
89429963152,-6,-3,-1,-1,-1,0,-1,-6
89429964762,-3,-1,-1,-1,0,-1,-1,-2
89429964762,-2,-1,-1,-1,-1,0,-1,-5
89429977492,-3,0,-1,-1,-1,-1,-1,1
89429977492,2,-1,-2,-1,-1,-2,-1,2
89429984306,0,-1,-1,-1,-2,-2,-2,-2
89429984306,-2,-2,-2,-2,-2,0,-4,-4
89430000649,1,-3,-1,-1,-2,-2,-2,-4
89430000649,-1,-1,0,0,0,-1,-1,-2
89430002289,0,-1,-3,-2,-2,-2,1,-3
89430002289,-2,-1,-1,-2,-1,-1,0,-4
89430023174,1,1,0,-3,-1,-1,-2,1
89430023174,-1,-1,1,-1,-2,-1,-2,0
89430024765,-4,-1,-1,-1,0,0,0,-4
89430024765,0,-2,-1,-1,-1,1,1,-3
89430037726,1,0,-1,-1,-1,-2,-2,0
89430037726,-4,0,-3,-2,-2,-1,-1,0
89430044553,4,0,0,-1,-1,-1,-1,-3
89430044553,11,-1,-4,-1,-2,-1,1,18
89430060829,-22,-2,-1,-2,0,0,-4,-38
89430060829,-23,-1,1,0,0,-2,-1,-1
89430062369,30,1,1,-1,-1,0,0,5
89430062369,-1,1,0,-2,0,-2,0,3
89430083419,8,-2,-2,-1,-1,-1,-1,2
89430083419,-5,-4,-3,-1,-1,-1,0,-9
89430084814,-12,-1,-1,-1,0,-2,-4,-3
89430084814,-7,-3,-1,-1,-2,0,-2,-6
89430097427,4,-1,-3,-3,-2,-1,-1,7
89430097427,-1,0,-1,-2,-1,0,1,6
89430104499,-7,-3,-2,0,-1,-1,-1,-2
89430104499,8,0,-2,0,-1,-2,-2,-7
89430120890,-5,-1,0,-1,-1,-1,0,8
89430120890,7,-2,-5,-3,-3,-1,-1,0
89430122378,-4,-1,0,-2,-2,-2,0,2
89430122378,-4,-2,0,0,-1,-2,-1,-6
89430143430,2,0,0,-1,-1,-1,-1,1
89430143430,5,0,1,0,1,0,-1,1
89430144808,-4,0,0,0,-2,-2,-1,3
89430144808,-4,-2,1,0,-1,-3,-4,-11
89430157543,12,-1,0,1,-1,-1,1,13
89430157543,-13,1,1,-1,-1,-1,-4,-28
89430164523,-6,-2,-4,-2,-1,-2,-1,-3
89430164523,-6,0,0,0,-3,-1,-1,-3
89430179721,-9,-2,-1,-1,0,0,0,2
89430179721,19,2,1,1,-1,0,1,20
89430188282,0,-3,-1,0,0,0,-3,-6
89430188282,-3,-2,-1,-2,0,0,-2,1
89430203109,-2,-1,-2,-2,2,0,-2,-3
89430203109,-2,-1,-1,-1,-1,-2,1,1
89430204707,-3,0,-1,0,-1,1,0,1
89430204707,-2,-9,-6,-3,-2,-3,-1,-1
89430216986,0,0,0,2,-1,1,-1,-10
89430216986,-2,-1,-2,-1,1,-1,-2,-2
89430225857,-1,0,-2,-1,-1,0,-2,0
89430225857,-13,-2,0,-1,-1,-2,-1,-4
89430240741,10,3,-1,1,-1,-1,1,8
89430240741,4,1,-2,0,-1,0,-2,0
89430242337,-1,-1,-1,0,-1,0,-1,-3
89430242337,8,1,0,0,0,0,-1,9
89430263256,-35,-4,-2,-2,-3,0,-4,-33
89430263256,10,-2,-1,-1,-1,-1,0,-1
89430264813,-14,-2,-2,-1,-1,-2,-2,-2
89430264813,12,3,1,1,0,2,-2,6
89430277048,2,-2,-1,-1,-3,-2,-3,8
89430277048,-8,-1,-1,-1,-1,0,-1,1
89430285818,-5,-1,0,-1,-3,-2,-3,-9
89430285818,-3,-2,-2,-3,-3,-1,1,-5
89430300785,6,0,-1,0,-1,-2,-2,7
89430300785,-6,-1,-1,1,-2,-1,-2,-4
89430302431,4,-2,-2,-1,-1,0,1,6
89430302431,-1,0,-1,0,-1,1,0,-3
89430323165,1,-1,-1,-2,1,-2,0,1
89430323165,0,-3,-2,-2,1,-1,-1,1
89430324735,-1,1,1,1,-1,-1,-2,-3
89430324735,5,0,1,-2,-2,0,-2,-7
89430336970,-1,-2,0,-1,-1,-2,-1,2
89430336970,-2,-1,-3,-2,-1,-2,-3,-2
89430345765,3,-2,-4,-1,-2,0,-1,1
89430345765,-9,-2,0,-1,-2,-2,-2,-6
89430360899,-7,-3,-3,-2,0,-3,-1,-2
89430360899,1,1,3,1,-2,-1,1,-1
89430362396,-5,-1,-1,-2,-1,-1,-1,-2
89430362396,2,-1,0,0,1,0,-1,3
89430383397,6,-1,-1,0,-2,-1,0,3
89430383397,-6,-1,-1,-1,0,-1,-2,6
89430384895,19,2,1,-1,-1,0,2,13
89430384895,-6,-2,-1,-2,0,-2,-3,-21
89430397039,11,2,0,-2,-2,-1,-3,5
89430397039,-5,0,-1,0,-2,-2,-2,-2
89430405823,-8,-2,0,0,1,0,1,4
89430405823,14,1,-3,-1,-3,-1,1,8
89430420852,-1,-2,0,-1,-2,-1,1,-1
89430420852,-6,-1,-3,-1,0,0,0,-5
89430422370,9,0,-1,-1,-1,-2,-3,8
89430422370,-8,0,1,-1,1,-2,-2,-1
89430443183,-6,0,1,1,0,0,0,-6
89430443183,1,-2,0,-1,-2,0,-2,0
89430444818,-5,-3,-1,-2,-2,-1,0,-6
89430444818,-8,1,-2,-1,1,0,-1,-9
89430456848,8,1,-1,0,-2,-1,-1,7
89430456848,-2,-4,-2,-3,-2,0,-2,-1
89430465855,-5,-3,0,1,-1,-1,-2,-3
89430465855,-2,0,-3,1,-2,-2,-1,2
89430480837,-5,-4,-3,-2,-3,-1,0,4
89430480837,-3,-2,0,0,2,-1,2,-1
89430482311,15,4,1,-1,0,-1,0,-3
89430482311,-4,-3,-1,-1,-1,1,2,9
89430503350,2,-1,0,-1,1,-1,-2,-10
89430503350,-6,-2,-2,-2,0,-2,1,2
89430504775,7,1,0,-1,-2,-2,-3,1
89430504775,-2,-1,0,-1,-1,0,0,-1
89430516900,0,0,-1,-1,0,1,-3,2
89430516900,1,-2,0,-2,-2,-1,-1,-1
89430525848,-11,-3,0,-3,0,-1,-1,-15
89430525848,0,-1,-2,-2,-2,-1,-3,2
89430540707,-3,-3,-3,-1,-2,-2,0,-3
89430540707,3,-1,-1,0,-1,0,-1,-2
89430542305,-8,-3,-2,-2,-3,0,-1,1
89430542305,2,-2,-1,-1,-1,-2,-1,1
89430563217,-6,1,1,-1,0,-2,-2,1
89430563217,0,-1,-2,-1,-2,-3,-1,-2
89430564792,-5,-2,-4,-1,-2,-2,0,-3
89430564792,8,-2,-2,-2,-3,-2,-3,-7
89430577006,0,0,-1,-1,0,0,-2,1
89430577006,-4,1,-1,-1,1,0,-3,-2
89430585786,16,0,-1,-1,-2,-2,-2,12
89430585786,-28,-6,-2,-2,-2,-2,-3,-25
89430600723,-2,-1,0,-2,-2,-1,0,-2
89430600723,2,-1,0,2,0,-2,-3,-6
89430602366,-1,-2,-2,0,0,2,-2,-1
89430602366,1,0,0,0,-1,0,-2,8
89430623456,2,-2,-3,-2,-1,-3,-1,-3
89430623456,-8,-3,-2,-2,-2,0,1,-5
89430624874,-4,-1,0,-1,-1,-1,-1,2
89430624874,2,-1,-1,0,0,-1,-1,8
89430645743,0,0,-1,0,0,2,1,-3
89430645743,7,-1,0,0,-3,-2,-1,4
89430647331,-14,-4,-1,-1,0,-2,0,-1
89430647331,25,2,-2,-1,-1,-3,-1,5
89430660018,-9,-1,0,-2,0,0,-3,0
89430660018,2,0,-1,0,-1,-1,-1,1
89430666779,-2,-1,0,0,0,-1,-1,-7
89430666779,-9,0,-1,-1,-1,-2,-1,-2
89430683419,2,-1,-2,-1,-1,-1,-1,-1
89430683419,6,0,-2,-2,-1,0,-2,-5
89430684893,-17,-3,-3,-1,0,-2,-1,-10
89430684893,28,2,0,0,1,-1,0,25
89430705655,1,1,-2,-1,-1,-2,0,-3
89430705655,-6,0,0,-1,-1,-1,-1,1
89430707306,-3,-1,-1,-1,-2,-1,-1,-19
89430707306,-6,-2,1,-1,-2,1,1,-3
89430720777,0,-1,-3,-2,-2,-1,-1,-2
89430720777,-2,-2,-1,-2,1,-1,-3,-1
89430722422,2,-2,-2,-1,-2,-2,-2,-1
89430722422,-2,-2,-2,-1,0,-3,-1,-13
89430743644,-3,-3,-2,-2,0,-1,-3,-1
89430743644,-4,-1,0,-1,-2,-2,-2,-3
89430745291,1,0,-2,-1,0,-2,-3,-3
89430745291,-14,-3,-2,-1,-1,-2,0,-7
89430765619,0,-1,0,0,-1,-1,-1,-2
89430765619,0,0,-1,-1,0,0,-1,2
89430767272,12,1,-2,-1,-2,-1,1,1
89430767272,-2,1,0,-2,-1,0,-2,1
89430779998,0,-2,-1,1,-1,-2,-2,6
89430779998,3,-1,0,-2,0,-2,-1,-1
89430787108,-7,0,-1,-1,-1,-2,-2,-2
89430787108,-9,-2,-2,-2,-1,0,-3,-4
89430801891,5,1,0,-1,-1,-2,0,-3
89430801891,-2,0,-1,-1,-2,-2,2,-2
89430810932,-2,-1,1,-1,-2,-2,0,6
89430810932,-3,0,0,0,-2,-2,0,-4
89430825674,-4,-2,-2,-2,-3,-1,-1,8
89430825674,13,0,0,-1,0,-1,1,16
89430827286,-7,-1,-1,-4,-3,0,-4,-31
89430827286,0,-1,-2,-1,0,0,-1,0
89430848147,-5,-3,-3,0,-2,-1,-2,-3
89430848147,8,-1,-1,-1,-2,0,0,3
89430849780,-3,-2,0,-1,-1,0,-1,7
89430849780,-6,1,0,-2,-1,0,-1,0
89430861868,-1,-1,-2,-4,-1,-2,-1,-11
89430861868,-15,0,-2,0,-1,-1,-4,-12
89430870833,14,1,-1,0,0,-1,-1,13
89430870833,-2,-1,-1,0,-1,-1,-2,-3
89430885722,-1,1,-1,-1,-1,0,1,2
89430885722,-2,-1,0,-1,-2,0,-2,-4
89430887336,0,-1,0,-2,-2,-2,-1,0
89430887336,-2,-2,0,1,0,-1,0,1
89430908266,0,0,0,0,0,-1,-2,0
89430908266,-2,-1,1,-3,-3,0,-1,-4
89430909795,-2,-2,-1,-1,-2,-3,0,3
89430909795,-4,-2,-3,-3,-3,-2,-2,0
89430921873,-1,-5,-2,-2,-1,-4,-2,5
89430921873,5,0,-2,0,0,0,0,-3
89430930802,-7,-2,-2,-1,-2,0,-2,0
89430930802,1,-1,0,0,0,1,0,-1
89430945619,-4,-2,-1,-1,-1,-2,-1,-5
89430945619,-5,-1,0,-1,-2,-1,-1,-1
89430947284,2,0,0,-1,-3,0,0,3
89430947284,-3,-1,-3,1,-1,-3,-2,-2
89430968206,1,0,0,0,-2,1,-2,-1
89430968206,-3,-2,-1,-1,-1,1,0,-4
89430969730,-2,-1,0,-1,1,-1,-1,-1
89430969730,5,-1,-2,-3,-2,-2,-1,4
89430981906,-20,-2,-1,-2,-4,-3,-3,-30
89430981906,0,0,-4,-1,1,0,-1,4
89430990838,-7,-3,-1,-1,-3,-1,-2,-12
89430990838,-2,-3,-1,0,0,1,-1,-1
89431005625,5,2,2,0,-2,-2,0,5
89431005625,-2,-3,-3,0,-2,-1,1,-1
89431007312,-5,1,-2,2,0,-1,-2,-2
89431007312,7,-1,-1,-1,-2,-1,1,2
89431028377,-3,-2,-1,1,-1,0,-4,-1
89431028377,-15,-3,-1,-1,-2,-1,0,-3
89431029842,13,1,0,-1,0,0,1,13
89431029842,-3,-2,-1,0,-1,-2,-4,-9
89431041884,4,-1,-1,-1,-3,1,1,3
89431041884,0,-1,0,-1,0,-2,-3,-1
89431050882,-4,-2,-1,-2,0,-1,-1,-1
89431050882,-2,0,0,-1,-1,-1,0,-5
89431065748,-2,0,0,-1,0,-1,1,3
89431065748,2,-2,-1,-3,-1,-1,-1,-2
89431067311,1,-1,-2,-1,-2,-3,0,-1
89431067311,-2,0,0,-1,-2,-1,-1,1
89431088324,2,0,-1,-2,-1,0,-1,2
89431088324,10,-1,-3,-1,-2,-1,-1,18
89431089785,-11,1,1,-2,2,0,-2,-16
89431089785,-8,-2,-1,-3,-1,0,-1,0
89431101857,8,0,0,0,0,-1,0,2
89431101857,-4,-2,-3,-1,-1,-3,0,2
89431110770,3,-5,-3,-3,-3,-1,-1,-4
89431110770,-7,-1,0,1,1,1,-2,-2
89431125884,-1,-1,-1,0,-2,0,-3,-7
89431125884,3,0,-1,-3,1,-3,-1,-5
89431127397,-12,-4,0,-1,-2,-1,-1,1
89431127397,1,-3,-2,-3,-2,-3,-1,-4
89431148390,-6,-1,-2,-1,-2,-1,1,4
89431148390,-4,0,0,2,-1,-1,-1,-7
89431149758,8,0,-2,-2,-1,-2,-2,6
89431149758,2,-1,-4,-2,-1,-1,-1,4
89431170872,2,1,-1,-1,-2,-2,-2,1
89431170872,-11,-2,0,0,-2,0,-3,-6
89431172360,0,-2,-2,0,-1,-2,0,1
89431172360,2,-1,-1,-1,-1,-2,-1,0
89431185794,-3,-2,-1,-3,0,-1,-2,1
89431185794,2,-1,0,-2,-2,0,-2,-11
89431187389,-1,-1,-1,1,-1,1,-1,2
89431187389,-2,0,0,-2,0,0,-1,1
89431208356,-1,0,-2,-1,-2,-2,0,-2
89431208356,2,0,-3,-1,-1,1,0,2
89431209775,-1,-1,0,0,-1,-1,-1,0
89431209775,0,-3,-1,-1,-3,-1,-2,-2
89431230698,1,-1,0,-1,0,0,0,0
89431230698,-1,-2,-1,-2,-4,-2,-3,0
89431232335,-1,2,-1,-1,0,0,-1,-2
89431232335,0,1,-1,0,0,-2,-3,-1
89431245259,-2,-5,-3,2,1,0,-2,-1
89431245259,1,1,2,0,2,0,1,-2
89431251917,-1,0,-1,-2,-1,1,-2,0
89431251917,-1,-2,-1,-2,0,-2,-1,-2
89431268368,0,0,0,-4,-2,-2,-2,-1
89431268368,-3,0,-1,-1,-4,-2,-2,0
89431269779,0,-2,0,3,1,0,-2,-1
89431269779,0,0,0,0,1,0,0,-2
89431290515,-2,-2,-1,1,1,0,-2,-1
89431290515,1,-1,0,0,-2,-1,-2,-1
89431297093,-2,-2,-3,-3,-5,-3,-1,1
89431297093,-1,-1,-1,-2,-4,-1,-1,-1
89431305077,-3,-1,-3,-1,1,-1,1,-2
89431305077,0,-1,-1,-1,-1,-2,-1,0
89431311876,0,0,-1,-2,-2,0,0,0
89431311876,-1,0,-1,2,1,1,-1,-3
89431328223,5,-1,-2,-2,0,-2,0,7
89431328223,-2,-2,-1,-3,-2,0,-1,2
89431329876,-1,-3,-1,-1,0,-1,-1,-3
89431329876,-1,-2,-3,-1,-2,0,1,0
89431350936,-2,1,0,-1,-2,-1,-1,-2
89431350936,-1,-2,-1,0,-1,0,0,-2
89431352419,-1,-2,-2,-1,0,-2,-1,1
89431352419,-1,-1,-1,-1,-1,-2,-1,-1
89431365180,-1,-1,-2,0,-1,-1,-2,-2
89431365180,-1,-1,-1,0,0,-1,1,-1
89431372078,-2,-2,-1,-1,1,-3,-1,-3
89431372078,-1,0,-1,-2,-3,-3,-1,-1
89431388118,-3,-1,0,-1,-1,0,-2,0
89431388118,0,1,-1,-1,-1,0,-2,-1
89431389707,-2,0,0,-2,-2,0,-1,-1
89431389707,3,-2,-3,-1,-3,-1,0,4
89431410874,3,-2,0,0,-2,0,-2,-3
89431410874,4,-2,-1,-1,0,0,1,14
89431412362,-8,-2,-4,-1,-3,-2,-5,-14
89431412362,-7,-5,-2,-3,-1,-2,-1,-4
89431425104,-5,0,0,-2,-1,0,-1,-6
89431425104,4,-2,-3,-1,-1,-1,-1,-1
89431431856,-5,-2,-1,-1,-1,0,1,3
89431431856,0,0,-1,0,-2,-2,-1,0
89431448383,0,-2,-2,-4,-2,-3,-2,-3
89431448383,-15,-2,0,-1,-1,1,-2,-10
89431449798,13,3,-1,0,-1,-1,2,8
89431449798,-4,0,-1,-2,0,0,-3,-6
89431470807,3,-2,-2,0,-1,0,-1,3
89431470807,-6,-1,-1,-2,0,-3,0,-4
89431472403,-3,-1,-3,-1,-1,-2,0,-4
89431472403,4,-1,-1,-1,-3,-1,3,1
89431485036,1,0,0,0,0,-1,-2,-1
89431485036,-18,-5,-3,-4,-1,-2,-2,-10
89431491836,4,0,-1,0,-2,-1,-4,-10
89431491836,-1,-1,0,1,0,1,0,-6
89431508160,-5,0,-2,-1,-1,0,-1,-7
89431508160,4,-1,-1,-1,-1,0,-1,2
89431509782,5,-3,0,-2,0,0,1,17
89431509782,17,4,-1,0,-1,-1,-4,-3
89431530680,-5,-1,-1,0,-2,-2,2,5
89431530680,5,3,0,-1,-3,0,-4,-12
89431532335,0,-1,-1,-4,-1,0,1,7
89431532335,-9,-3,-1,-3,-2,-3,-5,-1
89431544348,0,-1,-1,0,1,-2,-3,0
89431544348,4,-3,-4,-5,-4,-5,-1,1
89431553340,-5,1,0,-1,-4,-3,-1,-3
89431553340,-10,-6,-4,-3,-2,3,2,-7
89431568390,0,-1,1,5,12,3,3,-1
89431568390,-5,-3,-2,0,-11,-5,-1,-2
89431569835,-1,-2,-3,-1,4,-10,-6,-8
89431569835,-4,-1,-2,-3,-7,2,-4,0
89431589751,1,0,2,-1,-9,11,3,3
89431589751,2,2,2,7,26,23,6,1
89431598275,-2,-1,1,6,16,9,5,1
89431598275,3,0,1,0,-1,-6,1,7
89431604430,-3,-3,-1,-2,-4,-9,-7,-7
89431604430,-1,0,-2,-4,-24,-19,-8,0
89431613381,-7,-2,-3,-5,-14,-17,-17,-16
89431613381,-15,0,-2,-6,-11,-17,16,3
89431628191,21,3,-1,-2,-9,2,2,6
89431628191,-2,-5,-3,-6,12,-1,-12,-4
89431629789,3,3,2,-1,-5,-5,32,11
89431629789,4,-1,-2,-5,-7,-15,-28,-6
89431650623,-20,-4,-1,2,-31,4,-5,-7
89431650623,1,1,1,10,74,40,12,0
89431652265,2,0,2,5,18,20,10,4
89431652265,3,-1,-3,1,-22,-3,-4,3
89431664354,4,0,0,-1,5,-15,-6,2
89431664354,0,-1,0,-4,-25,-24,-5,-1
89431673314,-9,-6,-10,-10,-14,2,-15,-16
89431673314,5,0,1,-8,-36,-38,3,17
89431688113,-4,-3,-6,-10,-26,-47,-16,-16
89431688113,-6,-3,-3,1,34,45,-7,-8
89431689714,7,4,2,10,62,54,32,7
89431689714,3,2,6,18,30,45,25,4
89431710607,-9,-3,-1,0,-3,-2,-23,4
89431710607,0,-1,-1,-10,-57,-57,-11,-3
89431712232,-8,-4,-6,-13,-51,-38,-10,-20
89431712232,-1,-2,-5,-8,-17,-25,5,-5
89431724330,1,-3,-1,5,51,61,18,8
89431724330,7,4,-4,-7,24,0,-8,9
89431733301,3,2,3,0,-51,17,9,-1
89431733301,-6,0,4,7,79,15,-12,-1
89431748177,4,-6,0,4,-37,-39,15,-1
89431748177,0,1,0,-5,-20,-1,-6,-3
89431749763,-9,-6,-1,5,5,51,-1,2
89431749763,-2,1,-2,-4,56,-9,-8,-2
89431770637,1,-3,0,1,-23,-12,-10,-4
89431770637,-6,-6,-1,16,1,9,7,-15
89431772269,-1,1,-2,-2,21,-7,-7,7
89431772269,6,5,4,3,-51,2,16,3
89431784326,-1,1,-10,-15,31,-7,-9,-2
89431784326,2,0,0,-10,-73,-49,-9,5
89431793294,-12,-6,-5,-11,-17,-25,-18,-7
89431793294,0,2,2,7,19,27,-1,-7
89431808201,-3,-2,1,5,20,9,6,2
89431808201,3,-1,-3,2,0,5,5,1
89431809781,3,1,-2,0,19,-16,-7,7
89431809781,-6,-5,-6,0,-10,-4,-6,-4
89431830626,16,5,0,-3,-26,6,5,0
89431830626,-17,2,4,6,34,26,14,0
89431832293,16,-2,-2,-3,1,-21,-13,7
89431832293,-5,3,5,-4,-27,-14,-5,-4
89431844328,-3,5,-1,4,15,17,7,2
89431844328,10,-3,-4,-4,5,4,4,12
89431853302,-3,0,-1,-4,-14,-18,-7,-29
89431853302,-8,-2,-4,-5,-7,7,-5,-3
89431868091,-9,-4,-4,6,12,11,6,-5
89431868091,2,7,24,-5,-4,-7,-3,4
89431869723,-9,4,8,15,-5,-7,-3,4
89431869723,3,-2,-12,-1,4,13,0,0
89431890626,-3,3,25,-8,2,-6,-7,-5
89431890626,3,-4,-22,1,-10,-8,5,3
89431892301,7,4,-10,-5,-1,-2,-5,1
89431892301,-9,3,15,-6,2,2,-4,-4
89431904321,10,-7,-17,2,-3,-7,2,7
89431904321,-14,-28,7,6,3,11,8,3
89431913293,3,13,3,-5,3,2,-2,5
89431913293,-6,-20,-20,-3,-3,-6,-8,-9
89431928182,-8,5,14,1,-5,-6,0,-2
89431928182,8,11,0,-1,-2,-1,-1,-3
89431929744,-3,-7,-4,1,1,0,1,1
89431929744,-11,-11,-7,-6,-10,-5,-5,-10
89431950653,14,5,-8,-5,1,1,-1,9
89431950653,-7,-13,-9,-2,-1,-2,0,-4
89431952285,6,1,0,-3,-5,-5,1,15
89431952285,-19,1,2,-2,-1,3,-16,-39
89431964359,-20,-9,-3,-3,0,-1,5,2
89431964359,4,6,-7,1,-2,-6,-7,2
89431979305,-12,-8,0,-1,-3,-4,3,-11
89431979305,19,2,3,4,4,5,2,11
89431987481,-1,-3,-9,-4,-1,0,-3,-9
89431987481,-9,2,-3,-3,-4,-5,-1,-15
89431994328,5,1,0,1,0,-3,-7,9
89431994328,3,-2,-3,-2,-3,-1,7,9
89432010666,-22,-2,-5,-3,-4,-4,-2,-23
89432010666,18,7,0,-2,-3,-1,11,12
89432012308,8,-3,4,1,2,2,-4,-2
89432012308,1,-5,-4,0,-3,-6,-13,-6
89432024328,9,6,0,-4,-2,1,32,2
89432024328,-9,0,-1,1,-1,4,-55,-12
89432033296,-14,-8,-5,-2,1,-5,45,13
89432033296,-4,0,2,-4,-3,-5,3,-22
89432055572,-4,-5,-5,-5,-3,-3,-35,-14
89432055572,5,5,1,0,2,0,14,9
89432057299,43,1,1,1,-1,4,2,-8
89432057299,-13,-1,-2,-2,-3,-8,16,13
89432070595,-3,-9,-2,-5,-16,-17,-32,16
89432070595,-11,4,-4,-2,1,35,11,-5
89432072226,2,-1,4,10,56,24,-30,-2
89432072226,-5,0,5,8,-2,-3,-20,9
89432093150,2,3,1,1,-16,-22,29,15
89432093150,-13,-8,-7,-12,-29,-50,-52,-20
89432094804,-3,-5,-10,-16,-41,-27,25,5
89432094804,19,5,-1,-7,-16,17,-26,2
89432107472,2,-4,-3,9,37,29,2,-3
89432107472,-12,-4,3,4,51,40,26,9
89432114347,-11,3,4,10,45,49,-12,-12
89432114347,-2,-9,-4,18,18,-15,15,5
89432130671,8,1,0,6,-29,-26,-10,-2
89432130671,3,0,0,-9,-37,-35,11,-1
89432132325,-15,-3,-8,-19,-38,-32,-15,-8
89432132325,-1,1,-3,-29,-21,-3,5,3
89432153222,-4,1,-1,12,16,6,6,-3
89432153222,9,0,-1,2,9,5,-7,-3
89432154813,-13,0,1,1,-4,-9,-1,-1
89432154813,7,0,-3,12,3,12,8,4
89432167601,3,6,9,-3,38,27,-1,-3
89432167601,4,4,-4,6,-14,7,12,3
89432174351,5,-1,5,4,-13,-14,-4,2
89432174351,-8,-4,-4,7,0,-9,5,-2
89432190655,-2,-6,-2,-36,-31,-17,-13,-3
89432190655,1,-1,2,-5,27,27,16,4
89432192338,-6,-1,2,14,32,22,8,0
89432192338,6,3,1,12,0,2,-6,2
89432213227,-1,9,11,7,6,-5,-3,-4
89432213227,4,2,-2,17,-31,-23,-1,2
89432214797,-9,-9,-9,-19,-16,-7,-10,-9
89432214797,-8,4,-1,7,14,3,4,-1
89432227502,5,7,8,8,0,3,4,1
89432227502,-1,-3,-3,-10,9,-1,6,1
89432234308,-9,-3,-7,-15,-21,-9,-9,-2
89432234308,4,4,-6,-37,-18,-9,-1,0
89432250762,-13,-12,-7,1,-9,5,3,-4
89432250762,-2,-7,-8,-11,-1,-6,-4,-4
89432252359,5,10,14,12,9,-2,2,3
89432252359,2,8,14,0,3,6,4,1
89432273189,-2,-7,-13,7,2,2,-3,-2
89432273189,2,-5,-1,6,-3,-3,0,-10
89432274752,1,-5,-4,3,-7,-4,-2,10
89432274752,10,12,24,7,5,2,3,0
89432287624,-6,-15,-63,-18,0,-3,-8,2
89432287624,7,16,35,16,13,-1,6,6
89432294503,-4,6,-10,3,-16,-6,-2,-9
89432294503,1,-3,-1,-16,1,0,-3,-1
89432310822,-1,0,29,17,18,14,10,7
89432310822,-3,-4,2,-12,-7,-8,-4,-3
89432312360,-10,-27,-9,5,9,3,-1,-1
89432312360,15,18,8,11,-1,-3,-3,-1
89432333070,1,0,-10,-17,-15,-6,-7,-7
89432333070,6,6,18,4,1,0,2,7
89432334739,-7,-24,-10,1,2,0,0,-4
89432334739,-12,1,-10,5,4,2,-1,-5
89432346779,7,14,20,7,-1,1,3,5
89432346779,9,20,-5,-10,-8,-4,-4,-3
89432355824,-1,-9,-5,-4,-7,-5,-4,0
89432355824,-10,-23,-10,-3,1,2,-2,-1
89432370889,-1,38,34,6,-4,-2,1,2
89432370889,-12,10,-20,-1,0,-4,0,8
89432372259,11,-10,34,2,1,6,4,5
89432372259,-4,-7,-15,-3,-1,-2,-2,21
89432393268,4,-15,7,-2,1,2,-1,-7
89432393268,2,1,-9,8,2,2,1,12
89432394814,-8,19,8,-2,0,1,-1,-9
89432394814,8,-1,-3,1,-3,-4,-3,-3
89432407421,5,2,-13,-8,-4,-5,-7,-2
89432407421,0,-8,11,-4,-3,3,6,2
89432415869,-1,11,-13,-2,-4,-6,-7,-9
89432415869,2,2,7,2,3,6,0,-2
89432430876,-7,10,-5,-4,-1,-4,5,14
89432430876,5,-14,-10,-4,-1,-5,-7,-14
89432432374,-5,4,-2,-2,0,1,12,1
89432432374,4,-6,-7,-5,-4,-2,-31,-5
89432453367,5,-15,-34,-11,-6,-6,15,-5
89432453367,-14,-17,12,2,0,-5,-14,-7
89432454784,-9,7,9,0,-3,-1,13,19
89432454784,2,-14,-5,-5,-2,-3,-9,-41
89432467045,9,-13,-2,-2,-2,-3,0,8
89432467045,-17,-3,-50,-8,-1,-4,-3,-25
89432483352,3,-16,9,-4,-3,-1,2,0
89432483352,-18,-16,-5,-2,-3,-5,-3,0
89432490806,-16,-10,6,3,1,2,0,-2
89432490806,6,1,-4,-1,-1,1,-4,-2
89432492310,15,11,-8,-3,0,-4,-11,3
89432492310,-9,0,-4,-3,-2,3,22,-3
89432513369,10,-2,-1,-1,0,-2,-9,6
89432513369,3,-7,2,-3,-1,2,0,-23
89432514830,-8,-2,-9,-1,-1,1,-14,-8
89432514830,4,-3,4,-2,-3,0,2,16
89432527054,-11,3,-1,-2,0,-4,0,-15
89432527054,-6,1,2,-1,-2,0,-50,-17
89432535860,2,3,-2,0,0,3,8,22
89432535860,26,9,-2,0,-2,-7,34,-2
89432550715,-16,3,-2,3,2,13,33,4
89432550715,15,-1,10,37,-5,-13,-8,3
89432552309,22,2,-8,-45,-4,-12,-3,-8
89432552309,-30,0,8,-9,0,-6,-24,3
89432573161,10,-26,-37,9,-2,0,-48,-2
89432573161,-70,-3,1,-3,0,-2,16,8
89432574797,7,0,-5,26,-6,-4,-7,-16
89432574797,13,15,-7,28,-3,2,19,-6
89432586785,-14,-18,-22,-47,2,5,-14,-6
89432586785,15,0,0,-70,-18,-3,-3,11
89432595822,7,0,-4,-2,9,4,-11,0
89432595822,-12,-5,2,1,-4,-2,0,-5
89432610892,3,12,17,25,-4,-11,-11,-9
89432610892,-2,-2,-3,9,4,6,21,9
89432612375,-25,2,12,11,0,-5,3,0
89432612375,-1,0,-1,8,-12,7,-5,-2
89432633218,9,3,7,-12,20,5,5,-2
89432633218,19,-4,-6,5,-3,-9,13,3
89432634774,-24,-10,-5,-7,1,5,-3,-3
89432634774,8,2,-7,18,4,0,-7,7
89432646789,-1,4,15,-4,-4,0,6,-3
89432646789,2,-5,2,14,8,2,-5,6
89432655717,-2,5,-1,6,-6,3,3,-3
89432655717,5,3,6,9,4,-9,-9,2
89432670603,-3,5,11,-22,-18,-3,4,-5
89432670603,-2,-6,-9,-9,15,-1,2,0
89432672303,9,-2,-3,10,-5,8,6,-2
89432672303,-2,3,12,-15,5,4,8,2
89432693361,5,-6,-10,3,4,-1,-2,2
89432693361,-3,2,-2,5,-14,-8,-4,-1
89432694843,7,4,-1,10,1,-6,-7,-4
89432694843,-3,-13,-19,-6,4,-2,-6,2
89432707010,-19,-7,-14,28,9,2,-2,-7
89432707010,10,-3,-14,-37,-11,2,3,1
89432715840,-4,-5,-12,-4,-3,-4,0,-3
89432715840,-10,-28,-17,0,0,-4,-2,-6
89432730643,2,14,18,3,-4,-2,0,-3
89432730643,6,8,14,21,14,1,2,1
89432732335,-2,-3,-15,-6,-11,-2,-4,-2
89432732335,-7,-8,0,-6,-8,-1,-1,-1
89432753411,0,-3,4,7,5,1,2,0
89432753411,5,8,10,2,-3,-2,-2,0
89432754792,1,1,2,-8,9,-1,-4,-4
89432754792,7,18,2,-1,-5,-5,-3,2
89432766989,-11,-5,-12,3,1,2,1,-4
89432766989,1,-2,26,16,-1,1,4,3
89432775816,0,-3,3,-15,-1,-2,-1,0
89432775816,-7,-8,1,-4,7,3,2,2
89432790804,9,6,0,-8,-8,-8,-6,-1
89432790804,1,-8,-12,9,-2,-2,-2,-1
89432792345,-4,2,-6,1,-1,0,-1,-2
89432792345,15,60,22,-9,-4,0,2,4
89432813213,-6,-13,9,14,6,1,0,3
89432813213,-8,-12,-8,7,-3,1,0,-5
89432814801,-3,-2,9,-9,-3,2,0,0
89432814801,-6,-36,-34,-19,-2,-5,-5,-6
89432826972,10,30,16,3,-6,0,1,6
89432826972,-10,-9,1,-12,-5,-1,0,-3
89432835823,-7,-7,-9,0,1,-2,-2,0
89432835823,-1,-12,5,-3,-6,-1,-2,-2
89432850882,-9,-10,-10,-3,-7,-2,-3,-23
89432850882,12,20,3,-1,0,-1,-1,13
89432852377,17,-2,-2,8,3,-1,0,23
89432852377,-3,16,2,-3,-1,1,-1,-25
89432873161,-5,-14,0,-6,-5,-4,-1,-3
89432873161,12,36,5,-5,2,1,1,0
89432874801,-7,-3,0,1,-3,-1,0,0
89432874801,-6,-9,0,-5,0,1,0,5
89432887032,0,-3,3,-3,-3,-3,-2,7
89432887032,-12,-11,-7,-2,0,1,17,-3
89432895859,22,9,5,3,-2,-4,-14,-21
89432895859,-27,-30,4,-1,2,0,6,5
89432910671,-5,-7,-9,-1,-3,-4,-15,-8
89432910671,6,1,1,-2,-2,0,14,10
89432912358,-12,-6,6,-4,-3,-4,0,-5
89432912358,19,14,4,0,-3,-5,-5,4
89432933376,4,-4,-5,0,-3,0,-2,2
89432933376,-11,-11,-2,-5,-2,-2,-8,-12
89432934804,3,7,-3,-2,-1,1,-7,10
89432934804,-13,1,-15,-6,-4,-3,-3,-27
89432947017,-5,-11,5,-1,0,4,20,15
89432947017,4,-8,3,5,3,-3,-4,-11
89432961877,-7,-3,-5,-3,-1,-6,8,1
89432961877,-5,4,-2,-3,-2,-3,-35,10
89432969926,17,2,-1,-4,-5,-7,3,-10
89432969926,5,-7,-4,-3,0,0,5,-2
89432977643,-37,-2,0,3,6,9,0,-10
89432977643,17,-2,2,0,-2,1,-24,5
89432992634,5,2,-4,-3,-4,-2,12,-9
89432992634,6,-5,-1,2,2,2,-24,21
89432993204,4,0,1,-4,-6,-7,7,-14
89432993204,3,2,1,0,1,-2,21,3
89433015233,-24,-1,0,0,-1,3,0,-4
89433015233,-23,-3,-8,-8,-10,-2,-15,-13
89433015831,33,6,3,1,2,-8,-8,36
89433015831,-3,5,5,4,7,9,34,-11
89433029349,14,0,-3,-6,-2,3,-13,17
89433029349,-9,-12,-3,-1,-3,-3,-7,-17
89433037444,-11,-8,-5,-6,-6,-15,7,1
89433037444,31,9,5,4,-8,9,-16,11
89433060607,-20,4,5,8,19,7,15,-4
89433060607,32,2,-5,0,9,3,-15,4
89433061379,-11,-2,0,2,-4,2,-1,-6
89433061379,-51,-6,-3,-4,-3,-12,-7,5
89433074875,21,1,-2,-2,-11,1,-9,-17
89433074875,-7,0,-2,-8,-6,-3,1,0
89433075666,5,-1,-1,-5,4,3,-2,-8
89433075666,11,0,-3,2,-2,-9,-1,0
89433098076,-8,-5,-8,9,-22,-3,-5,4
89433098076,-11,-3,-2,-6,26,4,8,5
89433098854,3,6,3,22,10,10,-5,-9
89433098854,-5,-3,4,6,7,2,13,12
89433112402,3,-1,4,2,18,-4,-4,-5
89433112402,3,-2,-8,-12,-33,-12,-1,-5
89433113169,-11,-2,-9,-20,-24,-7,-4,-4
89433113169,-22,-7,-3,-14,0,4,3,-1
89433135169,11,-6,-10,2,0,-7,-7,-36
89433135169,6,6,7,3,3,7,6,-2
89433135853,6,5,8,7,6,3,-1,5
89433135853,-2,-4,-6,-5,-10,-6,-2,-7
89433149627,13,0,-9,-10,-8,-4,-4,14
89433149627,-23,-6,-6,-18,5,-2,2,-8
89433157640,3,-6,-11,4,-6,3,1,-12
89433157640,15,2,7,19,25,1,0,3
89433172569,-7,2,0,-51,-35,-5,-3,6
89433172569,0,-7,-16,-9,-14,-4,-2,-1
89433173417,-4,-2,-1,8,-2,-5,-1,5
89433173417,1,-7,-8,-14,-10,-3,-1,-3
89433194964,-5,3,5,4,15,0,-3,6
89433194964,-6,-3,-2,12,-2,0,0,-2
89433195993,-7,-11,-5,0,6,-1,-5,-9
89433195993,-4,-7,-6,9,-3,2,0,-4
89433209546,-3,9,18,19,19,3,0,5
89433209546,1,-1,-6,-5,-30,-9,-1,5
89433217696,0,5,1,10,11,7,0,-5
89433217696,0,-6,3,3,3,0,2,-3
89433240684,-3,-6,-20,-16,-5,-4,-2,6
89433240684,-13,0,2,19,10,1,-1,-1
89433241704,6,6,9,-14,-13,-3,-2,1
89433241704,3,-3,-20,-13,-10,-7,-5,-4
89433255154,-5,-12,2,-3,-10,1,1,5
89433255154,3,5,3,8,14,2,0,0
89433255780,-3,-3,-1,-5,-2,-3,0,-1
89433255780,6,6,4,3,0,-1,-2,2
89433269287,-13,-5,-1,8,3,-2,-2,-5
89433269287,16,6,6,5,3,-1,1,10
89433277476,-1,-2,-3,-12,-2,-3,-4,-7
89433277476,0,2,1,1,2,5,5,-8
89433292638,-9,-5,-1,7,4,0,-4,4
89433292638,0,2,0,-18,-10,-5,-4,0
89433293266,-16,-13,-2,-1,2,4,5,6
89433293266,5,-2,1,-5,-3,-2,-1,-6
89433315022,-10,0,-1,5,-2,-2,0,5
89433315022,2,-6,-2,7,4,-1,-2,-12
89433315820,20,4,17,1,1,0,1,30
89433315820,-11,16,-4,-2,-4,-4,-3,-21
89433329605,-9,-9,9,0,0,0,-1,18
89433329605,-6,-3,-12,-2,1,2,-3,-9
89433337604,-4,-8,9,-3,-1,-2,5,2
89433337604,-8,-4,-2,-5,-2,0,-3,8
89433352413,20,5,-3,1,0,-3,-3,-15
89433352413,-4,-1,1,1,2,0,-1,-2
89433353172,-2,-16,-18,-3,-1,1,7,-9
89433353172,-2,-4,3,0,-2,-4,1,8
89433375059,1,-3,-11,-3,-3,-2,-2,-17
89433375059,-8,1,4,1,2,3,8,1
89433375797,7,1,-7,-4,-1,-4,-28,-9
89433375797,-13,-7,3,-2,-3,-1,-2,14
89433390825,24,6,-3,-2,-1,0,-5,1
89433390825,-16,-5,1,-1,0,-2,4,18
89433397674,0,11,3,-2,0,1,-5,-31
89433397674,3,-2,-4,-1,0,2,-2,-8
89433412684,-30,-3,2,-2,-2,-4,11,6
89433412684,-2,-4,-1,-2,-1,2,19,5
89433413422,-5,7,-1,-1,-2,-2,-17,16
89433413422,20,2,3,2,2,-5,9,23
89433435198,-16,-4,-3,2,2,-1,-1,-27
89433435198,0,-7,0,-1,-5,-6,-6,-14
89433435781,-15,4,-1,-2,-1,0,-1,5
89433435781,13,3,-2,-4,-1,1,-35,-19
89433449284,6,-1,1,1,0,1,-7,12
89433449284,-1,1,1,0,2,3,-30,-8
89433457421,2,4,-1,0,1,1,8,-10
89433457421,19,-1,1,-2,0,0,-7,22
89433472446,-6,-2,-2,-5,-10,-6,4,-5
89433472446,9,-1,0,3,-1,4,-33,-6
89433473392,1,-2,-2,2,13,0,-2,4
89433473392,2,-4,-2,-3,-3,-1,9,-9
89433494944,-15,-1,-1,-4,-3,1,8,-6
89433494944,11,4,2,-1,-9,-17,-8,1
89433502555,-1,1,0,-1,-2,3,7,-1
89433502555,-4,-1,0,4,11,15,12,2
89433509390,12,-1,-3,1,19,11,3,-2
89433509390,5,-1,0,-1,-6,-7,16,4
89433517672,2,3,3,0,-9,-9,-17,5
89433517672,18,0,1,-5,-10,-11,3,-16
89433532577,-12,1,1,-5,-16,-7,-10,2
89433532577,6,1,0,3,23,19,27,9
89433533309,-16,-2,-3,-1,1,-3,39,4
89433533309,22,3,4,3,3,7,-12,-13
89433556414,23,-2,-2,0,-2,4,-2,12
89433556414,-1,0,-2,-6,-12,-17,-8,-2
89433557210,-6,-4,-5,-9,-19,-23,-6,-13
89433557210,-29,-6,-7,-13,-23,-29,-10,-6
89433569524,4,3,-1,7,0,25,24,8
89433569524,-20,-3,3,10,59,45,6,-1
89433577724,14,1,2,6,18,26,0,-1
89433577724,-15,-1,0,0,-26,-35,-8,0
89433592655,1,0,-1,-16,-57,-48,-17,-5
89433592655,-10,-8,-11,-18,-17,-5,-3,-8
89433593363,4,3,-3,12,22,40,17,5
89433593363,3,6,9,23,111,85,22,13
89433615204,7,6,9,26,59,27,4,3
89433615204,-5,-9,-1,-12,-55,-49,-11,-4
89433615827,-5,-1,-5,-22,-91,-77,-26,-12
89433615827,-7,-8,-14,-10,-54,-53,-10,-5
89433630868,3,10,-16,4,9,-45,-6,-1
89433630868,-6,-29,-36,-7,42,75,11,-2
89433637730,-4,-1,9,-19,12,22,0,-4
89433637730,-12,-6,3,-4,-3,-3,2,0
89433652544,0,-3,-4,-7,-16,-2,-6,2
89433652544,1,9,-1,7,-19,-36,-9,-4
89433653341,-1,-4,-6,8,-9,-1,-2,-3
89433653341,-2,4,8,0,45,46,10,3
89433675155,-7,-7,-6,8,11,11,1,-3
89433675155,0,8,8,3,-23,-21,-1,0
89433675799,4,-1,-1,-12,-11,-6,-8,-2
89433675799,-7,4,5,-1,-15,-21,-5,-2
89433689331,0,-1,2,-5,4,9,-1,1
89433689331,0,8,3,-2,6,4,1,-1
89433697520,2,-3,1,15,22,3,2,0
89433697520,-1,6,1,19,-11,4,0,0
89433712649,-4,-7,-7,-43,-6,-4,-6,-4
89433712649,2,3,0,17,-6,-1,1,3
89433713239,-6,-6,-11,-16,5,-7,-1,-3
89433713239,-3,-4,-1,-3,-8,-5,0,-1
89433735181,-3,0,10,7,-3,4,-4,-2
89433735181,7,9,18,13,13,-3,2,-1
89433735806,-5,-1,-1,5,9,6,1,9
89433735806,-3,-4,-4,-5,-10,-3,-1,-2
89433749570,2,4,8,12,4,1,-2,0
89433749570,-1,1,-3,-9,-3,-4,-1,0
89433757640,-7,1,11,11,8,4,-1,-3
89433757640,5,-11,-13,-16,-11,-5,-2,0
89433772666,-10,-8,-8,-1,-3,1,-1,0
89433772666,4,-2,-3,-5,-5,-5,-4,-6
89433773339,-9,-6,-6,-5,-2,0,-1,-12
89433773339,6,0,-1,-2,-1,-1,3,31
89433795021,-3,-2,1,1,0,3,-2,-34
89433795021,-5,-5,4,-2,1,3,1,1
89433795795,4,3,-1,19,5,-1,-2,-1
89433795795,-8,-8,-12,-8,-7,-4,5,-7
89433818178,-4,1,-4,-1,-3,-5,-4,13
89433818178,18,10,2,-5,-1,-2,-11,2
89433819017,-11,-7,-6,-4,3,1,9,-8
89433819017,18,7,-14,-1,-3,2,4,-4
89433832695,-3,-13,21,2,-4,-6,-10,22
89433832695,-3,-2,0,-1,2,-2,-9,-7
89433833407,11,5,1,-3,-1,-2,5,5
89433833407,-1,-4,-1,-1,-2,-1,-3,-8
89433855026,-2,3,-4,-3,-1,1,5,0
89433855026,-7,-3,-1,-3,-1,-1,0,-2
89433855971,11,5,-4,0,1,-1,-7,16
89433855971,-15,-5,3,-2,-1,2,4,-4
89433869578,6,1,-4,1,-1,-4,-2,-5
89433869578,-9,-2,0,0,-3,-1,6,10
89433877695,1,0,-3,-3,1,2,-3,-7
89433877695,-4,1,7,1,0,0,0,19
89433892538,-4,2,-3,-1,-3,-1,-7,-31
89433892538,3,-2,-7,-2,-5,-5,-5,-4
89433893336,-1,-1,3,-2,-2,-3,-2,-1
89433893336,-6,-4,0,-3,-1,-2,-12,-8
89433914919,0,-1,2,2,3,4,11,6
89433914919,-3,-2,1,-1,-2,-2,-19,-5
89433915701,-2,-2,-3,-5,-7,-10,-6,-11
89433915701,-4,3,2,-1,-4,-8,7,-3
89433929299,3,0,-5,0,5,15,5,6
89433929299,-8,-3,1,2,7,-1,-4,-7
89433937520,12,-2,1,1,0,1,11,5
89433937520,-1,1,-2,0,-4,-3,-8,-9
89433952668,1,-3,-3,-3,-7,-5,8,3
89433952668,-2,1,-5,-1,-1,2,-4,1
89433953397,0,-2,-3,-1,3,1,13,0
89433953397,4,-1,2,-1,0,-3,11,0
89433975116,-1,-1,-3,0,0,0,-5,1
89433975116,2,2,2,-1,0,2,-2,-6
89433975804,-4,-1,0,-2,-2,-2,-3,0
89433975804,-5,-1,-1,-1,1,2,2,2
89433998205,-1,2,-1,0,-2,-2,-9,4
89433998205,-3,-7,-3,-2,-2,2,11,-4
89433999010,-6,0,1,0,5,4,-4,-4
89433999010,-3,0,1,-1,-5,-8,-6,-5
89434012398,0,-1,-1,-10,-32,-30,-16,-6
89434012398,-3,-2,-6,-4,-18,-12,9,2
89434013127,-1,0,-5,10,60,69,15,3
89434013127,5,5,7,11,37,37,4,0
89434035079,2,3,6,6,-3,-10,-3,1
89434035079,1,1,14,-1,-25,-33,-3,0
89434035876,-5,-3,-20,-13,-38,-39,-20,-4
89434035876,-3,-2,-1,-5,-10,-8,-14,-9
89434058135,-6,-5,-8,-7,9,11,16,1
89434058135,0,0,-1,-3,2,4,1,-1
89434059108,-3,-1,4,-1,-1,-5,2,-2
89434059108,-1,1,4,1,0,1,-3,-2
89434072948,0,0,-9,-1,0,-2,-3,2
89434072948,-2,-2,0,6,10,10,3,1
89434073832,3,6,-2,0,0,-1,-6,-1
89434073832,-1,2,-6,-4,-8,-9,0,-4
89434095129,2,3,7,2,0,1,-2,2
89434095129,-1,3,1,-5,8,8,1,-2
89434095831,0,-5,9,2,-5,-7,-2,0
89434095831,0,-4,8,1,-10,-11,-3,-2
89434118272,-1,3,-4,2,6,4,1,0
89434118272,1,-1,-3,-4,3,4,2,1
89434119010,-2,-2,2,-3,-7,-11,-4,0
89434119010,-1,0,-1,-2,-1,0,-2,-4
89434132547,-3,-4,2,1,5,5,1,0
89434132547,3,-3,-5,0,-2,-4,2,0
89434133279,-5,-2,-1,-2,-10,-11,-12,-4
89434133279,-3,-6,-9,-5,-1,2,-2,0
89434155240,0,0,-11,0,4,0,5,0
89434155240,2,0,-2,0,1,-1,0,1
89434155845,1,-1,9,2,-1,0,-7,-2
89434155845,-5,0,-1,0,-3,-2,3,0
89434185706,5,-8,-5,-7,-9,-7,-12,3
89434185706,2,1,2,3,3,2,3,1
89434186655,0,1,11,2,6,4,5,4
89434186655,20,-5,-16,-6,-4,-8,-7,-4
89434192647,-9,-4,-15,1,-3,0,13,2
89434192647,-5,-3,-5,7,9,4,-5,-3
89434193462,1,-1,-6,-9,-16,-9,-6,-2
89434193462,3,0,2,-27,-7,2,-4,1
89434223188,-3,-4,6,-2,7,1,-4,-3
89434223188,0,0,4,4,2,0,-2,-5
89434224030,4,1,7,18,7,1,5,3
89434224030,-9,-3,-2,31,-5,-8,-2,-3
89434238128,-6,-9,-28,-67,-14,-7,-14,-6
89434238128,-7,0,-1,-4,5,3,13,-1
89434238886,0,-4,-4,-7,0,3,1,-1
89434238886,-8,4,17,13,2,-5,-4,0
89434252737,-2,2,-3,7,3,2,-5,-4
89434252737,2,-5,-1,3,-8,-7,1,1
89434253272,-2,2,3,-4,-2,-3,-4,-5
89434253272,-4,-1,-4,4,1,2,1,0
89434275131,0,2,21,19,4,3,4,-6
89434275131,0,-3,-5,-11,-8,-3,0,24
89434275817,-1,2,3,8,-1,-5,-1,-4
89434275817,0,0,-4,-4,4,6,2,-5
89434298206,2,5,10,9,1,-2,1,0
89434298206,0,-2,-2,-8,-6,2,-7,-8
89434299165,-6,-5,-12,-9,2,-4,1,17
89434299165,33,1,-5,-9,-18,-9,3,-2
89434312679,-38,0,7,7,21,21,0,-1
89434312679,2,3,3,10,11,11,-2,-6
89434313291,-5,-3,-7,7,-7,-6,-2,5
89434313291,-17,-7,-6,-19,-7,-10,-7,-5
89434335138,12,-3,-1,3,-14,-12,0,-1
89434335138,-4,1,-3,-7,-3,-7,-16,-4
89434335731,-2,-1,5,3,3,4,6,-7
89434335731,-10,-3,6,5,1,-1,-1,0
89434358206,4,-4,-17,-9,-4,-2,0,-4
89434358206,-8,-3,-11,-7,0,0,0,-6
89434358965,12,-2,-4,-7,-7,-4,-5,2
89434358965,-5,-3,-7,2,3,2,0,-2
89434372396,8,3,6,5,1,0,-2,1
89434372396,-4,0,1,0,-1,-1,3,-6
89434373278,-1,-1,-4,-4,-3,0,0,-8
89434373278,-22,-6,-14,-13,0,2,-3,2
89434395055,14,4,4,7,0,-3,2,2
89434395055,0,-7,-8,-6,-6,-5,1,5
89434395853,-7,-2,-7,-7,0,1,-2,-7
89434395853,-24,0,17,19,4,2,5,4
89434418174,24,-2,-14,-3,-4,-3,-7,-15
89434418174,8,-2,3,-28,-6,-4,-1,11
89434418884,-23,-1,-4,2,0,1,-10,-38
89434418884,3,-3,-1,-5,-2,-1,2,-1
89434432463,-12,-8,-7,2,-2,-3,0,3
89434432463,12,8,10,14,1,2,4,0
89434433234,-8,0,1,-6,0,0,-2,7
89434433234,3,0,-2,-2,2,0,-1,-5
89434454920,-10,1,9,4,1,0,0,-6
89434454920,1,4,-1,17,1,0,-1,-5
89434455717,10,0,3,9,-1,0,3,9
89434455717,4,-1,-2,-29,-4,-3,-2,-9
89434478104,1,-5,-2,-4,2,1,-2,25
89434478104,16,3,5,3,1,-1,-1,18
89434478918,-18,1,6,0,0,0,0,-4
89434478918,25,8,6,8,3,0,-4,-8
89434492530,-11,-1,7,5,-2,-2,1,8
89434492530,-3,-3,0,-6,-2,-1,0,-1
89434493350,-34,-7,-1,6,2,-2,-1,6
89434493350,0,-3,-18,-2,-1,0,0,8
89434514987,-3,7,17,-1,2,2,0,-6
89434514987,-7,-3,-12,3,1,0,-1,-11
89434515826,8,-13,-29,-19,-14,-11,-7,-6
89434515826,21,-5,5,9,-1,0,-3,-6
89434538057,-23,-5,-2,1,-1,-3,-7,-20
89434538057,-4,2,4,-1,2,0,-1,-7
89434538844,17,-3,-1,-4,-2,-1,5,19
89434538844,-16,1,-3,-2,-2,-4,-27,-24
89434551891,3,-2,-10,-1,-1,0,15,2
89434551891,-30,-7,4,0,0,-1,-3,2
89434559993,27,10,2,-5,-1,2,3,2
89434559993,-11,-7,-10,-2,-4,-1,-1,7
89434574974,6,0,1,-2,0,-2,-5,4
89434574974,-14,-4,-6,0,-1,-1,-4,-12
89434575772,8,0,-3,-5,1,1,0,1
89434575772,0,2,4,2,2,1,8,12
89434598107,-2,1,4,4,-1,1,-2,-2
89434598107,4,-5,-7,-5,-5,-2,3,2
89434598953,5,1,0,1,-1,-1,-2,-4
89434598953,1,4,6,2,2,1,5,19
89434611765,9,3,2,1,2,0,0,-10
89434611765,-1,-1,-4,-2,-3,-2,-1,-10
89434627465,27,5,6,-2,3,2,-1,-4
89434627465,1,2,5,3,-1,-1,4,6
89434635007,-10,-6,-7,-2,-2,-1,-2,4
89434635007,8,-3,-21,-21,-5,-5,-4,-2
89434635741,2,-3,-3,-5,1,1,-1,-3
89434635741,9,2,2,-1,-2,-3,2,15
89434658240,9,1,4,5,-1,-1,-3,-4
89434658240,8,2,12,12,2,0,0,-4
89434658869,-32,-3,8,5,-1,0,2,-6
89434658869,0,-6,-14,3,-3,-3,-1,11
89434671847,-1,0,0,-37,-3,0,0,-2
89434671847,-24,-6,-8,-7,-4,-2,-3,0
89434679993,27,2,0,-2,-1,-1,0,21
89434679993,-15,-1,3,1,-1,0,-2,-26
89434695035,2,-1,2,9,0,0,2,12
89434695035,21,3,-1,0,-1,0,1,4
89434695737,-12,-1,0,-3,0,-1,-4,-24
89434695737,-30,-8,-6,2,-3,0,0,-17
89434718208,-2,-3,-8,-3,-4,-4,-6,-1
89434718208,2,1,6,-1,-1,-1,-1,-3
89434718954,-40,-4,2,7,-2,-1,-1,-7
89434718954,12,1,-9,-7,-2,0,5,3
89434731800,-9,-5,-4,1,-2,-3,0,-3
89434731800,-9,-1,3,5,0,1,-2,3
89434739910,2,-2,-2,-6,-2,-2,-6,-3
89434739910,-20,-1,-3,-7,0,-1,-2,-2
89434755024,4,-2,-7,-3,-5,-5,-2,-7
89434755024,12,3,-2,3,0,0,2,-3
89434755732,-8,-2,16,7,-1,1,-1,4
89434755732,10,-2,-10,-7,-2,0,-1,-1
89434778209,-2,1,2,6,-1,-2,-2,0
89434778209,-11,-1,0,0,1,-2,-3,-10
89434778927,-4,0,-3,-3,-3,1,3,2
89434778927,2,4,11,0,0,-4,-2,2
89434791840,-2,-1,1,3,0,1,-3,-9
89434791840,8,1,-2,-3,-2,-1,2,7
89434800060,12,-1,-7,-3,0,0,0,11
89434800060,5,-1,2,0,-2,1,-1,-1
89434814934,27,4,-3,-1,1,0,-3,-3
89434814934,-18,-2,1,0,1,0,3,0
89434815648,9,0,0,0,0,-1,-1,-1
89434815648,-5,-4,-5,-2,-1,-4,-2,-6
89434838121,10,1,-2,0,-1,-1,1,5
89434838121,-5,-3,5,0,-3,-1,-2,-2
89434838898,-16,-2,-5,-2,-1,-1,1,-4
89434838898,-1,-4,2,-1,-1,0,-4,-2
89434851843,12,4,4,1,-1,1,2,14
89434851843,3,1,0,-1,0,-2,-4,-7
89434860073,-5,-1,-3,-3,-1,-3,-5,-4
89434860073,-1,-1,0,2,0,-2,1,0
89434874950,-11,-5,-9,-13,-2,-3,-2,2
89434874950,-1,-2,-2,0,-1,0,-4,-4
89434875728,11,-2,-2,-1,-1,-2,1,-1
89434875728,-12,2,5,2,0,0,1,-14
89434898203,-10,1,2,4,1,1,-2,-9
89434898203,5,1,2,-3,-2,0,0,3
89434898864,-10,-3,-9,-4,-2,-2,-1,-6
89434898864,14,0,-1,-1,0,-1,-4,3
89434920672,-21,-2,0,2,-1,-2,3,4
89434920672,2,-3,-3,-3,-1,-3,-2,-9
89434921467,4,0,-2,0,0,0,0,-1
89434921467,-2,0,-2,-4,-1,-2,-4,0
89434934975,-6,-2,0,-1,-1,0,0,0
89434934975,10,1,-4,-1,-2,-2,-1,-9
89434935710,-2,-3,-2,1,0,-2,1,-3
89434935710,1,-2,3,-3,0,-1,0,2
89434965610,6,0,2,-2,-2,-1,-3,-6
89434965610,-18,-3,-4,1,0,-1,-1,-7
89434966426,17,1,-2,-3,-2,-1,-4,3
89434966426,-6,-2,-6,-2,-1,-1,-1,-3
89434980712,-10,-4,0,-1,-1,-1,1,-3
89434980712,-5,0,3,0,-1,0,-2,-12
89434981393,5,-2,-5,-3,-3,-1,-2,-4
89434981393,0,-1,0,0,-1,0,0,10
89434995041,-17,-3,-3,-2,-2,-2,0,-6
89434995041,-3,-5,-2,-2,1,-1,-1,15
89434995752,2,1,0,0,0,-1,0,0
89434995752,1,1,0,-3,-2,-1,-2,-2
89435018177,11,0,-3,-1,-1,0,-4,-1
89435018177,-57,-8,-4,-3,-3,-1,-2,-5
89435018899,19,0,1,-1,1,-1,0,12
89435018899,-14,-4,-3,0,-3,-1,1,-29
89435040611,-1,-2,-3,-1,0,-1,-2,9
89435040611,13,-2,-5,-3,-2,-2,1,14
89435041375,-5,0,-3,-4,-2,-2,-2,-15
89435041375,0,0,1,-1,-1,-2,0,12
89435054921,3,0,-6,-3,-3,-2,0,-9
89435054921,6,3,2,-1,-1,-2,-3,-2
89435055696,-9,-3,1,1,0,-2,-1,6
89435055696,7,-1,-1,0,-1,-1,-2,1
89435078153,-7,-2,2,3,0,-2,-2,-6
89435078153,11,-2,-3,-2,-2,-2,-4,12
89435079002,-12,-1,-2,-1,-2,0,0,-4
89435079002,3,-3,0,-2,0,0,0,8
89435100851,1,1,0,-1,-3,-1,-1,-8
89435100851,0,-2,-2,0,-1,-1,0,-3
89435101506,19,0,-2,-3,-2,-2,-2,-1
89435101506,-9,-3,-2,1,-1,-2,-1,-2
89435114975,-4,-2,3,2,-1,1,3,1
89435114975,21,0,1,-1,-1,-3,-3,1
89435115996,0,4,3,1,-2,-1,-3,4
89435115996,2,4,2,-1,-2,-1,6,11
89435138104,9,3,0,1,1,-1,-3,8
89435138104,-4,-1,0,0,-2,0,2,-3
89435138857,-4,-3,-2,-1,0,-1,-1,3
89435138857,-35,-4,-3,-3,-1,-3,-4,-2
89435161519,-6,-3,-2,-2,0,-1,0,1
89435161519,6,1,1,-2,-2,-2,0,4
89435162980,-12,-2,0,-2,-1,-1,-1,6
89435162980,9,0,-3,-1,-1,0,-2,-17
89435174220,15,1,-1,1,-1,-1,0,1
89435174220,-4,-2,1,0,-1,1,-2,-1
89435183276,-9,-3,-4,-3,-1,-1,-1,-8
89435183276,-7,-3,-3,-1,-2,-1,-1,-4
89435198353,3,0,1,-1,-2,1,0,8
89435198353,8,0,-2,0,-2,0,-3,-13
89435199746,-8,-4,-4,-2,-1,-1,-1,-3
89435199746,18,3,2,-1,-1,-1,-1,1
89435220641,-7,-5,-2,-2,-3,-2,-4,5
89435220641,12,-2,-1,0,0,-1,0,18
89435222311,-18,-1,0,-1,0,-1,0,-17
89435222311,8,-2,-1,1,0,-1,-3,3
89435234355,-3,-4,-3,-4,-3,-2,2,-9
89435234355,8,1,0,-2,-1,-2,-1,6
89435243303,0,-3,-2,0,-1,-2,-1,1
89435243303,4,-2,-1,-1,-2,-2,2,4
89435258252,5,1,0,0,-2,-2,-2,-3
89435258252,-44,-4,-2,0,-1,-4,-2,-19
89435259741,0,-2,1,-1,-1,0,-2,1
89435259741,-3,0,0,-1,-2,0,-1,-5
89435280628,4,-3,-1,0,-1,-1,-3,-7
89435280628,4,1,0,-2,-1,0,-1,2
89435282179,-2,0,1,-1,-2,-1,1,-1
89435282179,-3,-1,0,-2,1,-2,-2,0
89435294348,-5,-2,-2,-2,-2,2,-1,-1
89435294348,5,-1,-1,-1,-2,-2,4,9
89435303338,-4,-2,-3,-2,-1,-1,-3,-3
89435303338,0,-2,-2,-1,-4,-1,-1,0
89435318134,0,1,1,-1,-1,-3,-3,-2
89435318134,3,0,-2,-2,-1,0,0,-6
89435319836,11,0,0,0,0,-1,1,29
89435319836,-11,1,0,1,0,0,0,-20
89435340705,3,-2,-6,-2,-3,-3,-2,4
89435340705,0,0,0,1,0,-3,-2,-3
89435342402,3,0,-1,-1,-2,-2,2,1
89435342402,-1,-4,-3,-2,-2,-1,-2,4
89435354526,-4,0,1,1,2,1,2,10
89435354526,12,1,-1,0,-1,-1,2,5
89435363351,-5,-2,-4,-2,-2,-2,-3,-8
89435363351,28,-1,-5,-3,-1,-1,2,0
89435378085,-17,-3,0,-1,0,-2,-2,-4
89435378085,4,-3,-2,-1,0,1,-1,2
89435379687,-4,-2,0,-2,-1,-1,-1,-7
89435379687,4,1,0,0,0,0,-1,4
89435400614,15,0,-3,-2,0,-1,1,-2
89435400614,-12,-2,0,-1,0,0,-2,-12
89435402239,0,-2,-1,0,-3,-1,-2,-7
89435402239,5,2,2,1,-1,0,-1,13
89435414330,-6,2,-1,0,-2,-2,-3,-7
89435414330,-4,-1,0,-1,-2,-2,-3,-1
89435423265,-5,-1,1,0,0,-1,-1,1
89435423265,0,-3,-2,-2,-1,-2,0,5
89435438077,-7,-1,1,0,0,-1,0,-4
89435438077,3,-2,-2,-1,-2,0,-2,-1
89435439661,-3,0,-1,-1,-2,-1,-1,-1
89435439661,-9,0,1,-1,-1,-1,-3,-7
89435461105,-21,-4,-3,-3,-2,-2,-1,-3
89435461105,16,3,3,0,1,1,0,4
89435462770,9,1,-2,0,-1,-1,1,0
89435462770,-2,-4,-2,-2,-1,0,-2,-14
89435474278,-35,-2,0,1,-2,-2,-3,3
89435474278,-5,-2,-1,-1,-1,0,-1,1
89435483269,-3,-1,-1,-1,-1,-1,-2,-7
89435483269,2,2,-2,-3,-1,-3,-1,0
89435498130,-6,-1,-1,-3,-1,-1,4,8
89435498130,-6,-4,-2,-2,-2,-2,-4,-14
89435499764,11,1,0,-2,1,-1,1,10
89435499764,-21,-1,0,0,0,-1,-1,-17
89435520675,15,-2,-2,-1,0,-1,-3,-3
89435520675,-15,-4,-2,0,0,1,0,-7
89435522289,11,1,2,-1,-1,0,2,-2
89435522289,0,-3,-2,0,-2,-1,-7,6
89435543315,4,1,-1,0,0,1,3,-3
89435543315,-9,-2,0,0,-1,-2,1,1
89435544953,4,-4,-2,-1,-2,-1,-3,-2
89435544953,-7,-2,3,0,0,0,1,8
89435558086,12,2,3,2,-1,-1,1,-7
89435558086,2,0,0,-2,-2,-2,-1,2
89435559661,-11,-2,0,-2,-1,-2,-1,-3
89435559661,-26,-4,-3,-2,-3,-3,-2,2
89435580666,4,2,3,0,-1,0,-4,-5
89435580666,1,-1,-1,-1,1,-1,1,1
89435582291,-13,-3,-1,-1,-1,-1,-2,-6
89435582291,6,1,-1,0,0,-1,0,0
89435594300,-12,-4,-2,-2,-2,-3,0,-2
89435594300,26,0,0,-1,-2,-1,0,12
89435609327,7,3,1,3,1,0,-3,-3
89435609327,0,-4,-4,-2,-2,-2,1,2
89435618154,1,-3,0,-1,0,0,0,-2
89435618154,-1,2,-2,-1,0,-2,1,1
89435619822,-6,0,-2,1,-2,-2,-3,-2
89435619822,2,-2,2,-1,0,0,-2,-2
89435640673,9,-2,-2,-3,0,-3,-1,11
89435640673,-8,-3,-3,0,-2,-1,-2,-7
89435642253,-3,-2,-1,-2,0,-2,0,-2
89435642253,2,2,2,1,-2,0,-4,-8
89435654332,1,-2,-4,-2,-3,-2,-3,-4
89435654332,-9,-3,-3,0,-3,0,1,5
89435663256,10,0,0,-3,-3,-2,-1,0
89435663256,4,-1,-1,0,-3,0,-1,7
89435678309,2,-2,-1,-1,0,0,-2,-2
89435678309,-4,0,-2,0,2,0,-1,-2
89435679811,-9,-2,-1,-1,-1,0,-1,-2
89435679811,3,-2,-2,-2,0,-1,-1,-1
89435700817,4,0,-1,-1,-1,-1,1,2
89435700817,-6,-3,-3,0,-1,-2,-1,-3
89435702376,-3,-3,-2,0,-3,-1,-1,-3
89435702376,3,0,-1,-2,-1,-2,-1,-1
89435714528,-7,-2,-1,1,-2,0,-3,-6
89435714528,9,-2,-6,-6,-1,-1,-2,1
89435723396,-5,-2,0,1,0,-3,-1,-5
89435723396,-1,0,2,1,-3,-1,0,1
89435738776,0,1,-3,2,1,-1,-2,1
89435738776,-3,-5,-5,-7,-4,-1,-4,-4
89435740181,3,0,-4,-3,-1,0,0,9
89435740181,-4,1,-2,1,1,-2,-2,-5
89435760904,-1,-2,-3,-1,-2,-1,-2,-3
89435760904,0,0,2,1,-1,-2,-3,-3
89435762392,-6,0,1,1,1,0,0,-4
89435762392,1,-3,0,-2,0,-2,-1,-1
89435774458,1,0,1,-1,-1,0,0,-2
89435774458,-3,-3,-2,-1,0,-2,1,-4
89435783332,-3,-1,-1,-4,-2,1,-2,-2
89435783332,0,-1,0,1,-2,0,-1,0
89435798076,1,0,-1,0,0,-1,-1,-3
89435798076,-6,0,0,0,-1,-1,-1,-3
89435799695,0,-2,-3,-1,-2,-3,-3,-11
89435799695,-4,-4,-6,-3,-3,-3,-2,2
89435820687,-4,-2,3,-1,-1,0,-2,1
89435820687,-6,-5,-5,-3,-3,-2,-1,-1
89435822316,2,-1,-2,-1,-2,-1,-2,-12
89435822316,-9,-1,-1,-1,0,-1,0,-1
89435834311,11,-1,-3,-1,-3,-2,0,-2
89435834311,-1,1,2,0,-1,-2,-3,8
89435843297,-15,-2,-1,0,-1,-2,0,4
89435843297,3,1,0,-1,-1,1,0,2
89435858223,-7,-1,-2,-1,-3,-1,-1,-4
89435858223,3,-1,-1,0,-2,-2,-2,-4
89435859820,4,0,1,0,1,1,-3,3
89435859820,1,-1,-2,-1,0,-1,0,-2
89435880589,-5,0,1,-1,-1,-3,1,1
89435880589,0,1,3,-1,-1,-1,0,0
89435884961,0,-5,-4,-2,-2,-1,-2,0
89435884961,1,-1,-1,-1,-1,-1,0,-4
89435903127,0,-2,-1,-3,0,-1,-1,-1
89435903127,-3,-1,0,0,1,-1,0,-4
89435907886,-2,1,-3,-2,1,-1,-2,-1
89435907886,-7,-2,-1,-1,-1,1,-1,-3
89435918096,6,-1,-4,-2,-2,-1,-3,3
89435918096,2,-2,-1,0,-2,-1,0,-10
89435919709,1,0,-1,-1,0,-1,1,3
89435919709,-1,-2,-2,-1,-1,-2,0,-2
89435940648,7,1,-2,0,-2,-2,-1,6
89435940648,-3,0,0,1,0,0,-1,-4
89435942253,2,-1,-2,1,-2,-1,-2,2
89435942253,-1,-3,-2,-2,0,-1,0,2
89435963076,1,-5,-5,-3,-2,-2,-3,6
89435963076,1,2,1,0,-2,1,0,1
89435964691,-5,-2,-2,-1,-2,-1,-2,-3
89435964691,14,1,0,-1,-1,-2,0,3
89435978074,-6,-3,2,0,1,-1,0,-2
89435978074,-18,-3,-3,0,-2,-3,-2,-6
89435979716,-1,1,1,-1,1,0,1,-2
89435979716,1,2,-1,-2,-3,1,0,4
89436000606,-2,-1,-6,-2,-3,-2,-1,-5
89436000606,5,0,-1,-2,0,1,-1,0
89436002269,-8,0,1,1,-2,-2,0,2
89436002269,1,-2,-2,-1,-1,-1,-3,7
89436023065,-21,-2,-1,-2,1,-1,-2,-23
89436023065,27,3,0,-2,0,-1,0,19
89436024699,-2,-2,-1,-3,-3,-1,0,1
89436024699,2,1,1,0,-1,0,0,-2
89436037602,-4,0,0,0,0,0,-2,0
89436037602,-7,-4,-2,0,-1,-2,0,-6
89436044513,-1,-1,0,-2,-2,-2,-1,-6
89436044513,-2,-1,-2,-2,0,-1,0,-6
89436060622,-7,1,2,1,-1,2,-1,-5
89436060622,12,1,0,-1,0,-1,-1,0
89436062265,-21,-5,-2,-3,-2,-1,-4,-24
89436062265,-9,-4,-1,-1,0,-2,-2,-5
89436083342,3,-1,1,2,-1,1,2,4
89436083342,26,0,-2,0,-1,-1,-3,1
89436084774,-5,0,3,2,-1,0,1,8
89436084774,-17,-3,-3,-1,-3,-1,-3,3
89436097567,8,1,1,-2,-1,0,-1,2
89436097567,-22,-3,-4,-3,0,-1,-2,-14
89436104509,20,2,0,2,0,-1,2,5
89436104509,5,0,0,-1,-2,0,3,-7
89436119717,9,1,0,1,-1,-1,0,6
89436119717,-19,-2,-2,-6,-3,0,-2,-7
89436128374,0,-3,-4,-2,-1,-1,-1,-1
89436128374,-1,-1,-3,0,1,0,-5,-2
89436143141,-3,-1,0,-3,-3,-3,-1,-6
89436143141,-2,0,-1,-5,-2,-2,2,1
89436144751,-6,-4,-3,2,0,-2,-1,0
89436144751,10,0,0,9,-1,-1,-1,3
89436156817,-2,0,-3,-3,0,-1,-1,-3
89436156817,-3,-1,-1,-3,1,-1,-2,12
89436165815,0,-3,2,-10,-4,-3,-3,-37
89436165815,-11,0,1,4,1,-2,-2,5
89436180662,0,-2,-1,5,0,-3,1,-4
89436180662,-6,1,-2,-8,0,-2,0,-3
89436182285,-1,-2,-4,3,0,-2,-2,7
89436182285,-12,-5,0,0,-9,-5,-2,1
89436203173,10,4,5,-4,-2,1,-1,-6
89436203173,17,0,0,2,-1,-1,0,0
89436204807,4,3,-1,-8,2,2,0,4
89436204807,-5,-4,4,3,2,0,-4,3
89436216850,-7,-2,-7,-9,-2,-1,2,8
89436216850,-2,-3,-1,-1,-2,0,-1,-5
89436225741,-3,1,0,1,-1,-1,-1,0
89436225741,8,-1,-2,-4,0,-4,-4,-5
89436240557,12,1,-2,0,-1,-4,-2,-1
89436240557,-5,-2,0,2,0,-1,-1,9
89436242218,-3,-4,-1,0,-2,0,-3,3
89436242218,7,2,-1,-5,1,-1,1,12
89436263081,-38,-10,-4,-4,0,-1,-5,-21
89436263081,15,3,0,6,-1,-2,1,3
89436264747,-2,-1,-1,0,0,-1,0,8
89436264747,-6,1,-3,-6,1,1,-1,-11
89436276994,14,0,2,2,-1,0,-2,8
89436276994,-47,-4,2,2,0,0,-2,-12
89436291728,-8,-4,-6,-1,-1,-2,-2,-12
89436291728,15,4,0,-7,-1,1,-1,-2
89436300556,-9,-2,0,0,-3,-3,0,1
89436300556,8,0,-3,-6,-2,0,0,-2
89436302264,3,-1,5,16,0,1,-2,7
89436302264,-11,-3,-4,2,-1,-1,1,-9
89436323114,-4,-1,-1,0,-2,0,-3,4
89436323114,7,-2,-1,-2,-3,-1,1,5
89436324774,3,2,-3,-5,0,0,2,-3
89436324774,9,1,1,-2,-2,0,-2,-4
89436336760,-4,-1,-1,0,-1,-1,-3,-3
89436336760,3,0,1,3,0,-1,-2,0
89436345866,-6,-2,-1,-4,-1,0,0,3
89436345866,-1,-4,-2,-1,-1,0,-2,-5
89436360628,5,-1,-2,-2,-1,-3,-1,2
89436360628,-14,-4,-2,2,-2,-2,-4,-20
89436362274,23,-1,-2,-3,-1,-2,0,4
89436362274,-5,0,0,0,0,0,0,0
89436383051,2,-1,-2,-1,0,2,1,1
89436383051,-1,-3,-2,-5,-2,-2,0,3
