timestamp,emg1,emg2,emg3,emg4,emg5,emg6,emg7,emg8
59369711940,-5,-4,-3,-2,-1,-1,0,-3
59369711940,-1,-2,-1,-2,-1,-2,0,-3
59369713530,0,0,-4,-3,-3,-1,-2,1
59369713530,-8,-2,-1,-1,0,0,0,-1
59369734478,4,-1,1,0,-2,-1,-2,-2
59369734478,-2,-1,0,1,-1,0,-1,-1
59369736035,-2,3,-1,0,-1,1,-1,-1
59369736035,3,9,2,0,1,-2,-2,-2
59369748095,-3,-6,-3,-2,1,-1,-4,-2
59369748095,0,-1,-2,-2,-1,-1,-1,1
59369757096,-2,-2,0,0,0,-1,-2,0
59369757096,2,2,0,0,1,0,-2,0
59369771957,-3,-3,-2,-1,-1,-1,0,-1
59369771957,4,3,-1,0,-2,1,0,1
59369773581,-4,-3,-2,1,-2,0,-2,0
59369773581,3,1,-2,0,0,-2,-1,1
59369794484,1,-1,0,-2,1,-2,-1,0
59369794484,-3,-6,-2,-3,-1,-2,-1,-2
59369796088,0,2,0,-2,-2,-1,1,0
59369796088,-2,-4,0,-1,-1,1,-1,-4
59369808130,-3,-1,-3,-2,-1,-2,-2,-2
59369808130,-2,1,-3,-1,-2,-3,-2,0
59369817127,0,-1,-2,-2,-1,-1,-1,0
59369817127,-2,-3,-2,-2,-3,-4,-1,1
59369832010,-1,1,0,-3,0,-1,-2,-1
59369832010,-1,-3,0,-1,0,0,-1,-3
59369833835,1,1,-1,-1,-1,-1,-2,-2
59369833835,-4,-3,-1,-2,-1,0,-2,-1
59369854609,-1,-2,-2,-1,-1,-1,1,-1
59369854609,-10,-5,-2,-1,-1,-1,0,2
59369856080,8,1,0,0,-1,-2,1,-2
59369856080,-1,-4,-3,-2,-3,0,-1,1
59369868338,-2,-1,-2,-1,-1,1,0,-1
59369868338,-2,-3,-2,0,-2,-2,-1,0
59369877174,-5,-1,-2,0,-1,-2,-1,-2
59369877174,-2,-1,-3,-3,-2,-1,-1,0
59369892148,1,3,0,0,0,-3,1,0
59369892148,2,1,1,-2,-4,-1,-2,-3
59369893672,-2,-3,-1,-1,-1,0,-3,-1
59369893672,2,1,-1,-1,-1,-1,0,-2
59369914519,-2,-3,-1,-1,-3,-1,0,-2
59369914519,1,-1,1,-1,0,0,-2,-2
59369916144,1,2,-3,-1,-3,-2,-2,-1
59369916144,-4,-2,0,-2,-1,0,1,-2
59369937074,-13,-4,-5,-1,0,-2,-2,-1
59369937074,-2,-2,-3,-1,-1,-3,0,-3
59369938600,-5,-4,-2,-2,1,0,1,-4
59369938600,-2,-3,-1,0,-1,-2,-1,1
59369952247,1,-1,1,-1,-2,-1,0,1
59369952247,-3,-1,0,0,-3,-2,1,-1
59369953700,3,0,1,-1,1,-1,-1,1
59369953700,-2,-4,-1,0,0,0,-3,-1
59369974476,5,7,0,0,-2,-1,-1,-2
59369974476,-6,-11,-1,-4,-1,0,0,-1
59369976059,-1,-3,0,-3,-2,-2,-2,-3
59369976059,0,2,0,-1,-1,-2,-1,-2
59369988144,1,-1,-2,0,-1,-1,-2,1
59369988144,1,2,-4,0,1,0,-2,-1
59369997041,0,-1,-3,0,0,0,1,0
59369997041,-1,-1,0,0,1,-2,-1,-3
59370011750,0,-4,-1,-2,-2,-2,-1,0
59370011750,0,0,-1,0,-2,-1,-1,0
59370018088,-1,1,0,-2,0,-2,-2,-2
59370018088,-1,0,-3,-3,-1,0,-2,-1
59370034451,4,0,-2,0,-3,0,0,-1
59370034451,3,2,-1,0,-1,-1,-3,1
59370036068,-11,-4,-3,-1,-2,-1,-4,-2
59370036068,-2,1,0,-1,-3,-1,-2,-2
59370057005,-7,-4,-4,-2,0,0,-1,-2
59370057005,5,2,0,-2,0,-3,0,-1
59370058570,-10,-21,-2,-2,-2,-2,-1,-1
59370058570,0,5,1,2,0,-3,0,2
59370071395,-2,-1,0,-2,-2,-2,-3,-2
59370071395,-2,1,0,-4,0,-3,2,-1
59370078104,2,3,3,0,-1,0,0,-1
59370078104,4,-1,-3,0,-2,2,-1,0
59370094685,1,-2,1,-1,0,0,-1,-1
59370094685,0,3,-2,-1,0,0,-1,0
59370096168,1,4,1,-2,1,-1,1,-2
59370096168,-3,-5,-1,-3,-2,-1,-1,-3
59370117261,0,2,0,-2,-2,-1,-2,-3
59370117261,-1,-3,-2,-4,-1,-1,-2,-1
59370118648,-2,2,-1,3,-2,0,-1,-2
59370118648,1,-2,0,1,0,1,-1,-2
59370132222,0,-3,0,1,-2,-3,-1,-2
59370132222,-1,-1,2,1,-2,-1,0,-1
59370133690,3,1,-1,0,-2,-1,-2,0
59370133690,0,-2,-2,0,-2,1,-1,0
59370154722,-1,-3,0,0,1,1,0,0
59370154722,-1,0,-3,-2,-1,0,0,-1
59370156220,0,3,2,-3,-1,0,-1,-1
59370156220,0,-1,-2,-3,-2,-1,0,-1
59370177153,-10,-5,-3,-4,0,-1,0,-2
59370177153,6,3,0,-1,-2,-1,-2,-1
59370178672,-9,-18,-1,-2,0,0,-2,-1
59370178672,0,-1,-1,0,-1,-4,-2,-2
59370191633,2,1,-3,-2,0,-2,0,-1
59370191633,-4,-1,-2,-1,0,0,-2,-2
59370198392,2,3,-2,-1,-1,-1,-2,1
59370198392,-1,-3,-1,-1,0,-1,-1,-3
59370215153,1,0,-3,-1,-3,0,-2,-3
59370215153,-1,-2,-1,0,-1,-1,-2,-1
59370216611,3,3,-1,-2,-2,-1,0,-3
59370216611,-4,-4,-3,-1,-1,-2,0,-1
59370237238,1,1,-1,0,-1,-3,-1,0
59370237238,-3,-3,-1,-2,-4,0,-1,-2
59370238656,-1,0,-2,-1,-2,-3,-3,-1
59370238656,-1,-2,-2,-1,0,-2,-1,0
59370251424,0,0,0,-1,-1,-1,-1,0
59370251424,-2,0,-3,0,-2,-1,-4,0
59370258170,-1,1,-1,-1,-1,-1,1,-2
59370258170,0,-1,0,-1,-2,0,1,-3
59370274730,2,-2,-2,1,2,2,1,0
59370274730,-2,-2,0,-1,2,-1,-1,-3
59370276085,1,2,0,-2,-3,-1,-2,-4
59370276085,-2,-3,-2,-1,1,-1,1,-1
59370297071,-3,-2,1,-3,-1,-2,0,-1
59370297071,1,-2,0,1,1,-2,-2,3
59370298608,1,2,-3,-2,-3,-2,-2,-2
59370298608,0,1,-2,-3,0,-2,0,-1
59370311485,-4,0,1,-2,-3,-1,-1,-1
59370311485,-1,-4,-3,-2,-1,-2,1,-1
59370318387,-1,1,-1,0,0,0,1,1
59370318387,-2,-1,0,-2,-2,0,0,-3
59370334643,1,2,-3,-2,-2,-3,-1,-1
59370334643,-2,3,-1,0,0,-1,-2,-2
59370336096,2,-1,-1,-2,0,-1,0,0
59370336096,-2,0,-2,-1,-1,-1,-1,-1
59370364695,-1,-4,-2,0,-1,0,0,-1
59370364695,-1,-2,-2,-2,-1,0,-2,-2
59370366176,-3,-3,-1,-2,0,-3,-2,-3
59370366176,0,-3,0,-1,1,-1,-3,1
59370371424,-2,-1,2,-2,1,-1,-2,-1
59370371424,-2,0,-2,-2,-2,-3,0,0
59370378374,0,1,1,0,-3,0,1,0
59370378374,-2,2,0,-1,-2,-1,-1,-2
59370394704,-1,0,-3,-2,-2,-1,1,0
59370394704,-1,0,-1,-1,-1,-1,-2,-2
59370396108,-1,1,-1,1,0,0,-1,-2
59370396108,-1,0,0,-1,0,-2,0,0
59370416973,-3,-2,-1,-2,-1,-2,-3,-3
59370416973,1,-1,0,-1,-2,1,0,-1
59370423400,1,-1,-2,-3,-1,-1,-1,0
59370423400,-1,-2,-1,0,-2,-1,-1,-1
59370430807,3,0,-1,-2,-1,1,-3,2
59370430807,0,-1,-1,0,0,-2,-2,0
59370439653,1,-2,0,-1,0,-1,-3,-1
59370439653,-1,-4,-3,-2,-2,1,-2,-1
59370454490,0,2,0,0,-4,-2,-1,-2
59370454490,-10,-19,-2,0,-2,0,-1,-2
59370456035,-5,2,-1,-1,0,-2,1,-1
59370456035,3,1,2,-1,0,-2,0,-1
59370477202,-2,-3,-3,-2,-1,1,1,-1
59370477202,3,2,0,-1,-3,0,-1,1
59370478628,-2,-3,-4,-3,-2,-2,-1,-2
59370478628,-4,-3,-2,0,-3,-1,0,-1
59370491436,-2,-2,-2,-2,0,-2,-3,-1
59370491436,1,4,-3,-2,-1,1,0,1
59370498221,0,-2,-1,0,0,1,-2,0
59370498221,-2,2,0,-1,-3,-1,-3,-1
59370514752,1,-1,-1,0,0,-1,1,-2
59370514752,-2,2,1,-2,0,-1,-3,-3
59370516055,1,-2,-1,1,-2,-1,1,0
59370516055,-1,-1,-4,-2,-1,-1,-1,1
59370536947,-2,0,-1,0,0,-2,0,-2
59370536947,0,-3,1,2,-3,-2,0,-1
59370538537,2,3,-3,-2,-2,-2,-2,-2
59370538537,-2,-3,0,1,0,-1,-2,-2
59370550675,0,-2,0,-2,-1,0,-2,1
59370550675,-2,0,-2,-3,1,-2,-2,-4
59370567168,3,-1,1,0,-2,-3,-1,1
59370567168,-2,-2,-2,-3,-4,-1,-2,0
59370574533,0,2,-1,-1,-3,-2,-1,-1
59370574533,-1,4,-1,0,-1,-1,0,-1
59370576191,-2,2,-1,1,1,-3,0,0
59370576191,-2,-3,-2,-1,-1,-1,1,-2
59370596955,0,-1,0,0,0,-1,0,-3
59370596955,2,1,0,-3,-3,0,0,1
59370598615,-3,-3,2,0,0,-2,-1,1
59370598615,2,2,0,-2,2,-2,-2,-1
59370610643,-1,-3,-3,-1,0,-2,-1,0
59370610643,0,0,-2,-1,0,-1,1,-2
59370627201,-2,-2,1,-1,-1,-1,-1,-1
59370627201,-5,-3,-2,-2,-2,-1,0,1
59370634671,1,-1,-1,0,-1,-3,0,-1
59370634671,-1,-2,-2,-3,1,-1,-3,0
59370636099,0,-2,-2,-1,-1,-1,-1,-3
59370636099,-2,-2,0,-1,-2,-1,2,0
59370657239,0,-3,-1,0,-2,-1,-3,-1
59370657239,0,2,1,0,-1,1,0,1
59370658733,-2,-2,-2,-1,-2,-2,0,-1
59370658733,-1,0,-2,-1,0,-4,-3,-1
59370670801,-1,0,0,-2,0,0,-1,-2
59370670801,-3,-3,-1,-2,-1,-1,1,0
59370687092,9,10,-2,-2,-1,3,-2,1
59370687092,-3,-6,-2,0,0,-2,0,-1
59370694614,-3,0,1,0,-1,1,-2,0
59370694614,-3,-2,-1,0,0,-2,-3,-2
59370696118,-2,-1,-1,-3,-1,-1,0,-2
59370696118,2,1,-2,-1,-3,0,-1,0
59370717140,-1,-2,-2,-2,-1,0,0,-1
59370717140,1,0,-1,-3,-1,0,-1,-2
59370718664,-4,-6,-1,-1,0,1,-1,0
59370718664,-1,-1,0,0,-1,-2,-1,-4
59370730651,-1,-3,-1,1,1,0,-1,-1
59370730651,-2,-3,-3,-3,-1,-2,0,-1
59370739695,-1,-4,0,-2,0,-2,-2,-2
59370739695,-2,-1,-2,-3,0,-1,0,-2
59370754520,-1,0,-2,-2,-2,0,-1,-2
59370754520,0,0,0,1,-5,-2,0,1
59370756157,1,-2,2,-2,-1,1,-2,-1
59370756157,0,0,-2,1,-1,1,-2,0
59370777104,-2,-1,1,-2,-4,-2,0,-1
59370777104,-3,-7,-1,-1,2,-1,-1,-1
59370778588,-3,-2,-3,-3,-3,-3,-2,-3
59370778588,0,-1,0,-2,0,-1,0,-1
59370790884,-2,-2,-1,1,1,-2,1,1
59370790884,6,3,-1,-1,-3,-1,1,-1
59370799669,-2,-4,-1,-2,-2,0,-1,0
59370799669,2,-1,1,-2,1,-1,-1,0
59370814765,1,2,1,0,-2,-1,-2,-1
59370814765,-4,-2,-1,-2,-1,-1,-3,-1
59370816065,-1,1,-1,1,0,-1,2,-2
59370816065,-2,-1,0,-1,-2,0,-2,-1
59370837082,-1,-3,-2,-3,-2,-1,-3,-2
59370837082,-1,-1,0,0,-2,-1,-1,-1
59370838602,-4,-3,-2,-2,1,-2,-2,-2
59370838602,-2,-3,0,0,-1,-2,-3,-3
59370850723,1,1,-1,-1,0,-1,1,-2
59370850723,-1,0,-1,-2,-1,-1,-3,-1
59370859746,0,-1,-3,0,-1,-2,1,2
59370859746,-1,0,0,-1,0,-1,-1,0
59370874586,-2,-2,-3,-1,1,-1,-1,0
59370874586,-2,-1,-1,0,1,0,0,0
59370876094,-1,-1,2,0,-2,0,-2,0
59370876094,-1,-1,-3,0,-2,-3,-2,-1
59370896973,-2,-2,-1,-2,-2,0,-1,-2
59370896973,-1,0,1,-1,-2,-3,-1,0
59370898559,1,6,1,0,-2,-1,-1,-2
59370898559,-7,-11,-2,0,-2,1,1,1
59370910645,3,3,-1,0,1,-3,-2,0
59370910645,-2,0,2,-1,-1,-2,-2,-1
59370919606,1,1,-1,1,-3,1,-1,0
59370919606,-3,0,-1,0,-3,-1,-1,-1
59370934468,2,0,2,-2,-1,-1,0,2
59370934468,-2,0,-2,-1,0,-1,0,-4
59370936061,-1,-3,-1,-1,0,-1,-2,-3
59370936061,-2,1,-1,-3,-2,-3,-1,-3
59370964036,-3,-2,-1,-1,0,-2,-1,0
59370964036,1,0,-4,1,0,0,-3,0
59370972034,-3,-2,0,-1,-2,-1,-2,-1
59370972034,1,0,-1,-4,-1,-2,0,0
59370979459,-4,-3,-4,-1,-1,0,0,-3
59370979459,-1,-2,-2,1,-2,-1,1,-2
59370981060,-1,-1,0,-3,-2,-2,0,-1
59370981060,1,1,0,-1,-2,-1,-3,-1
59370994442,-2,0,0,0,0,0,-1,-1
59370994442,-1,-2,-2,-2,-1,0,-1,-1
59370996067,-1,-1,-2,-1,1,2,-3,-2
59370996067,2,2,-2,-1,0,-1,0,0
59371016888,-3,-2,-3,1,-2,-2,-1,-2
59371016888,-1,1,1,-1,1,-1,-1,-1
59371018493,-2,0,-1,-3,-1,-2,-1,-1
59371018493,0,1,-1,0,0,0,-1,-3
59371056075,-2,0,-2,-2,-2,-1,0,-1
59371056075,-3,0,-2,1,-2,0,1,-1
59371057522,0,-2,-2,0,-2,-1,-2,-3
59371057522,-1,-2,0,1,-2,-1,-1,-1
59371058241,-3,-5,0,0,-2,-1,-2,-2
59371058241,-2,-10,-1,0,-1,-1,-2,-1
59371062041,-2,0,-2,2,0,-1,-1,-1
59371062041,0,1,0,-3,0,-2,-1,-2
59371077210,-2,-2,0,-1,0,-1,0,0
59371077210,1,2,-1,-2,0,-2,-3,0
59371078566,-2,-4,-2,-2,-1,-1,-3,0
59371078566,-1,-1,-1,0,-1,-1,2,-2
59371099718,3,2,-2,-1,-1,1,-3,-3
59371099718,1,0,1,-2,-1,-3,-1,-1
59371101124,-1,-2,-1,-1,-2,-2,-1,0
59371101124,-1,0,-3,-2,-1,-1,-1,0
59371114566,-4,-3,2,-1,-3,-2,-1,-2
59371114566,1,1,-1,-1,0,-1,-1,-4
59371116105,-2,0,-1,-1,-2,-1,-2,-2
59371116105,0,-2,-2,-1,1,-1,0,-1
59371137224,-1,-2,-2,0,0,0,1,-1
59371137224,-1,-1,-2,0,0,0,-1,0
59371138637,1,0,1,0,0,-2,-1,-1
59371138637,-1,-2,0,0,-2,0,-2,-2
59371159713,1,0,-3,-1,0,-1,-2,-2
59371159713,-5,-10,-1,-3,-2,-1,-3,-1
59371161082,-2,1,-1,-2,-2,1,2,-1
59371161082,-1,-1,0,-1,0,-1,-2,-1
59371173956,-2,-4,1,0,-1,-3,-2,-1
59371173956,-2,2,-1,-2,-1,-2,-2,-1
59371188344,0,-2,-1,0,1,-2,1,-1
59371188344,0,-1,1,-2,-3,-2,-3,-2
59371197187,1,2,-1,-1,-3,-1,-3,1
59371197187,-2,2,0,1,1,1,-1,-1
59371198655,-2,-3,-1,-1,0,-1,-1,-1
59371198655,-2,2,-1,-2,-3,-1,0,-2
59371219525,3,1,-2,-1,-1,1,-1,1
59371219525,-1,-2,-2,0,-2,-1,0,-1
59371221029,-2,-2,0,-3,0,-1,0,-1
59371221029,-4,-3,-1,-2,0,0,-2,-3
59371242237,-2,-2,0,0,1,-2,-2,-2
59371242237,0,0,-1,-1,0,-3,-2,0
59371243617,0,2,-1,-1,-2,-2,-1,-1
59371243617,0,0,-2,0,-2,-1,-2,0
59371257267,-2,-3,-2,-2,0,-1,-1,-2
59371257267,1,0,1,-2,-1,0,1,0
59371258662,-1,-2,-1,-3,0,-1,0,1
59371258662,0,-1,2,1,0,-1,-1,-1
59371279512,-1,-1,1,-2,-3,-1,0,0
59371279512,5,10,-2,0,1,0,1,-1
59371281066,-2,-2,-3,-1,-2,0,-2,-1
59371281066,-1,0,-2,-2,0,-2,-3,0
59371293776,-2,-1,-1,0,-1,-3,0,-3
59371293776,-4,1,-2,-3,0,-2,-2,-1
59371302021,7,0,-2,1,-1,-1,-1,-1
59371302021,-2,-3,-1,-1,0,2,-2,-1
59371317054,-2,-1,0,-2,0,1,-1,-1
59371317054,-3,-3,-1,-2,-3,-2,-3,0
59371318570,0,-3,-1,-2,-3,-3,-4,-3
59371318570,1,-3,-2,-2,-1,0,1,-1
59371339539,-1,-1,-2,0,-1,0,0,-1
59371339539,-1,-4,0,-1,0,-2,-1,-1
59371341053,-3,-1,-3,1,0,0,0,-1
59371341053,-1,-1,1,-2,-3,-3,-1,-1
59371353878,-2,-2,-5,-3,-2,-1,-2,-1
59371353878,-1,-1,-3,0,-2,-2,1,-3
59371360697,-3,-1,0,1,0,-1,-2,0
59371360697,-2,-2,-2,-1,-2,0,1,0
59371377039,-2,-1,1,-1,0,-1,-2,-3
59371377039,-1,-2,0,-1,1,2,-2,-2
59371378621,-3,-4,-4,-3,-1,-1,-2,-3
59371378621,0,0,-2,0,-1,0,1,0
59371399813,0,-1,1,-3,1,-1,2,-1
59371399813,-1,-4,0,0,-2,-1,0,0
59371401058,-1,-2,1,-1,-3,0,-2,0
59371401058,1,-2,0,1,-1,-1,-2,-2
59371414026,0,2,-1,-1,-2,-3,-3,0
59371414026,-2,-2,-2,0,-1,0,-3,-2
59371420877,-1,2,-1,0,-1,0,2,-1
59371420877,6,-2,-2,0,-3,-3,-2,-1
59371437190,-2,-2,-3,0,-1,-2,-1,-3
59371437190,-5,-3,-2,-2,0,-3,-1,-1
59371438641,-1,-1,0,-3,-2,0,-2,0
59371438641,0,-4,0,-2,2,-1,-1,-1
59371459683,0,-3,0,-1,1,0,0,1
59371459683,1,3,0,-1,0,0,-2,0
59371461116,-2,-4,-3,-1,1,-3,-1,-2
59371461116,-2,2,-1,-3,0,0,0,0
59371473360,-1,0,0,0,-1,1,-1,0
59371473360,0,-3,0,-1,-3,-1,-2,0
59371482172,2,6,1,-1,-1,0,-2,1
59371482172,-8,-12,-2,1,0,-2,-1,-1
59371497182,3,0,-2,-3,-1,0,-1,0
59371497182,-2,1,1,-3,-2,-1,0,-1
59371498664,1,1,-2,0,-2,-2,0,-1
59371498664,1,2,-1,0,0,-1,-1,-2
59371520125,-3,-3,-1,-1,-1,0,0,-1
59371520125,-2,-2,-2,-1,-2,0,-2,0
59371521617,-2,-3,0,0,-1,0,-1,-2
59371521617,-1,0,-2,-1,-3,-2,0,-1
59371533310,0,-1,-1,1,-2,-1,1,-1
59371533310,2,0,-1,-2,-3,0,-1,-3
59371542236,-1,-3,-1,-3,-2,0,-2,-2
59371542236,-3,-2,0,-1,0,-1,-2,-1
59371557217,1,2,-1,2,1,-1,-2,-2
59371557217,3,0,-3,1,0,-2,0,1
59371558664,8,-1,1,-1,-1,2,2,0
59371558664,-2,1,-1,-7,-1,-2,0,1
59371579560,-2,-1,1,-1,-2,-3,-2,-1
59371579560,1,2,-1,0,-1,-2,-1,0
59371581056,-4,-1,0,3,-1,-3,-3,-2
59371581056,-1,1,-3,4,-1,1,-1,-1
59371593228,0,-4,-2,0,-1,-2,-1,-1
59371593228,-3,-3,-1,2,0,1,-2,-2
59371602106,-3,-2,-2,0,0,-2,-3,-2
59371602106,2,1,-1,-3,-1,-2,0,-1
59371617084,-5,-1,-1,-1,-2,-2,-3,1
59371617084,-1,-3,0,-1,1,-1,0,-1
59371618617,-3,-2,0,-3,-2,1,-2,-1
59371618617,0,3,-1,-1,0,-1,0,-1
59371639494,-1,-3,-2,-1,0,0,-3,0
59371639494,-2,0,2,-1,-1,0,1,1
59371641034,-6,-19,-1,-2,-1,-3,-1,-1
59371641034,-1,0,-1,1,0,0,-2,-3
59371662152,-2,1,0,-5,-2,-1,-1,-4
59371662152,-1,0,-2,-1,0,-1,-2,1
59371663659,-4,3,-3,0,-1,-2,-2,-3
59371663659,0,-1,1,-1,-3,0,-1,1
59371684719,0,-1,-2,-1,-3,-3,-1,0
59371684719,1,-1,-1,0,-2,-2,-2,-3
59371686168,-2,1,-1,-1,-1,0,1,-2
59371686168,-2,-2,-1,-1,-1,-1,-2,0
59371699505,2,-3,-1,-1,-3,0,-2,-1
59371699505,1,0,2,-1,-3,-1,-1,-1
59371701096,1,3,-1,0,0,-1,-1,-1
59371701096,0,-1,-1,-3,-1,-2,-1,-2
59371713214,-5,-2,-3,-2,0,0,0,0
59371713214,0,-2,-2,0,-1,-2,0,-1
59371722034,-1,-1,-1,-1,0,-1,-2,-2
59371722034,0,2,2,2,-2,0,-2,-3
59371737183,0,1,-1,-1,0,-1,-1,-3
59371737183,-3,-2,-1,-3,1,-1,1,1
59371738611,9,14,-1,-1,-2,0,0,0
59371738611,0,-1,-1,0,-1,-3,2,-2
59371759719,0,0,-3,-1,-2,0,0,-1
59371759719,-3,-3,-1,-3,-2,0,-1,-3
59371761082,-3,-1,-2,-2,-3,-1,0,-1
59371761082,-2,-1,-2,-2,0,-1,-4,-1
59371773359,-2,-2,-1,-1,0,-1,-2,-4
59371773359,-1,2,-4,-2,-2,-3,0,2
59371782102,-11,-5,-2,-1,0,-2,-4,-1
59371782102,0,-2,-2,0,-1,-1,-2,-2
59371797026,-2,-4,-1,-2,-1,-1,0,0
59371797026,-5,-3,0,-1,0,-2,-4,0
59371798667,1,-5,0,-1,0,-1,0,0
59371798667,-3,-2,0,-1,-1,-2,0,-1
59371819581,3,8,0,0,1,-1,0,0
59371819581,-4,-12,-2,-1,-1,0,0,-3
59371821061,-3,-1,-2,-2,0,-1,-2,0
59371821061,2,1,0,0,-3,-2,-1,1
59371833353,0,2,-1,0,-2,-3,0,-2
59371833353,-1,-1,0,-2,-1,0,-2,-1
59371842290,2,0,-1,0,-1,0,-2,-1
59371842290,-4,-3,-1,-2,-1,0,-2,0
59371857223,-2,-5,0,-2,-1,-2,-2,-1
59371857223,-2,0,-1,0,-1,-3,1,1
59371858602,0,-2,0,-2,-2,0,0,-2
59371858602,0,0,-1,-2,-2,-2,-2,-2
59371879556,-3,-4,-3,-1,-2,0,0,2
59371879556,0,0,-2,0,0,-1,1,-1
59371881098,0,2,0,1,1,-2,0,-2
59371881098,1,-1,-3,-2,-1,-2,1,-1
59371893149,-2,-2,1,-3,0,-2,-1,-2
59371893149,1,9,-1,0,0,-1,-3,-3
59371902110,4,-8,-1,-3,-1,-2,-2,1
59371902110,6,5,2,0,1,-1,2,1
59371917176,-1,-4,-1,-1,-2,0,-1,1
59371917176,3,7,-2,2,-2,-1,-1,2
59371918685,-1,0,0,1,-3,-1,0,-1
59371918685,-3,-3,-5,-2,0,-2,-2,-1
59371939695,1,-2,0,-2,-3,-2,-2,-2
59371939695,-3,-2,-1,0,-1,0,-2,-3
59371941167,-5,0,-1,-3,-3,-3,0,-1
59371941167,-2,0,0,-1,0,0,-3,-2
59371962256,-3,1,1,-2,-1,0,-1,-2
59371962256,0,-5,-2,-1,-1,0,-1,0
59371963658,-2,0,-1,-1,1,-1,-3,-4
59371963658,-2,-1,-1,-3,0,-1,-1,0
59371976602,1,0,0,0,1,1,-2,-2
59371976602,-1,-3,-1,-3,-1,-2,0,-1
59371983305,-2,1,-1,-2,-2,0,1,1
59371983305,-2,-2,-3,2,1,-1,0,-1
59372006939,0,0,-3,0,1,-3,0,0
59372006939,-1,0,0,-4,0,1,0,0
59372008504,-1,-1,-1,-2,-1,-1,-1,0
59372008504,-3,-3,-2,-3,-2,-1,-2,-2
59372022225,0,1,-3,3,-1,-1,-1,-1
59372022225,-1,0,2,-1,0,-2,0,0
59372023622,-1,-1,-1,-3,-1,-5,0,-1
59372023622,-2,-3,1,3,2,7,-3,-2
59372037134,-2,-4,-4,-16,-4,2,1,-1
59372037134,-2,0,0,18,0,-1,-3,-2
59372038635,-1,-2,2,-21,-8,-21,-3,0
59372038635,-3,-2,-4,4,6,22,4,-1
59372059768,1,0,1,-23,-11,-18,-6,-1
59372059768,-1,-1,-2,-15,6,12,1,-3
59372061103,0,1,-2,22,4,2,-5,-2
59372061103,1,-1,1,14,-5,-13,1,0
59372082179,-2,3,0,-13,0,2,-2,1
59372082179,-1,-3,-2,2,-7,-10,-2,-2
59372083588,-3,-2,-4,-11,-1,5,-1,-2
59372083588,-2,-1,-3,-9,0,3,0,-1
59372104686,-1,-3,2,18,3,8,2,1
59372104686,-1,-1,-2,-12,-7,-11,-5,-2
59372106146,2,1,-3,4,2,7,0,1
59372106146,-1,0,-1,-6,-4,-6,0,2
59372119579,-1,-4,0,5,3,-2,0,-3
59372119579,-6,-2,0,-3,-4,-12,-5,-3
59372121132,0,-1,1,0,1,16,7,1
59372121132,-2,-2,-5,-9,-5,-6,-6,-2
59372142215,-3,-2,-2,13,3,3,0,-1
59372142215,-1,-3,0,2,2,-4,-1,1
59372143557,-1,-1,0,-3,-5,2,2,0
59372143557,3,-1,0,-9,1,2,-1,-3
59372156039,-1,0,-1,6,2,1,-4,-2
59372156039,0,0,0,4,-4,-2,0,-1
59372164598,3,10,-1,-9,-3,-25,-4,1
59372164598,-5,-3,-7,10,-4,6,6,-5
59372179436,-2,-1,-2,-1,5,9,-4,-2
59372179436,2,-1,1,26,13,6,0,1
59372180999,-2,-1,1,-23,-13,-13,-12,-2
59372180999,-1,2,2,-1,3,5,5,0
59372209710,0,0,0,-9,-3,-3,5,-1
59372209710,1,-1,-4,14,0,14,3,0
59372211064,-2,-6,-3,15,1,-4,-1,-1
59372211064,-1,-5,-1,-7,-5,0,-7,-3
59372215622,-4,-3,-2,3,0,-38,-12,0
59372215622,-1,0,2,-14,0,-1,9,-2
59372224640,-3,-3,-2,6,2,30,1,-4
59372224640,-1,-2,-1,-3,-4,-21,-4,1
59372239519,5,4,0,1,-2,4,3,1
59372239519,-1,-3,0,-17,-4,3,-4,-5
59372241083,-1,-3,1,-1,0,-23,-1,3
59372241083,-1,6,-1,6,-2,5,-4,-28
59372262229,-1,-12,-2,7,2,17,5,10
59372262229,-1,1,-3,-24,1,-5,-5,-4
59372263594,-1,-1,-3,-3,-3,24,7,0
59372263594,-4,-1,2,0,-2,-32,-8,-4
59372275794,-4,-1,-6,3,-4,-13,-4,-9
59372275794,-7,-4,-5,-9,-4,16,-1,-1
59372284624,-4,-5,-3,8,6,0,5,-1
59372284624,3,1,2,0,-1,8,0,11
59372307220,4,4,8,12,11,-14,4,1
59372307220,1,-3,-2,9,-12,-20,-8,3
59372308627,-3,-5,-9,-3,1,29,3,-7
59372308627,-5,-2,0,4,8,-13,-14,9
59372322216,0,-1,0,-8,-23,-6,1,-6
59372322216,1,3,3,13,1,13,13,1
59372323755,5,1,3,-4,8,-30,-13,-4
59372323755,-2,0,-3,-9,-1,21,-3,-2
59372335816,-10,-15,-5,-6,0,38,-1,-5
59372335816,2,0,4,7,-2,-39,-2,1
59372344679,-1,1,0,-6,-16,-27,-7,0
59372344679,-1,0,0,-4,-1,-6,10,2
59372359714,1,4,-3,-3,-2,3,-4,-3
59372359714,1,0,1,1,3,27,-1,0
59372361153,-3,-5,-1,2,0,8,5,3
59372361153,1,-3,-2,12,3,-23,0,-3
59372382212,1,1,2,2,-7,20,11,3
59372382212,1,-1,-3,-2,16,-3,-19,-5
59372383671,0,1,3,6,9,7,10,4
59372383671,1,-3,1,-6,-11,-10,-6,-3
59372395727,-6,-2,-10,-27,-13,-16,-7,-3
59372395727,-11,-3,-4,9,12,7,5,0
59372404654,8,9,4,22,8,12,-4,-1
59372404654,3,2,2,-9,-8,-12,5,2
59372419609,0,2,2,5,11,48,4,-1
59372419609,-2,-3,-5,6,-15,-67,-16,-6
59372421186,-3,-1,-2,0,0,18,-1,0
59372421186,0,-4,1,7,-11,-6,10,3
59372441979,4,6,3,-7,11,-5,0,-1
59372441979,6,2,2,-11,-5,2,0,-2
59372443632,-5,-4,-5,-38,-12,1,-8,-4
59372443632,-5,-6,-7,27,10,26,8,-4
59372455809,-4,-2,-2,2,-2,-15,-8,0
59372455809,3,-1,3,-12,-14,19,11,4
59372464698,-3,-1,2,-14,-4,-31,-5,-4
59372464698,1,-3,-4,-18,-15,-19,-1,-2
59372478892,0,0,0,20,15,25,2,0
59372478892,4,9,1,9,9,22,11,1
59372485679,1,-1,-2,12,-8,19,-5,-1
59372485679,-1,1,3,-16,-7,-56,-17,-3
59372509690,-2,-3,-3,-6,-10,5,2,-1
59372509690,1,0,1,1,3,-26,5,0
59372511107,-5,-4,-4,-1,4,18,-8,-5
59372511107,-3,-2,-3,18,5,22,5,5
59372515863,4,3,0,4,5,-6,-4,0
59372515863,-6,-4,-2,-6,1,9,-7,-5
59372524642,-1,1,-3,-46,-19,-18,0,0
59372524642,1,-1,1,21,1,28,3,0
59372539543,-5,-4,-4,-30,-18,-11,4,-1
59372539543,-5,-2,-6,-14,-5,-18,-14,-4
59372541147,1,-4,-3,38,8,-9,1,-3
59372541147,5,12,9,-1,13,14,5,6
59372562214,-2,-3,-4,-21,-12,-16,-2,-4
59372562214,-1,-3,-4,-11,0,25,4,1
59372563636,-1,-2,-2,5,-7,-14,-2,-3
59372563636,1,-1,-4,-14,5,1,-1,1
59372575744,0,-1,5,12,8,-7,-5,-2
59372575744,-3,-6,0,10,-11,-3,-6,-2
59372590674,0,0,-2,6,3,5,2,2
59372590674,0,-2,-2,-50,-10,-5,-3,-2
59372599730,-2,-1,2,34,2,-9,-4,-2
59372599730,2,-2,-1,-3,-10,15,5,2
59372601157,-3,-1,-1,-12,13,-6,-2,-1
59372601157,-7,-7,-8,-33,-6,-4,-8,-3
59372621314,1,2,-2,-3,-2,5,6,2
59372621314,0,2,6,4,18,-10,3,-2
59372622135,5,4,-2,15,-16,6,-2,0
59372622135,-11,-11,0,39,0,-8,-1,-3
59372643890,-3,1,-2,-18,9,-5,-8,-5
59372643890,2,1,4,1,3,12,1,-4
59372644619,2,-1,-5,-11,10,-6,6,1
59372644619,2,1,3,4,-12,13,-1,4
59372659003,-2,-2,0,-6,4,-5,0,-5
59372659003,-2,-4,-5,-15,-5,-8,-5,0
59372659655,-4,-1,2,2,-6,-7,0,-2
59372659655,0,0,-2,2,8,3,-2,-2
59372681506,-5,-6,-5,6,-7,4,-2,3
59372681506,2,2,-1,-8,-2,-7,0,1
59372682161,-5,-3,0,12,-10,-4,-5,-1
59372682161,3,-1,-1,39,11,6,-5,-5
59372703953,2,2,4,-36,-10,-10,4,6
59372703953,-1,-1,1,22,12,15,7,0
59372704590,5,0,0,-6,-2,0,1,7
59372704590,-3,0,0,-5,6,1,2,-5
59372718986,-4,-2,-5,-50,-25,-12,-6,-3
59372718986,3,0,-5,19,3,-10,-5,2
59372719769,-4,1,1,17,12,10,3,-2
59372719769,1,0,3,6,-3,4,-4,2
59372741392,-2,-4,-5,6,-7,-13,-4,2
59372741392,-6,-2,0,-2,-2,-2,-2,-5
59372742106,-1,-1,-1,-35,-6,-3,-6,1
59372742106,1,2,2,4,0,8,-2,1
59372763782,3,4,4,17,12,2,-3,-5
59372763782,-3,-1,-2,0,-12,0,-7,0
59372764568,-2,3,-1,-9,-4,1,2,1
59372764568,1,1,6,-6,3,4,-3,0
59372778793,4,6,7,3,8,1,-2,2
59372778793,1,-1,1,19,-2,2,-4,3
59372779556,1,0,3,3,5,-6,-6,-4
59372779556,-2,-2,5,-33,3,9,-1,5
59372801320,5,6,-4,-27,-5,-3,-7,2
59372801320,5,4,24,20,5,4,-2,0
59372802104,-3,-5,-7,-53,-12,-6,-10,-3
59372802104,1,4,1,-6,3,-3,-5,-2
59372823777,2,7,3,17,11,2,-3,-3
59372823777,-3,-11,10,-32,-7,0,-3,0
59372824563,1,1,-2,35,11,1,-6,-3
59372824563,0,1,-3,-11,0,-1,-3,0
59372846954,2,-2,6,17,2,1,1,1
59372846954,-1,4,-7,-26,-11,-3,-3,-3
59372847754,-5,-5,6,15,10,2,5,-4
59372847754,2,-3,-5,-19,-11,-4,-5,-4
59372861242,-2,-4,7,63,9,-5,1,-2
59372861242,-4,0,-18,-28,-12,2,-4,-2
59372862038,1,-3,17,10,9,0,4,2
59372862038,-9,-12,0,-9,0,0,-3,-3
59372884010,-1,1,-6,28,-3,-3,-7,-2
59372884010,1,0,2,-20,5,1,2,-2
59372884612,3,3,2,31,4,0,0,3
59372884612,1,3,1,-22,-5,0,-2,-3
59372900342,-1,-3,3,-28,-1,0,0,-3
59372900342,-2,-3,-4,10,7,4,2,4
59372901111,0,-1,-3,21,0,-1,-5,-2
59372901111,-2,3,-1,-5,6,-5,-1,-2
59372921770,-4,-4,-3,28,-4,-1,-2,2
59372921770,0,3,-5,-38,-5,4,-3,-2
59372922560,-2,0,0,-15,0,-4,-1,-1
59372922560,4,4,4,39,-6,1,-1,-1
59372943784,1,-2,-3,-16,4,3,2,0
59372943784,-1,0,0,11,-3,-5,1,-2
59372944534,0,0,0,-20,-1,-1,-1,3
59372944534,2,4,-5,5,-6,-1,-1,-1
59372958799,-4,-1,1,-10,-1,-3,-5,-3
59372958799,0,-2,-4,23,8,1,1,-1
59372959628,-1,3,9,18,-16,-5,-3,-3
59372959628,0,2,-5,-42,-3,-1,-3,0
59372989475,0,-1,0,17,-6,-4,-1,-3
59372989475,-6,-2,6,9,3,0,4,1
59372990273,6,4,2,6,2,2,-2,-3
59372990273,-5,-6,-4,9,-2,0,0,0
59373003808,0,1,2,-6,0,-2,1,-2
59373003808,-4,-3,-2,8,1,-4,-5,-3
59373004557,-4,0,-6,-32,-3,1,1,-2
59373004557,0,-5,0,14,-4,0,4,10
59373018717,-1,-1,0,-14,2,0,-3,-5
59373018717,0,1,-1,12,-5,-3,-3,-4
59373019536,-7,-5,-6,-11,5,3,2,0
59373019536,3,3,4,5,2,-3,-2,-3
59373041235,0,-2,4,15,-1,-1,1,1
59373041235,1,2,-17,-47,-13,-2,-3,-5
59373041996,-7,-15,4,-6,-4,-2,-1,-1
59373041996,-2,1,7,-9,-2,-2,-3,-2
59373063714,0,1,0,17,0,-2,-5,0
59373063714,0,2,-11,13,2,0,-3,0
59373064597,1,-1,11,21,2,2,0,2
59373064597,-5,-3,2,-21,-2,-2,3,-4
59373078821,7,-2,0,25,3,0,-1,0
59373078821,-2,0,-7,-1,-6,-5,-5,-4
59373079506,-1,3,-10,-15,-11,-5,-5,-4
59373079506,-3,3,-7,27,11,7,5,5
59373101238,3,0,9,-39,-1,0,0,-2
59373101238,9,0,5,-3,-2,-3,1,2
59373102003,-14,0,4,26,5,-1,-3,-2
59373102003,0,5,-14,-34,-16,-5,-7,-6
59373131947,-5,2,-9,-2,2,2,-3,-2
59373131947,0,-3,7,8,3,4,1,3
59373132537,9,-1,1,-5,-1,1,-1,0
59373132537,0,-3,2,13,5,-1,-1,-3
59373140335,-1,2,2,-30,-10,-3,-8,-1
59373140335,-5,1,-9,-6,-2,-3,-5,-2
59373141005,0,-6,13,11,2,1,3,3
59373141005,-2,-2,-13,-11,3,0,-1,-3
59373161337,2,2,-7,-13,-10,-6,-3,-2
59373161337,13,6,-14,-8,-2,-2,-6,-3
59373162095,8,3,6,-22,2,2,0,-3
59373162095,-12,-7,3,22,-2,-4,-2,-2
59373191153,-16,-8,-10,12,3,0,4,-1
59373191153,-12,-4,-21,-11,-1,-4,-2,-2
59373200409,17,8,10,1,-10,-4,1,-3
59373200409,-19,-17,-1,8,3,-3,6,-7
59373201845,-9,-9,-6,3,3,0,13,1
59373201845,1,-9,-4,25,-10,-7,9,-4
59373202545,6,1,-12,-42,-10,-8,-2,7
59373202545,-3,2,-7,5,5,-3,-7,-7
59373221298,-21,-3,3,1,-6,1,-1,-6
59373221298,1,-2,-1,34,10,5,3,3
59373222148,5,-4,8,-27,2,0,-1,0
59373222148,44,22,14,16,-7,-7,-10,2
59373268476,2,12,-39,-11,6,4,-5,-5
59373268476,4,-5,67,-3,-2,9,5,2
59373269126,-6,-3,-20,13,5,1,0,-6
59373269126,-26,4,1,21,2,-1,-4,-1
59373270657,52,5,13,24,1,-3,-8,0
59373270657,-29,-6,7,-2,-1,-2,-4,-4
59373274273,-1,0,-5,11,4,-3,-4,0
59373274273,6,-11,8,-13,-4,2,1,1
59373282833,-2,3,6,-10,-5,-1,2,2
59373282833,-2,1,18,6,3,-1,2,-7
59373283606,4,-1,15,2,2,0,-1,4
59373283606,-9,-6,-19,11,1,-2,9,-3
59373303816,-15,-5,-78,-6,-3,-3,-6,-4
59373303816,-6,-3,42,13,-7,-6,-6,-9
59373304568,-17,-1,-34,3,-6,-1,-9,-15
59373304568,13,3,1,48,16,7,-2,-8
59373318759,-18,-7,-3,-17,-16,0,1,24
59373318759,1,6,-24,-6,9,0,-2,1
59373319567,7,1,18,1,-11,-9,-1,-2
59373319567,5,-2,17,7,-3,1,-1,-1
59373342772,-8,-10,-72,-29,1,-1,-8,-8
59373342772,3,-1,-19,-7,2,-2,-4,5
59373343565,-8,3,65,63,13,6,6,8
59373343565,0,2,-8,-75,-10,5,0,-2
59373363698,6,-1,21,27,11,-1,5,-2
59373363698,5,-4,-9,-1,-20,-6,-4,-1
59373364506,-8,1,-51,-15,7,-3,0,-7
59373364506,-2,-14,-9,-49,-8,0,0,0
59373388418,-7,1,21,1,-8,-6,-5,-7
59373388418,4,9,-17,24,5,-3,-6,-1
59373389271,-3,1,54,-11,-1,6,4,4
59373389271,8,10,-1,3,-6,-2,-7,1
59373401204,6,-3,-3,0,4,-4,2,2
59373401204,-6,-2,36,-2,1,0,1,-4
59373402037,-6,-3,-53,-12,-2,-1,-1,-1
59373402037,2,-9,56,12,4,5,6,5
59373423794,-2,-9,38,-9,-15,-9,-4,-7
59373423794,17,-4,-27,-13,-4,0,0,4
59373424559,-12,-7,-80,19,5,0,-1,-7
59373424559,-35,-8,83,-20,-3,-3,1,8
59373439504,-9,-10,-2,-9,-3,1,-2,-5
59373439504,-4,-1,-9,-21,5,2,1,-3
59373446524,4,-7,-2,-3,-6,0,-3,0
59373446524,2,5,-32,19,9,-3,1,3
59373461328,1,2,11,5,-4,0,-1,-3
59373461328,-4,3,-4,34,9,2,3,3
59373462057,6,-5,-7,-79,-33,-8,-9,-6
59373462057,7,7,-19,36,3,-3,-2,-1
59373492145,6,5,26,21,8,4,5,1
59373492145,5,2,-21,-5,-2,-4,-3,-4
59373492782,5,3,-1,28,5,3,2,3
59373492782,-19,-9,26,-3,-4,-3,-1,-1
59373498289,7,1,7,-27,-4,-1,0,0
59373498289,-9,-6,-15,-31,-3,1,-2,-3
59373506286,1,2,10,10,3,2,-2,0
59373506286,1,0,-27,-1,-8,-8,-7,-1
59373521291,-6,4,3,-14,-2,-1,0,-3
59373521291,1,-1,11,40,11,2,-1,1
59373522012,-3,0,5,-88,-21,1,-1,3
59373522012,7,3,-22,4,-1,-3,-1,-3
59373545348,-3,-3,5,14,9,6,-1,0
59373545348,2,-2,-5,-3,-4,-3,-2,1
59373546043,0,0,3,16,6,0,-5,0
59373546043,-13,-7,-23,19,0,0,-1,-8
59373558138,12,-1,5,-39,-7,-3,-1,8
59373558138,-1,-3,1,-30,-9,-4,-5,-3
59373566481,-1,3,-2,30,8,-2,1,-3
59373566481,4,-1,-8,-10,-2,-3,-1,1
59373581456,-13,1,7,60,4,3,-1,0
59373581456,5,-3,-2,-10,3,-2,3,0
59373582165,-6,-2,1,-7,-8,1,1,-2
59373582165,8,0,-17,-36,-1,-2,-6,-1
59373604026,-3,-2,3,6,3,-1,2,0
59373604026,-4,-4,-8,-11,-10,-3,-2,-1
59373604615,2,2,4,22,2,-5,-2,-2
59373604615,0,1,-11,2,-1,1,2,-2
59373618349,-5,1,-2,-9,0,0,-4,-2
59373618349,18,5,4,-12,-7,-3,-3,1
59373626540,-5,-3,3,20,6,1,1,-3
59373626540,2,3,-11,-34,-9,2,1,0
59373641571,-1,0,6,6,3,-1,1,-3
59373641571,-9,1,5,2,-4,-3,-1,-1
59373642122,-3,-2,-6,6,0,-3,-2,-2
59373642122,-5,-1,-5,-3,-2,2,-2,4
59373663732,9,2,4,6,1,-4,-4,-2
59373663732,-3,-2,-1,0,2,0,0,-1
59373664500,-3,-1,3,9,4,0,0,1
59373664500,1,-1,-4,20,2,-3,0,-1
59373678105,-3,-3,0,-24,-3,2,2,-2
59373678105,-18,-3,-1,26,3,0,0,-3
59373686282,10,3,1,-6,-4,-3,0,0
59373686282,-23,-5,-5,26,-1,-5,-3,0
59373701226,14,4,-2,-6,1,9,4,1
59373701226,-8,-2,-1,-12,-1,-3,0,0
59373702281,-1,-3,1,21,-2,-2,-2,-1
59373702281,4,-2,-3,-13,-7,-3,-2,-1
59373724482,-2,1,0,-3,2,-4,0,0
59373724482,-1,0,0,9,1,-1,-2,1
59373725242,-8,-3,-7,-11,-2,5,0,-2
59373725242,3,-3,1,-7,6,0,1,0
59373747504,1,-2,-5,6,-5,-5,-4,-2
59373747504,2,-2,-1,-13,-3,0,0,-3
59373748227,-4,-3,-4,10,0,-2,-2,-1
59373748227,-2,2,-2,-2,3,0,0,0
59373762643,-10,1,2,0,-3,0,1,0
59373762643,23,5,-2,-14,-4,1,-3,2
59373763478,-4,1,2,2,5,-5,0,-2
59373763478,6,-1,1,8,-9,3,-2,2
59373784665,-2,-1,0,-12,3,3,-1,-2
59373784665,-2,-2,-2,16,1,1,-2,-2
59373785280,0,0,-3,-11,-1,0,-3,0
59373785280,11,0,-1,-9,-1,-1,3,-3
59373798097,-4,-4,-3,13,-2,-2,-2,-3
59373798097,-7,-5,-2,12,3,-5,-1,-3
59373806265,1,-1,-1,-13,-7,1,-3,-1
59373806265,-2,-3,0,24,-2,-2,-2,-3
59373821354,0,-1,-2,2,1,-2,-5,0
59373821354,-10,0,2,0,2,2,2,0
59373822101,1,0,1,1,-1,-2,1,-1
59373822101,-1,-1,-1,-18,-1,2,-2,-1
59373843936,-9,-1,-2,3,-6,-9,-3,1
59373843936,-6,0,2,-18,-4,3,4,-2
59373844619,-4,-2,-10,5,-2,-3,-1,-1
59373844619,-4,-1,2,16,6,3,3,-1
59373867208,1,-2,0,-30,-4,-1,-1,-1
59373867208,-4,0,-1,12,-4,-3,-3,-1
59373867827,-3,-2,-2,-9,1,-3,-3,-3
59373867827,-2,0,1,10,-1,-5,-2,-3
59373881552,4,1,-3,5,3,8,0,0
59373881552,3,-1,-2,-22,-3,-2,1,0
59373882104,2,-1,1,13,-6,-5,-6,-3
59373882104,2,0,0,-25,0,-4,-3,-1
59373903935,1,0,0,-9,-6,-3,-2,0
59373903935,1,0,0,6,5,4,0,0
59373904602,-7,-1,0,2,2,3,2,1
59373904602,2,-3,-7,7,-5,-1,1,-2
59373926988,1,1,1,-28,-4,-5,-2,-3
59373926988,-9,-1,0,-1,3,2,-5,0
59373927711,20,2,4,11,-1,-11,0,0
59373927711,-5,-1,-2,-9,3,4,-3,-1
59373949456,-1,0,5,15,1,2,0,-2
59373949456,1,0,-2,-13,-6,-5,-7,-2
59373950233,-8,-3,-2,-20,-1,0,0,2
59373950233,2,1,1,15,-1,0,-3,0
59373963810,1,-3,-5,2,2,1,-3,-1
59373963810,-5,-3,-2,-32,-9,-8,-1,-1
59373964522,-2,2,0,15,8,9,1,-4
59373964522,2,-3,-3,1,-4,-6,-1,-2
59373986928,-5,-4,0,11,5,-1,1,1
59373986928,4,1,2,2,-6,1,-1,-1
59373987698,1,-2,0,-14,3,3,2,0
59373987698,0,0,-3,10,-5,-5,-4,-2
59374001279,-4,-2,-1,9,0,-3,-2,-2
59374001279,8,-1,-2,-24,-8,-8,1,-1
59374002084,-4,1,0,-3,5,7,-5,-1
59374002084,-5,-1,-1,-40,-10,1,1,2
59374023767,-6,-3,0,37,3,0,1,-1
59374023767,-3,0,0,-43,-17,2,-1,-1
59374024525,9,-2,-8,31,-1,-11,-7,-2
59374024525,-3,-3,0,-10,5,1,-5,-1
59374047097,-4,1,1,-13,-11,1,1,-1
59374047097,-2,-2,0,26,12,6,4,1
59374047803,-6,-4,0,-7,-8,-3,3,-3
59374047803,2,2,-2,-13,1,-4,-3,-2
59374061367,6,0,1,3,5,2,-4,2
59374061367,-1,-2,-2,11,8,0,0,-1
59374062112,-2,-7,-9,-27,-2,-3,-1,-1
59374062112,-1,0,-2,-21,-10,-1,1,-3
59374083705,-2,-5,-5,-8,-5,-4,1,-4
59374083705,4,2,-1,-19,3,4,-2,4
59374084516,-7,0,-2,6,1,2,0,0
59374084516,-1,-1,3,7,4,2,3,-3
59374107179,-3,-4,-11,-23,-9,-7,-6,-2
59374107179,-1,0,0,24,4,-4,-1,0
59374107801,-7,-1,1,-2,-1,0,0,1
59374107801,10,-3,-5,31,0,5,1,1
59374121386,-3,-1,3,-28,-4,-4,0,-3
59374121386,-3,-6,-10,25,4,-2,-4,-3
59374122137,13,8,0,-4,-4,0,-1,1
59374122137,-3,1,9,22,4,-5,-1,-1
59374152032,7,6,-1,16,7,-1,-2,-1
59374152032,-4,0,0,5,-8,0,2,-3
59374152822,-6,2,-11,0,4,3,3,0
59374152822,-2,-2,28,-5,-8,-2,-2,0
59374174698,4,0,8,-1,7,1,2,0
59374174698,-4,-1,-7,31,-2,-4,-4,-4
59374175280,-2,-2,1,7,-1,-3,-2,1
59374175280,-2,4,-3,-7,3,1,0,-2
59374181372,-14,-9,-13,26,-5,-1,-4,-1
59374181372,0,-5,-14,-28,0,-2,-1,-3
59374182026,-16,-4,33,4,-5,-4,1,-5
59374182026,3,1,-13,-20,-6,-4,-3,0
59374203733,-7,-6,-1,6,-2,-2,2,0
59374203733,-1,-2,-10,1,2,-1,3,2
59374204524,-3,-3,-7,-15,-8,-4,2,-5
59374204524,-9,-9,-16,-6,-2,-2,2,-2
59374234699,1,-2,-2,11,0,-5,1,-4
59374234699,-9,-6,-3,-16,-5,-4,2,-2
59374235337,-1,-1,-38,-37,-11,-4,-5,-2
59374235337,12,-5,31,21,7,2,4,2
59374241155,-7,-3,0,-21,-4,1,-6,0
59374241155,-1,3,-8,-5,0,1,-8,-2
59374249067,-15,-1,-1,12,7,7,-1,1
59374249067,0,-9,4,-7,-6,-1,-5,-2
59374263733,28,15,-1,0,-3,5,-2,5
59374263733,4,8,18,-11,-5,1,-5,0
59374264532,-4,9,-35,-22,-2,2,-11,-1
59374264532,4,2,11,29,10,1,-1,3
59374286117,-5,-7,2,-14,-9,3,0,-4
59374286117,-2,-5,6,9,-1,0,-4,-1
59374294058,28,10,-1,-4,0,-2,-2,1
59374294058,-30,-5,-8,-13,-1,0,2,2
59374301505,9,5,2,25,6,-4,2,-4
59374301505,-2,3,-7,-36,-7,-5,-1,-3
59374302149,2,-4,16,18,1,-2,1,-1
59374302149,-2,4,-14,-11,-3,0,-1,-3
59374324036,-7,-4,8,-5,-5,-7,-3,-1
59374324036,-6,-4,-1,22,2,12,0,1
59374324594,-1,-3,15,-3,3,-10,-2,2
59374324594,3,2,-7,6,0,-3,2,-1
59374354761,-3,0,-11,-19,-1,5,1,-1
59374354761,3,-3,7,8,0,-5,-2,-2
59374355240,-3,-7,2,0,-2,2,2,-1
59374355240,1,3,-11,-3,-5,-1,0,-3
59374361498,-3,-3,4,-1,-2,-5,-3,-2
59374361498,-1,0,3,0,4,-2,-2,1
59374362138,-1,-1,12,6,0,4,3,-2
59374362138,0,1,-8,-9,-4,3,-3,-2
59374383779,1,-2,4,-7,-3,-5,3,2
59374383779,3,2,6,13,5,-7,-5,2
59374384539,3,1,5,-1,4,9,-1,-1
59374384539,6,1,5,-5,1,3,-6,0
59374407014,0,1,0,-3,-3,5,-4,0
59374407014,3,-1,0,1,-3,-3,1,-2
59374407760,-2,-2,4,4,-7,-9,-1,0
59374407760,-4,1,-4,-5,1,0,-3,-3
59374420636,-2,-3,-2,2,4,-7,1,0
59374420636,-4,-3,-2,-3,-9,-4,6,1
59374428871,-3,-6,-7,-10,-1,-5,3,-3
59374428871,-9,-5,-15,22,-3,-1,5,-3
59374443779,-11,-6,-15,-4,1,-3,7,-1
59374443779,-11,-6,-10,-2,-5,-15,3,-7
59374444589,2,-4,-12,-6,-3,-4,10,-1
59374444589,1,4,-5,4,2,4,-8,-3
59374467034,-5,-5,-4,4,2,-1,2,0
59374467034,0,-2,1,11,1,-1,2,-1
59374467766,-4,-7,-4,-14,-6,-1,-1,-2
59374467766,0,0,-3,-4,-5,-6,-4,-1
59374480699,2,3,-2,-5,0,-5,-3,-2
59374480699,0,0,1,1,4,14,2,-1
59374488864,-2,-1,4,14,0,-5,-6,-1
59374488864,1,-1,0,-9,-1,3,-3,0
59374503833,0,0,4,-5,-4,-5,-3,-1
59374503833,3,-1,1,2,1,8,-1,0
59374504579,3,3,6,0,1,0,-5,1
59374504579,5,-2,6,-6,-5,-8,1,-1
59374526965,4,1,-2,-6,4,15,-2,0
59374526965,3,2,4,1,1,-8,-4,-3
59374527738,0,-2,0,-3,-6,5,0,1
59374527738,-1,1,-1,1,2,-2,1,-1
59374540590,0,0,0,3,1,-8,-1,1
59374540590,0,0,-3,-5,-4,9,1,0
59374548511,1,2,-1,4,-3,-1,-1,-1
59374548511,-4,-7,-1,-9,-5,-3,-6,-2
59374563768,1,1,0,-2,-2,-3,1,-2
59374563768,-1,0,-1,-1,3,-9,0,-2
59374564544,2,4,4,-6,-2,0,-4,-1
59374564544,0,1,-2,10,-2,-2,1,-1
59374586947,0,-1,0,-11,-3,-1,-3,1
59374586947,-1,-2,-4,-13,-4,5,-1,-1
59374587703,-6,-5,2,6,2,0,-3,-2
59374587703,2,-2,-2,-21,-3,0,3,-1
59374600623,-2,-1,-1,8,-3,6,-2,-1
59374600623,-3,-1,-2,-3,-1,-13,-1,1
59374608829,3,1,0,-3,0,-2,0,-1
59374608829,-4,0,-3,-2,0,3,0,-1
59374623707,-3,2,2,2,2,-2,0,0
59374623707,1,0,-5,3,-1,2,-3,-1
59374624509,-1,-1,0,2,5,8,1,1
59374624509,1,1,1,-4,-7,-17,0,-2
59374654455,-5,-2,-2,-1,-2,7,-2,-1
59374654455,0,0,0,2,1,2,-1,-2
59374655264,-3,-5,0,6,-1,0,-1,-3
59374655264,1,-1,-2,-1,-2,-7,2,0
59374669512,-2,-3,-4,-3,0,8,-7,-1
59374669512,0,-2,0,2,-1,-11,-4,-2
59374670271,0,-1,-4,2,0,4,2,1
59374670271,-11,-15,-4,-10,3,-6,-3,-4
59374683812,-1,-1,-1,-2,-4,6,3,0
59374683812,0,1,4,11,1,3,-6,0
59374684580,-3,-2,-2,2,-5,-20,-4,-3
59374684580,3,0,-2,-5,4,7,3,-1
59374706966,-1,-1,-3,10,0,-3,-4,-3
59374706966,-2,-3,0,-4,-2,2,1,-2
59374707728,-3,-1,-2,-11,-4,-7,-3,0
59374707728,-1,2,3,-1,1,3,-2,1
59374720644,1,1,2,2,-1,-5,0,-3
59374720644,-2,-1,-5,-6,0,-7,2,-2
59374728879,0,-1,-2,2,-4,1,-4,-2
59374728879,0,0,-1,3,6,8,-1,0
59374743761,-1,-1,-4,-5,-3,-6,-4,-2
59374743761,0,-1,-1,-1,-5,-2,-2,1
59374744648,4,-2,-2,-2,4,3,-1,-2
59374744648,-4,0,0,-1,-4,6,-2,-2
59374766014,2,0,2,1,0,-22,-4,0
59374766014,1,-2,1,-1,-2,2,-1,-1
59374781364,-4,-1,-2,1,-1,0,0,-2
59374781364,-3,1,-2,3,-2,1,1,0
59374789497,-2,0,-1,-2,-2,4,2,0
59374789497,-2,-2,0,0,-3,-2,0,0
59374791037,-3,-1,0,5,-1,0,1,0
59374791037,1,-2,1,2,0,-6,-2,0
59374803158,-2,-3,-4,-3,-2,-1,-1,-3
59374803158,0,-3,0,-2,3,-1,-1,0
59374812129,-1,-3,0,-5,-1,-1,-2,-2
59374812129,2,-1,-1,7,-1,-4,1,1
59374827150,0,-4,0,-2,-1,-1,-3,-1
59374827150,-3,-2,-1,0,-3,4,0,-3
59374828638,-1,0,-1,2,-1,0,-2,0
59374828638,0,1,-2,-4,-1,-4,-2,-2
59374849600,0,-2,1,-3,-1,0,2,-3
59374849600,-3,0,-2,-1,-1,2,2,-3
59374851130,-2,-1,0,-1,-2,-4,0,-1
59374851130,2,0,-4,-4,0,-1,-4,0
59374863117,0,-2,0,0,-1,0,0,0
59374863117,-1,-8,-3,-3,0,2,-4,-5
59374872090,1,3,-1,-2,-3,-2,-3,-2
59374872090,1,2,0,4,0,-4,-2,-1
59374886964,-2,-3,1,0,-2,1,1,-2
59374886964,6,6,0,-3,0,-3,-2,1
59374888580,-5,-4,-3,0,-1,0,1,-1
59374888580,4,2,1,-4,-1,-1,-2,0
59374909562,-3,1,-3,-3,0,-3,-3,0
59374909562,-15,-3,-4,0,-1,0,-1,-2
59374911128,-1,-2,-2,-6,0,0,-1,-3
59374911128,-8,2,0,6,-1,1,-3,0
59374932231,2,1,2,7,0,0,-1,0
59374932231,3,0,-1,6,1,1,1,-2
59374933681,-1,-1,-1,-15,-7,-1,-2,0
59374933681,-6,-18,4,-3,-1,-4,-2,-3
59374946948,-2,-1,-4,-1,-1,0,-3,0
59374946948,0,1,-1,4,-1,0,-3,-7
59374948566,-4,-4,0,1,1,-1,3,5
59374948566,1,1,-4,-1,-2,-1,-1,-1
59374969499,-5,-3,-4,1,-3,0,1,-3
59374969499,0,-2,-3,-1,-2,-2,-3,1
59374971125,3,0,0,2,1,-1,-4,-3
59374971125,5,4,2,-8,-1,-1,-1,1
59374983311,-1,0,2,0,1,1,0,-2
59374983311,7,3,0,-6,-3,-2,-2,-1
59374992084,-1,-1,0,1,-1,-1,-3,-1
59374992084,-2,-2,-2,4,-1,-1,1,1
59375014448,6,1,0,-2,-2,1,-5,1
59375014448,4,9,1,-1,-1,1,1,2
59375016101,-5,-5,-2,3,-2,-1,1,-6
59375016101,1,0,-5,-3,-1,-4,1,-5
59375029670,1,-1,0,-4,-1,-3,0,-3
59375029670,-5,-5,0,-4,-1,-1,1,0
59375031177,2,-1,-1,1,5,0,-4,-2
59375031177,3,15,-2,-2,1,1,-4,-3
59375043366,-4,-2,0,1,-3,-1,-1,-4
59375043366,0,1,1,2,1,-2,0,1
59375052205,-1,0,1,-7,-5,-2,-4,-1
59375052205,2,-1,-2,-5,0,1,1,1
59375074414,-1,-3,-6,0,-1,0,-3,-2
59375074414,-2,-2,0,-2,-4,-1,-1,0
59375076119,1,1,0,3,1,0,-1,0
59375076119,-4,-7,-1,-6,-3,-2,-2,2
59375089448,-1,0,0,5,6,-1,1,1
59375089448,-4,-4,0,-3,0,-1,0,0
59375091134,-2,0,-4,-2,-3,-2,0,0
59375091134,-5,-3,0,4,0,-1,2,-2
59375103164,-3,-4,-2,-8,-3,0,0,-3
59375103164,-14,-7,-3,-3,-3,-1,-3,-4
59375112170,0,-2,-2,0,-2,-1,-2,-3
59375112170,-5,-5,-2,-1,1,-1,-3,0
59375126969,5,4,1,-2,-3,-1,-1,0
59375126969,-7,-18,-3,-3,0,0,-1,0
59375128566,2,0,1,1,-1,1,-1,-1
59375128566,1,3,1,2,-2,-2,1,-2
59375149566,-7,-5,-2,-5,-1,-1,-1,-2
59375149566,6,0,-1,2,-1,-3,-2,0
59375151134,-5,-5,0,3,1,0,2,-1
59375151134,19,0,-1,0,-1,0,0,1
59375163216,-10,-8,-5,-2,-2,-2,-2,-1
59375163216,-2,-9,0,-1,-2,-1,-1,-1
59375172095,-4,7,-1,0,-1,1,0,0
59375172095,-15,-3,-1,-2,-1,0,-3,-2
59375186962,-4,5,3,0,0,0,2,4
59375186962,3,13,-1,-2,-2,3,0,-5
59375188539,-8,0,-1,-2,0,-2,-2,-6
59375188539,18,11,2,0,1,2,5,13
59375209722,-3,-8,0,-1,-1,-1,-4,-3
59375209722,7,-1,-3,-1,0,-2,-2,-1
59375211072,-7,-5,3,1,1,0,0,0
59375211072,-24,-5,-5,-4,-2,-2,-3,-8
59375223096,1,1,-1,-2,0,-1,1,1
59375223096,3,2,-1,0,1,-1,0,0
59375232144,2,-7,-2,-2,-2,-3,0,-4
59375232144,-4,-6,-1,-1,-3,-2,-5,-5
59375246941,5,-1,-2,-2,-1,-2,-1,0
59375246941,-2,1,-1,0,-2,-1,-2,0
59375248541,-2,2,-1,-2,-1,-2,0,0
59375248541,-2,-6,-3,0,-1,-2,0,-1
59375277149,-1,-10,-2,-2,-2,-1,-1,-2
59375277149,1,7,-1,0,0,0,1,-1
59375278609,2,-3,-4,-2,-1,-1,-4,-1
59375278609,2,-1,-3,-3,-3,-1,-1,-5
59375283075,7,4,-1,0,-3,-1,-1,-1
59375283075,-10,-5,0,-3,0,-2,-1,-1
59375292103,3,0,-3,-6,-5,-2,-2,-1
59375292103,6,1,0,0,0,0,-1,-1
59375306961,-2,6,-1,0,0,-1,0,1
59375306961,6,14,-1,-2,-1,-1,-3,0
59375308578,2,6,1,1,0,1,-1,0
59375308578,-12,-3,1,-3,-2,-2,-3,-1
59375329738,-2,-5,-1,-2,0,-1,-1,-2
59375329738,7,0,-1,-2,1,0,0,-3
59375331079,22,7,-2,-3,-1,-1,-1,0
59375331079,-1,4,1,1,0,0,0,1
59375343278,-4,2,-4,-3,0,0,-1,0
59375343278,-20,-22,-1,-3,-2,-1,-6,-1
59375352106,1,2,-2,-1,0,-2,1,-2
59375352106,-4,-17,-4,-2,-2,-1,0,-2
59375367217,-1,3,0,0,-1,0,-1,-2
59375367217,5,1,-2,-1,-2,-1,-2,-1
59375368569,-6,-7,0,-7,-3,0,-1,0
59375368569,-9,-6,-1,1,-1,-3,-3,-3
59375389518,9,-2,-3,-1,-2,-2,1,1
59375389518,-8,-7,1,-2,-3,-1,-3,-2
59375391040,-19,7,2,2,0,-2,-5,-3
59375391040,4,3,-1,-5,-1,0,-1,-1
59375403338,-1,1,0,-2,-1,-1,-2,0
59375403338,6,6,0,-2,0,-1,1,2
59375412157,-8,-14,-5,2,-3,-3,-2,-5
59375412157,10,10,1,4,-2,2,4,1
59375427091,-7,-4,-1,-1,-2,-1,-4,-4
59375427091,-11,-2,-3,1,1,0,1,-1
59375428589,-13,-18,-3,-2,-1,-2,-4,0
59375428589,-11,-5,-3,-2,-1,-1,-1,-1
59375449655,10,13,3,-1,-2,1,2,1
59375449655,3,4,1,0,1,0,-1,-1
59375451119,5,2,-1,-3,0,1,-2,1
59375451119,10,0,0,1,1,-2,1,-3
59375463339,-2,-1,-1,0,2,-1,-3,2
59375463339,9,7,1,-2,-2,-1,0,0
59375487139,-7,-6,2,-1,-1,-2,2,1
59375487139,-2,-1,-2,-4,-3,-1,-5,-4
59375487738,-7,-5,-3,-1,0,-1,-1,-5
59375487738,4,0,-1,-1,-2,-1,0,1
59375493090,6,1,-2,-1,-2,1,-1,-1
59375493090,-2,2,-2,1,0,-2,-2,0
59375509688,0,-6,-2,-1,-1,-2,1,0
59375509688,-5,-4,-1,-1,-1,-2,-1,-2
59375511153,2,2,-2,1,0,-2,0,2
59375511153,-1,-4,-1,-3,-3,-1,-1,-1
59375523309,-2,1,-1,0,1,-1,0,-1
59375523309,1,0,-2,-2,-1,-2,0,1
59375532165,4,9,4,3,1,0,0,1
59375532165,2,-1,-3,-2,-1,0,-3,-1
59375546534,-4,1,0,0,-1,-1,1,-2
59375546534,-6,-15,-3,-5,-1,0,-5,-1
59375553298,-6,-4,-3,0,1,-1,-2,-3
59375553298,1,-11,1,-3,-1,0,1,1
59375569676,7,-1,0,-2,-2,0,-1,2
59375569676,-3,-1,0,0,-1,0,-1,-1
59375571079,-26,-42,-6,-6,-4,-2,-4,-6
59375571079,-2,0,-2,1,-2,2,0,-1
59375583313,-6,-6,-6,-5,-4,-1,-3,-3
59375583313,-4,-1,0,1,-2,-2,1,-2
59375592145,13,7,-3,-1,0,0,0,-1
59375592145,1,7,1,-1,0,-3,-1,0
59375606957,-10,-10,-1,3,1,1,-1,-4
59375606957,2,3,-1,-5,-4,-4,0,-4
59375608589,4,9,1,-1,-1,-1,0,2
59375608589,-6,-13,-4,-4,-2,-1,-1,-2
59375629484,4,6,-1,1,-1,-3,-2,1
59375629484,-7,-2,-2,-3,1,-1,-2,-2
59375631035,0,2,-2,-1,-2,-2,-1,-2
59375631035,-5,0,-3,0,-1,-2,-3,-2
59375643431,4,-5,-3,-3,-2,-1,-1,-2
59375643431,3,0,-2,-2,-1,1,1,-1
59375652167,3,3,1,-4,-2,-1,0,1
59375652167,1,3,-1,1,-1,-3,0,-2
59375667174,-2,-2,-1,0,-1,-2,-2,-1
59375667174,11,8,0,2,0,-1,1,1
59375668600,4,7,0,1,1,-2,-1,-1
59375668600,-5,-2,-3,-3,-1,-2,-1,-2
59375689641,-1,-2,1,-2,-1,-1,-2,-2
59375689641,-5,7,-1,1,0,2,-3,0
59375691137,6,10,-1,-2,-2,0,0,0
59375691137,-1,5,0,0,-2,-2,-2,-2
59375703092,6,0,-2,0,-2,-2,-1,-1
59375703092,14,0,-4,0,-2,-4,-1,0
59375712114,15,14,2,1,1,1,3,3
59375712114,-7,-5,-1,-1,-2,-1,0,-1
59375726994,8,18,2,0,-1,-2,-1,-2
59375726994,-4,-6,2,-1,-2,1,-1,0
59375728675,-8,-8,-3,-2,-3,-2,0,-4
59375728675,5,3,1,1,0,-2,-1,1
59375750094,-3,-5,0,-4,-1,-1,0,0
59375750094,-6,-3,0,0,0,-1,-2,0
59375751708,-5,3,-1,-1,-3,-2,-2,-4
59375751708,-2,-2,-1,-3,-1,2,0,-2
59375772057,-5,-5,-3,-1,-1,-1,-3,-1
59375772057,-5,-5,-1,-2,0,0,2,-2
59375773598,-2,0,1,0,0,-3,-1,0
59375773598,2,-1,-1,0,0,-1,-1,-3
59375787148,-1,1,0,-3,-2,0,1,-2
59375787148,-2,2,-1,3,0,-1,0,0
59375788618,-1,-3,-5,-2,1,0,0,0
59375788618,-5,-6,0,-1,0,2,-1,1
59375809438,-15,-17,0,1,0,-1,-2,0
59375809438,3,3,0,-3,-2,0,-2,0
59375811066,3,-6,0,-1,0,-1,0,-2
59375811066,11,10,-2,-2,-1,-2,-4,0
59375832058,-27,6,5,1,0,2,-3,-3
59375832058,-3,-4,3,-2,0,-1,1,-2
59375833591,3,-2,-2,-1,0,-4,-2,-3
59375833591,6,2,-1,-1,-1,-1,2,1
59375847094,6,2,-2,-1,-2,-2,-2,0
59375847094,-4,-9,-4,0,-1,-3,-5,-2
59375848566,-8,-3,0,0,-1,0,-3,-1
59375848566,-9,-5,0,-1,0,-1,-2,-2
59375869661,5,-7,-4,-2,-1,-1,2,-2
59375869661,-7,-5,-1,0,-2,0,-2,-2
59375871107,4,0,-1,-1,-2,0,-2,-2
59375871107,-3,-2,-2,2,0,-3,-1,0
59375892217,3,0,-1,0,-1,-1,-1,0
59375892217,4,2,-4,-2,0,-1,-1,-1
59375893578,-1,-1,-2,-2,-2,0,0,-1
59375893578,-1,-1,-3,-3,-5,-1,0,-3
59375906322,2,-2,-3,0,1,0,-1,-1
59375906322,-3,0,-3,-2,-1,-2,0,-2
59375913180,-6,-5,0,-4,-2,-1,-2,-2
59375913180,-9,-6,0,2,0,-2,0,-4
59375929452,4,7,-2,3,-1,-2,0,-3
59375929452,2,1,0,-2,-1,-2,0,3
59375931122,-4,6,3,1,0,2,1,2
59375931122,-3,-3,-1,-3,-3,-1,-1,-2
59375952142,6,-3,1,1,-2,-2,1,-1
59375952142,-3,-3,0,0,-2,-1,-1,-1
59375953565,-2,-5,-3,-2,-2,0,-1,0
59375953565,6,8,1,1,0,-1,-1,1
59375974507,-16,-14,-4,-6,-2,-2,-5,-2
59375974507,-5,-15,-3,-2,-1,-1,-1,-1
59375976119,3,-5,-3,-2,0,-2,2,1
59375976119,37,8,-1,1,0,-1,0,-2
59375989703,5,-8,-3,-2,0,0,-1,-2
59375989703,2,8,-1,0,-3,-2,-1,-3
59375991110,-7,1,-1,1,0,-2,-2,-3
59375991110,-12,-6,-1,-3,-3,-2,1,0
59376011945,2,1,-1,-3,0,-1,-2,-1
59376011945,-1,1,0,-2,0,0,0,1
59376013594,4,-3,-2,2,0,-1,-2,0
59376013594,-6,-4,0,-2,-1,0,-2,0
59376026291,-4,-4,2,-2,-1,-1,-1,0
59376026291,-5,1,-1,0,0,-1,0,-1
59376033382,-3,-2,-2,-1,-3,0,-1,-3
59376033382,-3,0,0,0,-1,0,-2,-3
59376049520,2,4,-1,0,-3,0,0,2
59376049520,1,4,-1,0,-1,0,-2,-2
59376051056,-4,-6,-3,-3,-2,-2,-2,-1
59376051056,-9,-10,-4,-1,1,-2,-3,-1
59376072216,-1,4,2,0,2,-3,0,0
59376072216,4,-1,-3,-2,-2,0,-4,-2
59376073643,9,8,3,1,-1,0,1,0
59376073643,-6,-3,-1,-2,-3,-1,-1,-3
59376094692,-1,-3,-3,1,-1,-2,1,0
59376094692,4,1,-1,-1,1,0,-1,0
59376096095,13,-5,-1,-2,0,-3,-1,-3
59376096095,-8,-2,2,1,-3,0,-1,-3
59376116978,8,11,2,-1,-1,-2,0,-1
59376116978,-10,-18,-2,-1,-2,0,0,-2
59376118573,-28,-8,-3,-4,-2,-2,-6,-4
59376118573,2,2,0,-2,-1,-1,-1,1
59376132132,-4,-2,-2,-1,-2,0,-1,-2
59376132132,23,2,-3,-1,-2,-1,1,0
59376133697,-2,0,-1,0,1,1,-2,0
59376133697,0,-8,-3,-2,0,-2,0,0
59376146378,-1,2,0,-2,-1,-1,-3,0
59376146378,-8,-3,0,1,-1,-3,-2,-1
59376153317,1,1,0,0,-1,-1,1,-1
59376153317,5,9,-4,0,-3,-1,-2,-1
59376169651,-1,-3,-3,-1,0,-1,1,-1
59376169651,-5,2,2,1,-3,-2,0,-3
59376171068,4,1,-1,-1,-2,-1,-1,1
59376171068,-8,-4,2,0,-1,-1,-3,0
59376192072,-1,-3,-2,-1,0,-1,2,1
59376192072,-4,-1,-2,0,-1,-2,-3,0
59376193645,-1,0,-2,-1,-2,-1,0,-2
59376193645,-7,-7,-1,-3,1,-2,-3,-1
59376206465,12,11,3,3,1,1,3,1
59376206465,-1,3,-2,-2,-2,-1,-2,-1
59376213292,4,12,1,0,-1,-1,1,1
59376213292,-1,1,-1,-2,0,-3,1,-2
59376229572,-4,-6,-4,-3,-2,-1,-2,-2
59376229572,-8,2,0,-1,0,-2,-1,-1
59376231124,8,10,0,0,-2,0,-2,-2
59376231124,-13,-3,-1,1,-1,2,0,0
59376251934,-5,-7,-4,-2,-2,1,-3,-2
59376251934,-4,2,1,-5,-1,-1,-1,0
59376253555,-3,-5,-4,-2,-2,0,1,1
59376253555,6,1,-1,-1,-2,-2,-1,-1
59376265859,0,-2,-2,-1,-3,-3,-4,-3
59376265859,-6,2,-1,1,-1,-1,0,-1
59376274573,-3,-5,-3,-2,0,-1,-2,-1
59376274573,-5,-10,-1,3,2,1,1,-1
59376289677,-3,2,-2,-3,-1,-2,1,-1
59376289677,0,-3,-4,-1,-2,-1,-1,-2
59376291139,-8,-4,2,0,0,-1,1,2
59376291139,2,-2,-3,-1,-3,-2,-3,-1
59376319663,-9,-13,-2,1,0,-2,-3,-3
59376319663,3,-1,-2,1,0,0,0,-1
59376321069,-3,-7,-4,-2,-1,1,-3,0
59376321069,3,0,0,-2,1,-3,-1,0
59376325833,0,-4,-2,-2,0,2,0,0
59376325833,2,-1,1,-1,-1,-1,-1,-1
59376334617,-5,-2,-4,0,-2,0,-2,-1
59376334617,5,5,-1,-2,-1,-1,-2,-1
59376349629,1,5,0,1,-4,-1,-2,-1
59376349629,0,0,0,1,-1,-1,1,1
59376351053,0,-4,1,-2,-1,-1,-3,-3
59376351053,7,9,4,1,-3,0,1,2
59376372027,-8,-23,2,-2,1,0,-2,-1
59376372027,-1,0,-2,-2,-3,-1,-2,-2
59376373667,-2,-4,-1,-2,-2,-2,0,-2
59376373667,-3,0,0,-1,-1,0,0,-2
59376385725,6,14,1,-1,0,-2,0,-3
59376385725,-7,-32,-5,-4,-1,-2,-2,-2
59376394639,2,-5,-5,-4,-3,1,-4,-3
59376394639,-3,0,0,0,-2,-3,0,-4
59376409720,0,1,-2,-2,-1,-1,0,2
59376409720,-3,1,1,-1,1,0,-2,-2
59376411092,0,0,1,2,0,-1,-1,1
59376411092,-5,-8,-3,-3,-2,0,-1,-1
59376432187,3,-2,-3,-2,-2,-3,-1,-2
59376432187,4,8,-1,0,1,2,0,-1
59376433642,-17,-5,3,-1,0,0,-1,0
59376433642,1,3,0,-1,1,1,0,0
59376445613,-2,-2,0,0,-1,0,0,-2
59376445613,-1,6,-1,0,-1,-2,0,0
59376454727,9,5,0,2,-3,0,0,1
59376454727,3,-5,-5,-4,-2,0,-3,-2
59376469518,-2,0,-1,-1,0,-1,-2,-1
59376469518,4,4,-2,-2,-3,-1,-2,-2
59376471101,-1,-4,0,0,0,-2,-1,-2
59376471101,-1,-3,0,-1,-1,0,0,1
59376491892,0,2,0,1,0,-2,0,-1
59376491892,-3,0,1,-1,-2,-3,-1,-1
59376493510,4,3,-1,-2,1,-1,-1,0
59376493510,-5,-11,0,-2,-1,0,-3,-1
59376514633,3,8,3,1,0,-1,1,-1
59376514633,-3,-5,0,-1,1,-2,-2,-1
59376516072,6,10,0,-2,-1,-2,1,-2
59376516072,-1,-8,-4,-3,-2,-1,-1,0
59376530155,-4,-2,-2,1,-2,0,-3,-2
59376530155,14,10,2,-1,-1,0,-1,0
59376531556,-10,2,-1,-1,-1,-1,-1,-2
59376531556,3,5,-2,-1,0,-1,-3,0
59376551883,1,-1,-1,-2,-2,-2,-1,0
59376551883,-3,3,-1,-2,-1,1,-1,-2
59376553597,-3,-10,-3,-2,0,-3,-3,-4
59376553597,-6,-1,-4,-1,0,-1,-1,0
59376565839,-1,-4,0,-3,-2,-1,-2,2
59376565839,-3,1,0,-1,-2,-2,0,-1
59376574694,1,-4,0,0,-3,-3,-2,-3
59376574694,4,9,2,-3,-1,0,0,0
59376597189,0,2,-3,0,1,-1,1,-2
59376597189,-1,5,-2,0,1,0,0,1
59376598529,2,-3,3,-2,-4,-1,1,0
59376598529,2,1,-1,1,-3,-2,-1,-2
59376611965,2,-10,0,-1,-1,-1,0,0
59376611965,-3,8,2,2,-2,-2,0,-1
59376613562,-4,-3,-3,-2,-1,0,-3,0
59376613562,-3,-1,0,-1,-2,-2,-2,-1
59376625836,-1,-1,-1,1,-1,-1,-1,0
59376625836,-8,-12,-5,-1,-1,-2,-3,-1
59376634725,3,3,-1,1,-1,0,0,-1
59376634725,1,1,-2,1,-3,0,1,-3
59376649737,-6,0,-3,0,-2,-1,0,-2
59376649737,3,-3,-4,0,-1,0,0,-2
59376651115,-2,-1,-1,0,0,-1,-2,0
59376651115,14,9,1,0,0,-1,1,-1
59376671699,0,-2,0,0,1,0,-1,-1
59376671699,-1,-3,-4,0,-2,-1,1,-2
59376678304,1,-1,-1,-2,-1,-3,-1,0
59376678304,-5,-4,-2,-3,-1,-2,-3,-4
59376694448,-6,2,-1,-3,-2,0,0,-1
59376694448,1,-2,2,0,-1,-1,0,-1
59376696008,0,-6,-4,-1,-1,0,-2,-1
59376696008,-9,5,0,1,0,0,-3,-2
59376709463,-6,-12,0,-4,-1,-1,0,-3
59376709463,-5,-8,-3,-3,0,1,-2,0
59376711158,-3,6,2,1,0,0,2,-1
59376711158,0,-2,-1,-1,0,-3,-2,-1
59376731923,-6,-6,-2,-2,-1,-1,-3,-2
59376731923,-4,-9,1,0,-3,-3,-1,0
59376733536,0,-8,-4,1,-1,-1,-3,-1
59376733536,-3,-1,2,0,-1,0,1,0
59376754428,3,-3,0,0,2,-1,-2,-1
59376754428,0,0,3,-3,0,-4,0,0
59376756031,-2,-2,-2,-4,-2,-1,-1,-1
59376756031,-7,-5,0,1,0,-1,-3,0
59376769475,-1,5,2,-3,-1,-1,-1,2
59376769475,0,2,-3,0,-1,2,-1,1
59376771115,2,2,1,0,-2,-2,-2,-1
59376771115,-4,-3,-3,-4,0,-1,-2,-3
59376792186,5,0,-1,0,-2,-3,2,-2
59376792186,-5,-3,-1,-1,1,0,-2,-1
59376793654,-3,-5,-1,-1,-1,-1,1,-2
59376793654,-5,-8,1,-2,0,0,-1,0
59376814494,1,6,-1,-1,-1,-2,1,-2
59376814494,0,4,1,-2,0,-1,-2,1
59376816069,0,2,1,0,0,-2,0,-3
59376816069,7,1,-1,-3,1,-2,1,1
59376828866,-5,3,2,0,-1,0,0,1
59376828866,0,-3,-1,-2,-2,-2,1,-2
59376835636,3,0,1,0,1,-1,-2,0
59376835636,-1,-3,-3,-1,0,0,-1,0
59376851976,2,0,-4,-3,-2,-1,-2,-1
59376851976,1,0,-1,-1,-1,-1,1,-2
59376853513,-9,-5,-3,-1,-1,-1,-1,-1
59376853513,1,0,0,0,-2,-1,-1,-2
59376874352,2,-1,-2,-1,0,1,-4,0
59376874352,0,1,-3,-1,0,-1,-1,-4
59376876026,-5,-3,-3,-2,-1,-1,2,0
59376876026,-1,-10,1,1,0,0,0,1
59376888788,-4,1,-3,-2,-4,-1,-3,1
59376888788,-1,0,-5,0,-4,0,-2,0
59376895595,1,1,0,-2,1,-1,-2,-4
59376895595,-2,-1,-4,0,0,-3,0,-1
59376912023,-1,-3,-1,-1,-3,0,-3,-3
59376912023,-2,-1,-1,0,-1,1,-1,0
59376913589,-1,-3,0,-4,-3,-1,0,0
59376913589,-1,1,-2,-2,-1,-3,-1,-2
59376934470,-2,-3,-2,-1,-1,-1,-1,-2
59376934470,3,3,0,2,1,-1,0,2
59376936207,6,2,0,0,-1,-1,0,0
59376936207,-8,2,-1,-2,-1,-1,-1,-1
59376948887,3,5,0,0,0,-2,-3,-3
59376948887,-1,-3,1,-1,-2,-3,-1,-2
59376955537,-1,-4,-1,0,-1,-1,-4,-1
59376955537,8,8,-2,-1,-3,-1,0,0
59376971948,-8,-10,-3,-1,0,-1,-1,-2
59376971948,-2,-1,-2,-5,-2,-2,0,-2
59376973541,1,0,-3,-1,0,0,0,0
59376973541,5,-1,-5,-1,-1,-3,-1,-1
59376994422,1,0,0,-1,0,-1,-1,-1
59376994422,-2,-1,-2,0,-1,-2,-1,-1
59376996036,-2,-1,-2,-2,-5,-1,-2,1
59376996036,-3,-3,0,0,1,-2,-1,-3
59377008769,1,-2,-1,-1,-2,-2,-1,1
59377008769,-2,-2,-2,1,0,-1,-1,-2
59377015587,6,6,-2,-1,-1,-1,-1,-2
59377015587,-9,-6,0,1,0,1,0,-3
59377031908,-2,1,-1,0,0,-1,-1,-2
59377031908,-1,0,0,-1,0,-3,-2,0
59377033533,-2,-2,-1,0,-1,0,-2,-2
59377033533,5,12,1,-3,0,-1,-2,-1
59377054457,-3,-1,-4,-3,0,-2,0,-2
59377054457,-1,-1,1,-1,0,-1,-2,-1
59377056003,-4,2,-3,1,-1,-2,-1,-2
59377056003,-1,-5,-1,-3,-2,0,-2,-3
59377068803,-2,1,-1,-4,-1,0,-5,0
59377068803,-5,-8,0,-1,-3,0,-3,0
59377075718,-2,2,1,-1,1,-1,-2,1
59377075718,0,-2,-3,-3,-1,-2,-1,-1
59377092230,-2,2,-2,0,0,-2,0,0
59377092230,1,-7,-4,-3,1,-1,-3,-4
59377093631,4,0,0,-1,-1,0,1,4
59377093631,-5,-4,-2,0,-3,-1,-1,0
59377114646,4,2,-1,0,-4,-1,-1,-2
59377114646,-4,-8,0,-1,0,-2,-1,0
59377116020,-3,0,-1,0,-1,-3,-3,-2
59377116020,4,2,-1,-1,0,0,-1,-2
59377128949,-5,-11,-3,-2,-2,-1,-1,0
59377128949,-1,9,3,3,-2,-2,-2,-2
59377135614,-2,0,-2,-3,0,-1,0,1
59377135614,-7,-9,0,1,-3,-1,0,0
59377152388,0,0,0,-1,-1,-2,1,-3
59377152388,-3,1,-1,-4,-2,-1,1,0
59377154015,-11,-9,-1,-3,-3,-1,-2,-6
59377154015,-1,1,-1,-3,-1,-1,-1,-1
59377174440,-2,-2,0,-1,1,0,1,1
59377174440,-2,0,0,-1,-1,-1,-3,-1
59377176073,-2,-5,-4,-1,-2,-2,-1,0
59377176073,-3,-4,-2,-3,-1,-2,-1,0
59377188130,3,-1,1,-1,-1,-1,-3,-1
59377188130,0,-3,-3,-2,-1,-3,-3,-1
59377197056,1,1,-2,-1,-2,-1,0,-2
59377197056,1,9,1,1,1,-1,-2,-1
59377211941,-1,3,-5,2,1,-3,0,-1
59377211941,1,3,0,-2,-1,1,0,0
59377213532,1,-3,-1,-2,-2,-1,-1,0
59377213532,-6,0,1,0,0,0,0,-1
59377234459,-2,-1,0,-2,-1,0,-4,0
59377234459,-3,-3,-1,0,1,-1,-1,-2
59377236057,7,5,-1,-1,-1,-2,-1,0
59377236057,-2,-3,0,-2,-3,0,-1,-2
59377248015,-2,-2,2,0,-1,1,0,-1
59377248015,3,2,0,-3,-1,0,-1,-1
59377257013,7,3,2,2,0,-1,0,2
59377257013,3,-5,-3,-1,-2,-2,0,1
59377271910,-1,-3,0,-2,-2,-3,1,1
59377271910,2,2,-1,-1,-1,-2,1,-1
59377273539,-5,-4,0,0,-1,-1,-2,-1
59377273539,1,-3,0,-1,-1,1,-2,1
59377294395,0,0,-1,-1,0,0,-1,-3
59377294395,4,9,-1,1,-2,-1,-1,0
59377295994,-4,-2,1,-2,-3,-1,1,0
59377295994,-3,-3,-3,0,-3,-2,-2,-1
59377308034,1,0,-4,-2,-2,0,-3,-2
59377308034,-5,-1,-5,-1,-1,0,-1,-2
59377317040,-6,-2,1,-3,-2,-1,-2,-3
59377317040,4,2,0,-1,-1,-1,0,0
59377331947,1,2,0,0,-2,-1,-2,1
59377331947,-7,-8,-3,-2,-1,1,-4,-4
59377333553,-3,-1,-2,0,0,0,0,-3
59377333553,-3,-4,0,-1,-1,-3,0,0
59377354408,-5,-4,0,-1,0,-1,-3,0
59377354408,-1,0,-1,-1,-1,-2,-1,-2
59377356039,6,2,0,1,-1,0,2,0
59377356039,-7,-3,-1,0,-1,-1,-1,-2
59377368075,0,-3,-1,-3,0,-1,-1,0
59377368075,2,9,2,-2,-3,-2,-1,1
59377377046,0,-1,-2,0,-1,-2,-1,-2
59377377046,2,-1,-4,-1,-1,-1,-1,-3
59377391967,-2,-2,-1,0,-1,0,-1,0
59377391967,-1,-3,-1,0,-1,-1,0,-1
59377393528,0,-3,-1,-2,-1,-2,-2,-2
59377393528,-2,-1,-2,-2,0,-2,-2,0
59377414437,-1,-1,-2,-2,-1,0,-1,0
59377414437,1,0,-2,1,0,0,0,0
59377416035,-3,-4,-1,1,-1,-1,-1,-2
59377416035,-1,-2,-2,-1,-2,-3,-2,-3
59377428101,1,-2,0,2,0,-1,1,-3
59377428101,2,-3,0,-2,-1,-2,0,1
59377437071,4,-2,-5,-2,1,1,-1,0
59377437071,0,0,0,-1,1,-1,-2,0
59377451938,-1,-2,1,-3,-2,-1,-1,-3
59377451938,-4,-6,1,1,-2,-2,-2,-1
59377453530,-2,0,-1,-1,-1,0,-4,-1
59377453530,-10,-5,-3,-3,0,0,-2,-2
59377474410,-2,-5,-2,0,-2,-1,0,-2
59377474410,-5,-1,-1,-1,-1,-2,-1,-1
59377476075,-3,-1,-1,-2,-1,0,-1,0
59377476075,-2,-1,-5,-2,-3,0,-1,-1
59377488075,0,3,-2,1,-1,-2,1,0
