timestamp,emg1,emg2,emg3,emg4,emg5,emg6,emg7,emg8
59981566435,4,-2,-2,-2,-3,0,-3,0
59981566435,-1,-1,0,-1,-3,-2,-2,0
59981567216,-3,-3,-2,-1,-2,-1,0,-1
59981567216,1,-2,1,-1,0,1,-2,-1
59981580760,-3,0,-2,-2,-1,0,-1,-2
59981580760,-2,-1,-2,-1,-1,-2,-2,0
59981588242,-2,-2,0,0,-1,-2,-1,-1
59981588242,-3,-4,-1,-1,-1,-3,0,-1
59981603189,2,1,-1,-2,-3,-1,0,0
59981603189,-3,-2,0,-2,-1,0,0,-2
59981603945,-2,0,-1,-1,-1,0,-1,-1
59981603945,-2,-1,-4,1,-2,-2,0,-1
59981626382,0,0,-1,-1,-1,-1,-1,4
59981626382,-1,-2,-4,-1,-1,0,-1,-12
59981627190,-2,-1,-3,-1,-1,-1,1,0
59981627190,-1,0,-1,-1,0,-1,0,1
59981640692,-2,0,0,-4,0,0,0,0
59981640692,7,5,-1,-1,-1,0,0,3
59981641492,-7,-3,0,-1,-1,1,-1,-2
59981641492,2,0,-2,-1,-2,0,-1,-2
59981663213,-3,-2,-1,0,1,-1,-1,-2
59981663213,-1,-2,-1,-1,-1,-2,0,0
59981664011,2,0,-1,-2,-1,0,-2,0
59981664011,-1,-1,-1,0,0,0,-2,0
59981686425,-2,-2,0,0,-2,0,-1,-4
59981686425,-2,-3,-2,-2,-1,-1,-1,2
59981687241,0,-2,-3,-2,0,-2,-1,0
59981687241,-2,-5,-1,-1,-2,0,-1,-2
59981700023,0,2,-1,0,-1,-2,0,-1
59981700023,-2,-2,-1,-2,0,-1,-2,-1
59981708430,-1,0,0,-1,-1,-2,0,-2
59981708430,-1,-2,0,0,0,0,-2,1
59981723325,-1,-3,-1,0,-2,-1,0,0
59981723325,1,0,0,0,0,-1,1,-10
59981724044,0,0,-1,0,-1,0,0,-1
59981724044,-2,-3,-3,-3,-2,-1,0,-2
59981746493,-1,0,0,0,-1,-1,-2,0
59981746493,-5,-1,-2,0,0,-2,1,2
59981747224,-1,-1,-1,-2,0,-1,-2,-2
59981747224,-2,0,0,-2,-1,-1,-2,-4
59981760269,-1,-3,-3,-2,1,0,-1,-2
59981760269,-4,-3,0,-1,-1,-1,0,1
59981768432,1,5,0,-2,-1,0,-1,-2
59981768432,3,-1,0,-2,-2,-1,-1,2
59981783446,-8,-4,1,1,0,-3,1,-1
59981783446,4,0,-1,1,-1,0,-1,2
59981784091,-1,-3,0,-2,-1,0,0,-2
59981784091,-1,-1,-2,-1,0,-1,-1,0
59981806492,-1,0,-2,-1,-1,-2,-2,-1
59981806492,-1,0,-1,0,-1,-3,-3,-1
59981807308,-1,-2,-1,-1,-2,0,-2,1
59981807308,-1,0,-1,-1,-1,-1,-2,-2
59981820030,0,-2,-1,0,-1,0,2,3
59981820030,-3,-1,0,1,-2,-1,-1,-9
59981828262,0,-2,-3,0,-1,-1,-1,-1
59981828262,-2,-1,-2,0,-2,-1,-2,0
59981843170,-1,-3,-2,-2,-2,-1,-3,0
59981843170,-1,-1,0,-2,-1,-1,-1,1
59981843977,-2,-1,1,-2,1,-1,-1,-1
59981843977,0,0,0,0,1,-1,1,-4
59981866384,-3,-1,-1,-1,-1,0,-1,-2
59981866384,-1,0,-1,-2,-3,0,-1,0
59981867177,2,-3,1,-2,-1,-1,0,-4
59981867177,-2,-2,0,-3,-1,-2,-2,2
59981880035,2,1,0,0,0,-1,-2,-1
59981880035,-1,-3,-2,-1,-2,-1,-1,1
59981888197,-1,-1,-3,1,-1,-1,-2,-1
59981888197,4,6,-1,-3,0,-1,-1,-1
59981903180,-5,-3,-2,-1,-3,-1,0,-2
59981903180,0,-2,-2,-1,1,-1,-2,1
59981904071,-2,-1,-1,-1,0,-2,-2,-5
59981904071,1,2,-1,0,-2,0,-2,1
59981926403,0,0,-1,-2,-1,-1,-1,-1
59981926403,-1,0,-1,-2,0,0,-1,-1
59981927175,-1,-2,1,-2,-1,-1,-1,2
59981927175,-3,-4,0,0,1,0,-2,-3
59981940243,-2,-1,0,-1,0,-2,1,-3
59981940243,0,-1,-3,0,-1,-3,-1,3
59981948505,-4,-1,-2,-1,-1,1,-1,1
59981948505,3,2,-1,-1,-1,-1,0,0
59981963240,1,-2,-2,-1,1,-1,-2,-2
59981963240,1,-1,-1,0,-1,-1,-1,0
59981964026,0,-2,-1,0,-1,-2,-1,-1
59981964026,-7,-5,-1,-1,-2,-2,-2,-2
59981986627,0,1,-1,-3,-1,0,-2,0
59981986627,0,-1,-2,-2,1,0,-2,0
59981987214,-1,1,0,0,-2,0,-1,-1
59981987214,-2,-2,0,0,-1,0,-1,0
59982000337,0,-1,-4,-1,1,-1,0,-12
59982000337,-5,-2,-3,0,0,1,-1,-1
59982008229,-3,0,-1,1,-1,-1,0,-1
59982008229,1,-2,-2,-3,-1,-1,0,-1
59982023226,-2,-2,1,-2,-3,-3,-4,0
59982023226,0,-1,-3,-1,-1,-1,0,-1
59982023988,-4,-1,-3,-2,-2,-1,-2,-2
59982023988,-2,1,-1,0,-3,0,1,-2
59982046402,-2,-4,-1,-2,-1,0,1,0
59982046402,-1,1,0,-3,-1,-2,0,-1
59982047184,1,1,-1,-2,-2,0,-1,0
59982047184,-7,-11,-2,-2,1,-1,0,-3
59982068892,-1,1,-2,1,-1,1,-1,1
59982068892,-1,-1,-1,-2,-2,-1,-1,-1
59982069634,-1,-4,-1,0,-1,-1,0,-1
59982069634,-1,1,-1,-3,-3,-1,0,0
59982083227,-3,-1,-1,0,-1,-1,-2,-1
59982083227,-1,-3,0,-1,0,-2,0,0
59982084053,0,0,-2,1,-1,-3,-1,-1
59982084053,-2,-1,0,-1,0,-1,-2,-1
59982106405,2,-1,-1,-2,0,-2,-2,2
59982106405,-1,0,-1,-2,-1,-1,-1,0
59982107171,0,-2,1,0,1,-1,-1,-1
59982107171,0,0,-2,0,-2,-3,-3,5
59982129066,-1,-2,0,1,0,0,1,-6
59982129066,0,5,0,0,0,-1,-1,-1
59982129727,-1,-4,-3,1,0,0,0,0
59982129727,-3,-3,-2,-1,-1,-2,-1,0
59982143226,4,2,-1,-1,-1,-2,-1,1
59982143226,0,0,0,-2,-3,0,-1,-1
59982144009,-5,-3,0,-2,-1,1,-2,-2
59982144009,1,2,0,-1,-1,0,0,-3
59982166372,-3,-1,-3,-2,-1,0,0,0
59982166372,-2,-3,0,-1,0,0,0,-2
59982173276,1,1,-2,-1,0,-2,-2,0
59982173276,-4,-3,-2,1,-1,-1,-2,-3
59982188985,-3,-2,0,1,-1,-1,-2,1
59982188985,-3,-2,-1,1,0,0,-1,-2
59982189800,0,-1,-3,-1,-2,0,-1,0
59982189800,0,1,-2,-1,0,-2,-1,-2
59982203312,-1,0,-2,-2,-1,-1,-2,0
59982203312,-3,-2,0,0,-2,-2,-1,-1
59982204121,-1,-2,-1,0,-1,-1,0,-2
59982204121,0,-2,-1,0,0,0,-1,-2
59982226523,1,-1,-2,0,-3,-1,0,-1
59982226523,-3,-2,0,0,-1,-2,-1,-2
59982227200,0,0,0,-1,-2,0,-2,0
59982227200,1,-1,-2,-2,-2,0,0,-5
59982248869,-3,-2,0,0,0,0,0,2
59982248869,-1,0,-2,-1,-1,-2,-2,-2
59982249651,-1,1,-2,-1,-1,-2,-1,-3
59982249651,-1,1,1,-1,0,-1,0,0
59982263435,-2,0,-1,-1,-2,-1,0,0
59982263435,-4,-2,-2,-2,0,0,0,-2
59982264048,0,-2,0,-2,-1,0,-1,0
59982264048,2,-4,-1,-1,-2,-1,-1,-2
59982286660,0,0,1,-1,-2,-2,-1,-3
59982286660,0,-1,0,-2,0,-1,-2,-1
59982287280,3,0,-3,-1,-1,0,0,-1
59982287280,-3,0,2,0,-2,-2,-2,-1
59982308882,0,0,-3,-1,-3,-1,-1,1
59982308882,0,-3,-1,1,-1,-1,-1,2
59982309666,-1,-3,-1,0,-1,-1,0,-1
59982309666,-1,-2,-3,-2,-1,-1,1,0
59982324587,1,-2,-2,-1,0,-2,-3,0
59982324587,-1,1,-1,-1,-1,-1,0,-1
59982325156,-1,-1,-1,-1,-1,0,-1,-2
59982325156,-3,-5,-1,0,-1,-1,-2,0
59982346426,1,-1,0,-1,-1,1,0,1
59982346426,-1,-1,-1,0,-2,0,-1,-11
59982347213,-1,-2,-2,-1,0,-1,-1,1
59982347213,-1,-3,0,-1,-1,0,-1,1
59982368905,-2,-1,0,-1,-1,0,-1,-2
59982368905,-2,-1,-1,-1,-3,-1,-1,1
59982369682,-2,0,0,-1,-1,0,-1,0
59982369682,0,-2,1,-1,-1,-2,-2,-3
59982383308,-1,-2,-1,-2,0,-2,-3,-1
59982383308,0,-1,-1,-3,0,-1,0,1
59982384044,-2,-1,-1,-2,-1,-2,0,-1
59982384044,1,-1,-2,-2,-3,0,-2,2
59982406472,-1,3,-1,0,0,0,-2,-2
59982406472,-1,-1,-1,0,-2,-2,-3,0
59982407247,-2,-2,0,-2,0,-1,0,-1
59982407247,0,2,0,-1,-1,0,0,-1
59982428893,0,-4,-2,0,0,0,0,-2
59982428893,3,0,0,-1,-1,0,-2,-1
59982429677,0,0,0,0,-2,-1,0,0
59982429677,3,0,-2,-2,-2,0,-3,-1
59982443287,-8,-10,-1,-3,-1,-1,1,6
59982443287,-2,2,0,-1,1,1,-2,-4
59982444068,-1,-1,-2,-2,-3,-2,-2,-1
59982444068,-1,1,-1,1,0,-1,0,-4
59982466387,-1,-2,-2,-1,-1,-3,-1,0
59982466387,-1,-1,-1,-1,-2,1,0,1
59982468008,-1,-2,-2,-1,-2,0,0,-2
59982468008,-5,3,0,-1,-1,-1,-1,0
59982496662,1,0,0,-1,-1,0,-1,-5
59982496662,-2,-3,-1,-2,-1,-3,-2,2
59982498052,2,1,-1,0,-1,-1,-1,-2
59982498052,0,-2,-3,-1,0,-1,-1,0
59982502525,2,1,0,-2,-1,-1,-3,-3
59982502525,0,-1,-1,-2,-1,0,1,-1
59982511540,-3,-3,1,0,-1,-1,-2,-1
59982511540,-3,-1,-3,-2,0,-2,0,-2
59982526428,-2,-2,-1,0,-1,-1,-2,-3
59982526428,0,1,0,-1,-1,-1,-1,0
59982528060,-3,-1,-1,-3,-1,0,0,-2
59982528060,-2,-2,0,0,-3,-2,0,-1
59982556549,1,0,-2,1,-3,-2,-1,-13
59982556549,-1,-4,-1,0,-1,-1,1,2
59982558057,0,-1,-1,-1,1,-1,-1,-2
59982558057,-1,-2,-4,0,0,-1,-2,0
59982562560,-1,0,-1,-1,-2,0,-3,2
59982562560,-2,-2,0,-2,-1,0,-4,-3
59982571716,1,-2,-1,-2,-1,-1,-3,-3
59982571716,0,1,0,-2,-1,0,0,0
59982586654,-2,0,0,0,-2,-1,-3,2
59982586654,0,-1,-2,0,-3,0,-1,0
59982588076,0,0,-1,-2,-2,0,-1,0
59982588076,0,-1,0,-1,-1,-1,-1,-2
59982609072,-1,-2,-2,-2,-1,-2,0,-1
59982609072,1,2,0,-2,-1,-2,-1,-2
59982610520,-2,-3,-1,1,-3,-1,-1,0
59982610520,-1,-1,0,-1,-2,-1,-2,0
59982631687,-2,1,-1,-3,-1,0,2,-2
59982631687,-2,-5,-3,-1,-1,-1,-2,-1
59982633094,-2,-1,-1,-2,1,-2,0,-1
59982633094,0,-1,0,0,-1,-2,-1,0
59982646420,0,-2,-3,-2,0,0,-2,1
59982646420,-3,-3,0,0,-1,1,-2,-1
59982648029,-2,-1,-2,-1,-3,-1,-2,0
59982648029,-2,-6,1,-1,-1,-1,0,-9
59982668873,-1,2,-1,-2,1,-1,1,0
59982668873,-2,0,0,-1,-2,-3,-1,0
59982670429,-1,0,-3,-2,-2,0,-3,1
59982670429,-3,-2,-2,-2,-2,-2,-1,1
59982682637,-1,-1,1,-3,-1,-3,0,-1
59982682637,-1,-4,-1,-1,-2,-1,-2,-3
59982691588,2,2,-1,-1,0,-2,-2,-1
59982691588,-4,-1,-2,0,-1,0,-2,-1
59982706588,0,-1,-1,0,-2,0,-1,1
59982706588,-2,-2,-1,-2,0,-2,0,0
59982708101,-3,-4,-3,-1,-1,-1,-2,-4
59982708101,1,5,-1,-1,-1,-1,-1,-1
59982728894,-2,0,0,-1,-1,-1,-2,0
59982728894,-1,0,-2,-1,0,0,-1,-1
59982730493,-3,0,0,-1,0,0,1,-2
59982730493,-2,-5,-1,-1,-1,0,0,0
59982742676,-1,0,-2,0,-3,-1,0,-1
59982742676,1,0,-1,0,-1,-1,-1,0
59982751586,0,-1,-1,-2,0,-1,0,0
59982751586,-1,0,0,-2,0,0,-3,-1
59982766413,-3,-4,-2,-1,-2,0,-1,-1
59982766413,-1,-2,-2,0,-1,-1,0,-1
59982767954,-2,-3,1,2,-1,-1,-1,-1
59982767954,1,-1,0,-2,-1,-1,0,1
59982789125,1,0,-2,-2,0,-1,-1,0
59982789125,-4,1,0,-1,-1,-1,-2,-2
59982790533,-1,-3,-1,-2,-2,-1,-1,-1
59982790533,-1,-5,-2,-2,0,0,-1,1
59982802533,-1,3,-2,-1,0,-1,-2,-1
59982802533,-1,-2,-1,-2,-2,-2,0,-2
59982811625,2,3,0,1,-1,-2,0,-2
59982811625,-1,-2,-1,-1,-1,-1,0,0
59982833912,-2,-1,-3,-1,0,-1,0,-2
59982833912,-1,1,-2,-1,-1,0,-1,0
59982835524,-2,-2,-1,-1,-2,-2,-2,-3
59982835524,-2,0,-3,0,-1,-3,0,1
59982849174,-3,-4,0,0,-1,-2,0,-1
59982849174,-2,2,-1,-3,-1,-3,0,-1
59982850582,0,0,-3,0,0,-2,-1,1
59982850582,1,1,-2,-1,0,-2,-1,-1
59982862780,0,-2,-2,-1,-3,0,1,-2
59982862780,-1,-3,-2,-1,-1,-1,-2,0
59982871561,-1,-4,0,-1,-1,0,0,-2
59982871561,-3,-2,0,-1,-2,-1,-3,-2
59982886408,1,-1,-1,0,-1,-1,-2,-1
59982886408,-2,-2,-1,0,-2,-1,0,0
59982888032,0,0,-1,-1,-2,-2,0,-1
59982888032,0,1,-1,-1,-1,-2,0,-1
59982908903,-1,0,-1,-1,0,-2,-1,-1
59982908903,0,-1,-2,-1,-1,0,-2,-2
59982910518,1,-1,-1,-1,-1,-1,1,-2
59982910518,-2,-2,0,0,-1,0,0,3
59982931402,-3,-3,1,0,-2,-2,-2,-11
59982931402,1,2,-2,0,-1,-2,-2,0
59982933008,-2,1,-1,0,-1,-1,-1,1
59982933008,-2,0,-1,-1,-1,0,-2,-2
59982946385,-4,-2,-1,-2,-2,-1,0,1
59982946385,-4,-2,1,0,0,-1,-1,-3
59982947992,-1,-1,-2,-3,0,0,-2,-1
59982947992,-2,1,-2,0,-1,0,-1,-1
59982968875,-4,-1,0,-1,-3,-2,-2,2
59982968875,-1,-3,-2,0,-2,1,-2,-1
59982970521,-3,0,-3,-2,-2,-2,-3,2
59982970521,1,-1,-1,-2,0,-1,-3,-2
59982991389,1,0,-1,0,-1,-1,0,1
59982991389,0,-2,0,-2,0,-3,-1,-1
59982993007,0,-1,1,-1,-1,-1,-2,-2
59982993007,-1,-1,-1,-1,-3,0,-3,-2
59983006374,0,-1,-1,0,0,-1,-1,-1
59983006374,0,-2,-1,-2,-1,0,-1,0
59983007954,-3,-2,-1,-1,-2,-2,-3,-1
59983007954,-2,2,-2,-1,-1,-2,-1,3
59983036574,0,-2,-1,-2,0,-1,-3,0
59983036574,-1,2,1,0,0,-1,-3,0
59983038086,-2,-3,0,-1,2,0,1,-3
59983038086,-1,-3,-2,-1,-2,-2,0,-1
59983051428,1,1,0,-1,0,-1,1,0
59983051428,-1,-3,0,0,-1,-1,-1,-1
59983053022,-2,-1,-1,-1,-2,-1,-2,1
59983053022,-2,-3,-1,-1,-1,0,-1,-2
59983066405,-2,-1,-2,-2,-1,0,0,-2
59983066405,-1,-1,-2,-2,0,-1,-2,-1
59983068001,0,-1,-2,-1,-2,0,-1,-2
59983068001,-2,-3,1,0,0,-2,0,-3
59983088976,2,-1,-1,-3,-1,-2,-1,-2
59983088976,-2,-1,-1,0,-2,1,-1,0
59983090525,0,-2,-2,1,0,-1,-1,1
59983090525,-1,0,-2,-1,-2,0,-3,-2
59983111451,-1,-1,-1,-1,-1,-2,-1,5
59983111451,-3,-1,-2,-1,0,-2,0,-10
59983113023,-1,-1,-2,-2,0,-2,1,-2
59983113023,0,-1,0,-1,-1,-1,1,0
59983134138,-1,-1,-3,1,-2,-2,-1,0
59983134138,0,-1,-1,-3,-2,-2,3,2
59983135567,-1,0,-1,-1,-2,-2,-3,-2
59983135567,0,-2,-3,-1,-2,1,-1,-4
59983149099,-2,-3,1,-1,-1,-1,-1,-3
59983149099,2,-2,-2,-1,0,-2,-1,2
59983150578,-3,-1,-1,0,-1,-1,-2,0
59983150578,-1,-4,-1,-1,0,-1,-3,1
59983171583,3,7,0,-1,0,0,-1,-2
59983171583,-1,-2,-1,-1,1,-1,-1,1
59983173064,1,-1,-1,-1,-3,1,0,-2
59983173064,-2,-1,-1,-1,-1,-2,0,0
59983185891,-2,-2,-3,0,-1,0,-2,-2
59983185891,0,-1,-1,-2,-1,-1,-1,4
59983192590,1,-2,-1,-2,0,-2,-3,-6
59983192590,-2,2,0,-2,-2,-3,-2,-1
59983209493,-1,-4,-1,-1,-1,-3,-1,-2
59983209493,-1,0,-2,0,-1,-1,-1,-1
59983211035,0,-2,-2,0,-3,0,-1,1
59983211035,0,-1,-3,0,0,1,0,-2
59983231505,-4,0,1,-3,-1,0,-2,0
59983231505,1,-2,0,-1,-1,-1,0,-3
59983233116,-1,2,0,0,-1,-1,0,-1
59983233116,-1,-1,-2,-1,0,-3,-1,-3
59983245781,-2,-4,0,0,1,1,-1,-1
59983245781,3,2,-2,0,-1,-2,-2,-4
59983252467,-1,-1,-2,-1,-1,-1,0,-1
59983252467,-2,0,-1,0,-2,0,-1,2
59983269059,-5,-5,-3,-2,-1,-1,-2,1
59983269059,0,-1,0,0,-2,0,-1,-10
59983270585,-3,-3,-1,-2,0,1,-1,0
59983270585,4,7,-1,-1,0,-1,-1,-2
59983291644,-3,-7,-3,-1,-1,-1,-2,-1
59983291644,-4,-2,0,-2,-2,-2,1,0
59983293058,-1,0,-1,0,0,-2,0,-2
59983293058,-1,-2,0,-1,-1,-2,-1,-2
59983305959,1,5,-1,-2,-3,-1,-2,0
59983305959,0,-2,-2,0,0,1,-2,0
59983312671,-2,-1,1,-2,-2,-1,-1,-1
59983312671,-4,-3,-1,0,0,-2,-1,0
59983329136,0,0,0,1,-3,-1,1,-3
59983329136,-5,-4,-1,-1,-1,0,-1,0
59983330544,1,2,-2,-2,-1,-1,-3,-1
59983330544,-1,-2,-1,0,-2,-3,-1,-2
59983359143,-1,1,-3,-1,-1,0,0,0
59983359143,-2,-2,-1,0,-1,-2,-1,0
59983360560,0,-2,-1,0,0,-2,-2,-9
59983360560,-4,-2,-1,-1,-1,0,-3,-1
59983366006,0,0,-1,-1,-2,-1,-1,-1
59983366006,0,0,0,0,-2,-2,-1,2
59983372521,-1,-3,-1,0,0,1,0,1
59983372521,2,-1,0,-1,0,1,-1,0
59983389198,-2,0,-1,-1,-1,-2,-1,-3
59983389198,-1,0,-1,-1,0,-2,-1,-1
59983390568,-2,-1,-1,-2,-2,-1,-1,2
59983390568,-1,-2,-1,-1,-1,0,-1,-3
59983411508,-2,-2,-2,-1,-2,0,-2,0
59983411508,0,1,0,0,-1,-2,-1,-1
59983413020,-2,-2,-2,0,-2,-2,-1,1
59983413020,-1,-2,-2,-2,0,0,-2,0
59983425757,1,-1,-1,-3,-1,-1,-3,-1
59983425757,-3,-1,-3,-1,-3,-1,-1,-1
59983432525,-2,-3,-2,-1,-1,0,-1,-1
59983432525,-2,0,-1,0,-2,-1,0,1
59983449181,-1,-1,2,2,0,-1,-1,-10
59983449181,-1,0,-1,-2,-1,0,0,-1
59983450598,-1,0,-1,-2,0,-1,-1,3
59983450598,-3,-2,-1,-2,-1,-1,-2,-1
59983471497,0,-1,-2,0,-1,-1,-1,1
59983471497,-1,-1,-2,-2,-1,-1,0,-1
59983473085,-3,-2,-2,-1,-2,-3,-1,-3
59983473085,-1,-2,-3,0,-1,-2,-1,0
59983485080,2,2,0,0,-1,-2,-1,1
59983485080,0,-2,-1,1,0,-1,-2,-2
59983494006,0,-1,-1,-4,0,-3,-2,1
59983494006,-1,-2,0,-2,-3,-3,-1,-3
59983508965,-1,-1,-3,-1,0,0,1,0
59983508965,0,-3,-1,-3,-1,0,-1,-2
59983510479,-2,0,0,0,-1,0,0,0
59983510479,-1,-3,-1,-2,-3,-1,-1,-1
59983531603,-1,-1,-1,-2,-2,-3,-3,-1
59983531603,-2,0,0,0,-1,-1,-1,-2
59983533038,0,-1,-1,-2,0,1,-1,-3
59983533038,0,0,0,0,-2,1,0,-2
59983545079,-2,-3,1,0,0,0,-1,-2
59983545079,-2,-2,-1,-3,-1,-2,-3,-1
59983561559,1,-2,-1,-1,-1,-3,-4,-3
59983561559,2,0,-1,-1,0,-1,0,0
59983568928,-2,-1,-1,-2,0,0,1,0
59983568928,-1,0,-1,-3,-2,-1,-1,0
59983570529,-2,0,-1,7,-2,-2,-1,0
59983570529,-3,-1,-1,-5,1,2,-1,-2
59983591616,0,-1,-4,-2,-5,0,-3,-1
59983591616,0,-1,1,1,3,-3,-1,0
59983593082,-1,-1,-1,-21,-5,-3,0,0
59983593082,1,-1,1,31,0,0,-6,-2
59983605063,0,0,-3,-4,1,4,3,0
59983605063,-2,-1,2,8,-2,-3,-1,-1
59983614021,2,2,-1,-18,2,2,1,1
59983614021,-2,-2,-2,-1,-1,-1,0,0
59983628435,-4,-3,1,2,-4,-4,-2,-7
59983628435,-2,-2,-2,1,-6,0,-1,-3
59983635288,-1,-2,-1,0,1,-2,-5,-2
59983635288,-2,-1,-4,-15,0,5,2,-1
59983651508,0,-1,1,21,1,2,2,2
59983651508,3,-1,-1,-10,-1,-7,-3,-1
59983652979,-3,-2,-3,6,-2,2,-1,-1
59983652979,1,2,7,49,6,-2,-3,-1
59983665286,-1,-4,-2,-3,-4,-5,-4,-2
59983665286,0,-2,0,24,-8,-1,-2,-2
59983674116,-1,1,-1,4,9,-1,2,1
59983674116,-2,-3,-6,-9,-11,-9,-1,-1
59983689064,-4,3,-3,-23,10,12,4,2
59983689064,1,-2,-4,-19,1,-1,2,11
59983690631,1,0,3,38,-6,-2,-6,-9
59983690631,-3,-2,-3,-10,5,5,2,-3
59983711617,0,-4,-1,-12,-10,-18,-3,4
59983711617,-2,-3,-2,-6,4,6,-6,-8
59983713061,6,0,-5,-29,-3,-3,6,9
59983713061,-1,7,5,-8,-8,-2,-3,-1
59983725233,8,-2,-1,0,3,9,3,0
59983725233,-7,-5,-4,-10,-3,-5,-8,-4
59983733984,13,-2,-1,17,2,-7,0,18
59983733984,-26,-5,-6,-20,-1,7,1,-41
59983748215,-3,0,2,-3,0,-7,-4,44
59983748215,12,11,4,27,12,15,14,-5
59983762520,15,11,1,-1,-1,8,-3,4
59983762520,-20,-17,0,0,-2,-17,-9,-9
59983771450,8,3,-1,-15,-12,-3,0,0
59983771450,3,-3,-2,-7,-7,-10,-6,-3
59983773036,-13,-2,-2,-9,-2,3,-3,-6
59983773036,14,0,-4,-13,1,13,11,14
59983785086,-15,4,5,18,7,2,-11,-23
59983785086,8,-6,-4,-21,-16,-26,9,12
59983794091,-32,-9,-1,19,-1,4,-4,-8
59983794091,16,2,2,5,6,-5,-1,4
59983808501,-5,-5,-1,12,7,18,18,6
59983808501,-13,0,0,0,5,8,-6,-1
59983822574,-4,-4,0,-11,1,-13,-6,-6
59983822574,16,0,-4,-18,-11,-4,-6,14
59983831592,6,-1,-2,-9,-5,-5,-13,-40
59983831592,11,-2,-1,27,12,8,20,44
59983833056,-10,-1,-2,-25,-14,1,-3,-10
59983833056,4,-1,0,21,1,-5,-1,11
59983845313,3,1,1,-3,-1,-13,-9,-14
59983845313,0,-1,-2,-4,-4,14,-5,-13
59983854066,-12,-3,-2,-11,-4,-25,1,8
59983854066,11,6,1,-3,-3,-1,-4,3
59983868747,-7,-6,-9,-12,-3,9,6,9
59983868747,-9,4,4,16,13,6,-11,-14
59983875060,11,-1,-4,-13,-16,5,12,-4
59983875060,3,-2,-1,1,1,-11,-15,-13
59983891437,-11,-1,1,9,5,-4,0,-2
59983891437,15,0,1,-22,-5,4,0,7
59983892983,-14,-7,-1,19,4,0,-2,4
59983892983,-20,-2,-7,-22,-16,-12,2,-18
59983905119,-5,-4,-3,8,8,20,-7,-2
59983905119,7,5,0,-17,1,-21,-13,-20
59983914113,10,-2,1,-2,-2,12,10,22
59983914113,1,1,2,25,4,-16,5,9
59983928324,-5,11,2,-16,-13,-7,-22,-22
59983928324,-14,-8,-6,25,3,18,17,-10
59983935004,8,3,0,-25,1,-10,-13,-14
59983935004,-8,-6,-3,-12,-5,17,14,18
59983951432,5,1,-3,-2,1,-16,-2,0
59983951432,1,-3,-2,-5,-15,-22,-8,9
59983953019,26,-1,-4,-16,7,35,4,19
59983953019,-50,0,7,31,17,4,-13,-71
59983973982,12,-9,-3,1,-8,-8,12,55
59983973982,-16,-2,-1,11,0,-2,-5,-13
59983975541,-9,-1,1,-5,-3,2,2,12
59983975541,17,1,-2,-16,-8,-11,-12,-3
59983988353,-18,-21,-5,-16,-6,-1,6,-13
59983988353,1,3,0,-2,-7,-7,-8,-20
59983995112,-13,-19,-6,49,13,10,7,58
59983995112,2,5,4,-8,0,-1,-16,-4
59984011398,3,2,3,6,11,-1,14,11
59984011398,-6,-1,-4,-25,-5,-6,-2,0
59984013021,5,1,0,24,-4,6,-12,-32
59984013021,13,-4,-3,4,10,3,5,17
59984033743,0,-3,-4,-36,-32,-26,2,10
59984033743,2,-1,1,40,25,10,-6,31
59984040058,1,5,-1,-19,-6,9,11,-28
59984040058,8,1,-4,16,0,-16,-4,9
59984063837,7,3,-2,-12,-7,-3,11,4
59984063837,-6,0,2,-15,-5,9,-4,-12
59984065429,-2,0,-4,0,-1,-24,-12,-12
59984065429,5,-2,2,4,-2,26,9,9
59984071354,-2,1,2,-17,8,-13,-4,-19
59984071354,-3,-11,-7,-62,-12,11,7,-7
59984073005,-1,0,2,59,13,-16,-14,-14
59984073005,9,5,-1,-7,-15,-9,-1,21
59984093877,-1,-3,-4,8,10,6,-12,15
59984093877,-4,2,-1,-18,-17,4,18,8
59984095486,-16,1,0,-28,-2,0,3,-19
59984095486,5,-1,0,10,0,-2,0,16
59984107509,3,3,-4,-3,1,3,-7,-15
59984107509,-1,-2,-2,10,-5,-4,-7,-8
59984116520,8,-3,0,18,-2,-12,-13,-20
59984116520,-12,-2,-3,-7,10,14,20,1
59984131485,-3,-1,3,42,-2,2,-5,8
59984131485,3,-2,-4,-9,-7,-11,-10,-23
59984132992,10,9,5,-12,-3,-1,20,31
59984132992,6,-4,-13,-19,8,9,-11,3
59984169631,6,4,-1,7,0,4,-2,-12
59984169631,-2,-1,5,34,7,-7,4,-8
59984171130,-5,0,-3,-7,-5,-4,-26,35
59984171130,2,0,3,29,12,1,24,1
59984172122,-31,-5,-5,-46,-33,-1,-23,13
59984172122,11,-2,-4,10,2,1,20,24
59984176608,7,-5,1,-24,6,2,-3,-7
59984176608,-10,-9,3,9,-9,-6,0,14
59984191558,19,11,-2,5,6,-1,4,7
59984191558,-6,-7,1,24,6,2,-15,-36
59984193013,12,-1,-3,-27,-7,1,7,-6
59984193013,-48,-4,0,-20,-8,-7,-3,56
59984214158,7,15,7,0,-8,0,-15,-27
59984214158,-2,-8,-8,-6,10,-3,4,13
59984215554,-11,4,-3,-28,-8,1,-3,-2
59984215554,27,-3,-2,18,-10,-5,-1,-60
59984227757,-29,-6,3,30,13,3,-6,-29
59984227757,7,8,-5,-57,-8,-5,-5,30
59984236530,-6,2,7,25,-6,-3,-9,-35
59984236530,-3,-5,-2,-40,-1,0,-8,-26
59984251577,29,-4,4,-6,1,-1,-2,-5
59984251577,-11,15,-5,38,4,2,10,-7
59984253078,29,8,3,17,-1,-5,-3,-20
59984253078,-34,-11,-7,-35,-5,-4,-8,-70
59984274053,-16,-15,-8,5,9,11,7,23
59984274053,31,19,10,18,5,-4,-10,0
59984275574,13,-9,9,8,-5,-3,2,-24
59984275574,38,2,5,-6,-12,-4,-1,54
59984287635,58,37,11,-13,1,2,14,7
59984287635,-45,-4,-24,-17,-10,-10,-23,-96
59984296530,38,-9,-9,-9,5,3,19,78
59984296530,-47,8,34,25,8,4,-8,-18
59984311401,16,-8,-29,2,-4,0,15,-1
59984311401,8,-1,3,17,-3,-11,-15,-49
59984313030,-6,-31,-34,-49,0,6,3,18
59984313030,31,24,17,52,7,1,-4,-65
59984334132,-23,-6,-2,-25,-4,0,3,16
59984334132,28,-20,-19,19,-9,-9,7,40
59984335487,-92,-25,-3,4,1,-4,-9,-76
59984335487,17,5,-4,-43,-2,0,-1,22
59984347789,-2,7,33,54,12,4,13,-1
59984347789,-8,-31,5,-42,-7,-2,-2,9
59984356636,24,0,-6,-7,-3,7,-14,-13
59984356636,4,-2,16,19,-5,-17,-10,-52
59984371660,-38,-27,-19,6,5,-10,-8,-51
59984371660,-6,11,19,-41,-12,6,7,31
59984373101,-5,18,0,26,11,20,5,-8
59984373101,14,-13,-14,-24,-14,-27,-9,-1
59984393972,32,2,-1,8,9,-5,-9,38
59984393972,-49,-21,-10,19,16,11,0,6
59984395483,-27,-27,-8,-40,-27,-24,-15,-34
59984395483,32,2,-12,-35,7,34,-17,11
59984407652,-19,5,9,18,-4,6,10,44
59984407652,-30,1,-7,14,10,-17,-3,19
59984416500,13,24,19,28,13,8,24,34
59984416500,-6,-9,-15,-8,-8,-11,-1,29
59984431584,4,-2,-11,-40,-17,-5,-11,-25
59984431584,18,7,9,-22,0,0,-5,13
59984432982,-3,10,-5,14,-5,-25,-16,-17
59984432982,-14,0,-13,-9,-5,6,5,12
59984469808,21,0,7,23,-2,-1,4,5
59984469808,-10,4,3,9,4,9,4,-5
59984471286,3,10,11,18,24,8,0,2
59984471286,-72,-7,-7,-22,-10,18,22,11
59984472015,12,-2,-1,19,6,-21,-11,44
59984472015,19,5,1,-19,-15,-6,-1,6
59984476566,-6,1,2,14,0,11,1,15
59984476566,5,0,-6,15,4,-28,-9,12
59984491622,-12,-4,-6,-18,2,20,-4,-24
59984491622,2,2,3,-11,-8,3,5,-16
59984493054,-2,-4,-4,38,10,0,0,-7
59984493054,11,-2,-4,-53,-12,6,5,13
59984514123,-11,2,2,58,5,-7,5,-22
59984514123,5,1,-4,-29,-3,4,0,4
59984515539,-4,0,4,-1,-2,1,-1,-15
59984515539,-1,-1,1,13,-8,-7,-1,0
59984527647,11,-6,-1,-27,-1,-9,-13,-38
59984527647,22,4,5,12,13,15,10,57
59984536602,-19,4,-4,-20,-11,2,-2,-19
59984536602,16,4,-1,29,10,-13,-4,-2
59984551612,-51,-7,0,-33,-11,7,0,-63
59984551612,29,0,-3,18,-12,-19,-9,19
59984553057,-20,-3,5,12,11,-1,2,2
59984553057,2,-1,0,2,10,19,10,-10
59984573976,44,6,-5,-8,-13,0,-5,25
59984573976,-37,-7,2,3,7,1,3,-11
59984575518,24,13,1,-26,-21,-15,0,21
59984575518,-21,-21,-8,-12,8,8,-9,-16
59984587625,-3,-8,-1,45,6,-11,0,3
59984587625,-33,8,3,0,-3,-1,-14,-29
59984596536,32,2,-6,-34,-10,2,1,11
59984596536,-8,-7,-5,9,-8,-2,-1,39
59984611422,-5,-1,-2,-38,3,1,-1,16
59984611422,1,-3,-3,23,-2,3,-1,3
59984612993,-18,-2,-4,4,-1,-8,-5,-24
59984612993,1,2,5,-15,6,1,1,-11
59984633919,-4,-2,0,8,-2,4,0,-6
59984633919,7,-15,-4,-4,-5,-4,-5,-4
59984635512,8,0,1,3,5,-1,-3,11
59984635512,2,2,-5,2,-10,-3,-10,-18
59984647801,-19,-21,0,0,14,0,14,7
59984647801,17,6,2,-21,5,6,3,-12
59984656516,-5,-2,1,6,-6,-4,-7,-31
59984656516,48,13,3,6,2,2,4,17
59984670955,-2,10,-1,-10,-8,-10,-10,-20
59984670955,3,-4,-3,17,10,10,-1,31
59984677774,50,2,-2,-33,-4,2,11,2
59984677774,-61,-1,0,22,-8,-8,-13,-17
59984694132,-12,-12,3,13,15,3,12,17
59984694132,-5,1,-2,17,-5,-5,-14,-39
59984695542,40,5,-5,-9,-5,-7,3,40
59984695542,-67,0,-3,-7,-3,-1,-6,-24
59984707718,16,12,-4,-11,4,7,-3,6
59984707718,-4,-2,0,11,-3,-5,-1,-6
59984716585,-6,-2,-4,-28,-17,1,-4,35
59984716585,26,-9,-1,12,9,1,4,21
59984731008,13,7,2,10,2,-1,-11,-16
59984731008,-7,0,-5,-16,-6,-3,3,5
59984737802,-33,-15,3,29,7,-2,-6,-54
59984737802,33,6,-3,-34,-8,-1,7,41
59984754156,-9,-11,-2,20,-5,-4,-12,-56
59984754156,-11,-14,1,-13,3,4,13,50
59984755541,-31,-1,3,2,-1,-4,-5,-26
59984755541,22,-12,1,1,-11,-6,-23,3
59984776691,13,4,-11,-17,-4,0,4,-12
59984776691,18,8,0,-7,-3,-2,7,-4
59984777975,-32,10,2,23,7,1,0,8
59984777975,-37,-22,7,6,8,0,5,-5
59984790679,-1,11,1,-33,-23,-3,-4,22
59984790679,76,-15,-2,52,6,-8,-12,-30
59984797549,30,7,13,-6,0,3,-1,-23
59984797549,16,16,-3,11,9,2,14,40
59984813882,-7,-11,-18,-17,-5,1,11,29
59984813882,-54,1,4,-31,-8,1,-11,-17
59984815459,-27,-14,-20,15,6,-2,-3,-7
59984815459,5,3,22,8,1,0,-3,-83
59984836631,30,-7,0,-7,-3,-7,-4,-14
59984836631,1,12,-18,1,-8,3,9,29
59984838055,39,11,2,-23,-14,-9,-8,10
59984838055,14,7,-16,-14,10,3,14,39
59984850961,-20,-10,6,-16,0,0,-1,13
59984850961,-50,8,-2,20,1,0,-5,-7
59984857749,57,10,-10,-1,0,3,3,-17
59984857749,-14,-17,-10,-19,-10,-1,1,-13
59984873973,-25,-12,0,20,9,-5,-1,8
59984873973,-2,6,4,-11,-6,2,-8,62
59984875480,-21,7,0,13,9,6,18,31
59984875480,19,17,7,-6,1,-4,-7,17
59984896653,-27,21,2,10,-9,2,8,-5
59984896653,8,-10,3,-11,-11,-8,-17,-49
59984898062,-29,-8,0,-16,7,-1,-1,-19
59984898062,20,-1,-4,27,5,6,2,10
59984910799,-2,10,4,2,-11,-9,-1,0
59984910799,23,2,1,-10,9,16,13,20
59984917592,1,-3,3,1,-11,-8,-6,-2
59984917592,-31,-28,-11,0,9,-8,1,10
59984934086,-44,0,-7,-2,5,23,-12,-17
59984934086,25,3,5,-25,0,8,28,13
59984935604,-11,-9,1,4,0,1,-1,5
59984935604,8,7,0,0,-11,-10,-2,22
59984956576,11,2,3,0,-6,-17,-20,-32
59984956576,22,-2,-2,-1,2,-7,-14,-22
59984958043,-92,-14,-4,-6,-4,0,0,-5
59984958043,18,12,1,9,-2,-7,-10,-17
59984978925,8,-19,-1,-10,1,7,7,7
59984978925,-16,2,-8,2,1,-1,-2,-23
59984980519,20,-3,0,-4,-1,-5,0,15
59984980519,0,0,-7,1,0,2,2,-11
59984994117,-1,-3,1,5,6,7,8,10
59984994117,-11,-4,1,-16,-5,-2,4,-19
59984995545,11,1,0,24,-2,-6,-10,8
59984995545,4,3,0,-4,-2,0,3,-8
59985017841,10,1,2,5,3,0,6,10
59985017841,-9,-2,-2,-14,-9,-12,-12,-16
59985019429,5,-1,-2,-10,-4,0,0,4
59985019429,-8,0,-1,5,-1,9,5,-6
59985030268,4,2,1,-3,-1,-1,0,5
59985030268,-8,4,0,3,1,-8,-3,-6
59985039092,-11,-5,-2,-3,1,2,-1,2
59985039092,1,1,-1,-5,-5,0,3,-8
59985054161,-4,-16,-3,-1,-4,-2,-5,3
59985054161,-14,-3,1,10,5,-6,-6,-10
59985055550,8,0,0,7,2,7,1,0
59985055550,-15,2,1,-5,-4,1,-1,-3
59985076627,12,7,-1,6,-3,-4,-2,1
59985076627,8,-2,-3,0,-4,1,2,-1
59985078008,-9,-7,-6,-6,-2,-4,-1,15
59985078008,-12,-9,2,-11,2,-1,-3,-18
59985090134,-4,0,-4,10,-1,-3,-2,-5
59985090134,-19,-6,-3,2,-4,-2,-3,-4
59985099109,8,-5,-1,-6,5,9,-2,1
59985099109,16,0,-6,3,-11,-11,0,0
59985113828,8,9,2,-10,3,-12,1,6
59985113828,9,-3,-2,18,1,3,-5,15
59985115507,-11,-2,2,-2,1,3,4,-35
59985115507,8,3,-1,2,3,6,3,1
59985136629,5,-2,-3,-8,-2,6,-1,2
59985136629,0,-3,-1,-5,-1,-15,0,5
59985138088,9,6,2,4,-6,-4,-1,7
59985138088,-2,-1,-2,3,3,8,0,-1
59985150150,-4,-2,-1,8,2,-1,0,-7
59985150150,6,7,-2,-10,-4,-8,-1,-7
59985159088,1,-4,0,-2,0,4,-2,0
59985159088,6,-1,3,0,2,-3,-1,2
59985173967,7,4,0,5,3,4,3,11
59985173967,-33,-25,-3,-5,-4,0,0,-2
59985181706,7,11,0,4,-1,-13,-1,0
59985181706,-1,-1,-2,-4,0,4,-7,0
59985196437,-2,-2,-1,-4,0,7,5,6
59985196437,10,7,0,8,0,-3,-2,-9
59985198060,4,5,1,3,-4,-21,-2,1
59985198060,-9,-4,-3,-7,0,4,2,-1
59985210324,-8,0,-3,-9,2,4,-5,-8
59985210324,11,5,2,10,1,9,5,-4
59985219088,-16,-10,-6,-17,-5,0,-4,0
59985219088,13,12,2,7,-4,-2,0,-3
59985233506,0,-5,-3,-7,-2,-9,-3,1
59985233506,-4,0,-2,3,-2,-1,-2,-3
59985240245,9,-3,-1,-7,2,-1,-1,5
59985240245,-9,-3,1,-1,-1,-7,-3,-8
59985256561,0,-2,0,-4,0,7,4,0
59985256561,-12,-4,1,-9,-4,5,-4,34
59985258034,2,9,0,0,-1,-2,7,-35
59985258034,-9,-2,-7,-2,-2,-3,1,0
59985270288,1,-12,-9,-11,-8,-7,-6,3
59985270288,28,15,12,7,3,-5,-1,4
59985279102,18,6,-9,3,0,8,-3,16
59985279102,-38,-8,13,4,4,-2,5,-8
59985301449,9,-3,-2,14,-1,-5,-1,1
59985301449,9,-7,-3,-1,1,3,-1,-15
59985303049,14,8,5,2,0,-3,-4,7
59985303049,19,1,-4,-7,-2,-2,0,10
59985316474,1,14,0,-4,-2,2,-1,6
59985316474,-8,1,0,-3,-2,-2,-3,-15
59985317983,-10,-6,0,0,1,1,2,7
59985317983,7,1,-5,-9,-4,-3,-2,4
59985339157,-3,2,-1,14,0,1,-3,-11
59985339157,-11,-5,-5,-15,-5,0,2,-1
59985340586,-20,-6,-2,4,0,0,-5,-5
59985340586,8,1,-3,-6,-5,-6,-1,2
59985353161,2,-4,-1,6,1,0,-1,-2
59985353161,-1,-1,-2,-18,-1,1,1,-13
59985360175,9,0,-2,-2,-1,-6,-4,7
59985360175,0,-9,0,3,1,6,-1,36
59985376639,-18,-9,0,-6,-5,-6,-1,-38
59985376639,1,-2,-3,8,4,1,4,11
59985378050,-3,1,4,-9,0,0,0,-3
59985378050,0,-1,-5,16,-3,-2,-2,1
59985406526,-1,-4,0,-3,-2,-4,-3,-3
59985406526,-7,-17,-4,-1,1,-1,-4,-10
59985408030,3,-6,-2,6,-1,3,0,0
59985408030,6,10,2,11,6,-1,-3,-17
59985414144,-6,-11,-4,-33,-11,-4,1,11
59985414144,-4,5,1,-13,2,0,-1,-11
59985415532,1,-6,-7,21,-11,-2,-2,7
59985415532,0,1,-3,-3,-2,-13,0,-12
59985436638,3,6,1,30,5,11,-1,2
59985436638,-8,1,-1,10,4,1,1,4
59985438013,1,-4,1,-35,-2,2,2,2
59985438013,-3,-1,5,17,3,-1,-2,-9
59985450098,10,4,-7,-22,-7,-7,-2,3
59985450098,0,2,-8,-15,-1,-2,1,-4
59985459123,-8,-11,-1,-27,-9,0,-3,2
59985459123,0,1,-2,7,-2,-8,0,-7
59985473888,11,9,8,4,10,3,-4,-3
59985473888,-2,0,0,-17,-5,2,0,-35
59985475499,-10,-3,-6,18,3,0,-1,-5
59985475499,-1,-18,0,3,-4,4,-2,11
59985503986,2,7,-5,-20,-5,-6,1,3
59985503986,1,0,-11,-25,-11,-6,-3,10
59985505522,0,0,3,-2,4,2,-2,-5
59985505522,-1,2,-1,15,2,2,-3,-13
59985510099,-5,1,3,15,3,-3,-2,5
59985510099,-5,-20,0,-5,-3,0,-2,4
59985519048,-7,1,1,6,-1,-1,-1,-5
59985519048,2,0,-7,-30,-6,-1,-2,4
59985533925,-1,0,3,-5,-1,-3,1,2
59985533925,2,7,2,15,5,-1,-2,3
59985535516,10,3,1,11,-1,-1,0,-6
59985535516,-9,-11,-7,-28,-10,-1,-3,-10
59985556662,-1,-5,1,19,0,-3,2,5
59985556662,7,0,0,9,1,0,0,1
59985558055,-2,-2,-3,6,2,-3,-1,-5
59985558055,2,4,2,1,2,2,-1,7
59985570304,-1,-2,-1,-8,-2,0,1,-1
59985570304,-27,-10,-3,15,-1,-4,-4,-3
59985579058,5,4,2,-4,0,5,-1,-1
59985579058,-1,-4,-3,-9,-1,-1,-2,-5
59985593835,-4,-1,2,10,1,-3,-2,-1
59985593835,3,2,-4,0,-2,-4,0,3
59985595523,-6,-6,-2,7,-2,-2,-3,-2
59985595523,0,0,2,12,0,0,0,-3
59985616454,-16,-5,-6,-5,-4,-3,-3,-6
59985616454,4,4,3,0,-1,0,-2,-5
59985618057,-3,3,0,-8,1,-2,-1,2
59985618057,1,3,-4,-19,-4,0,-2,1
59985630073,1,-1,1,5,2,0,1,-2
59985630073,1,2,1,11,0,1,-2,1
59985639041,6,-3,-2,-16,-2,-2,-1,0
59985639041,1,15,5,15,1,1,3,-3
59985653201,0,-1,0,-3,-2,-2,-2,-1
59985653201,-16,-23,-6,-3,0,-1,-2,0
59985659955,19,3,2,8,0,-1,0,6
59985659955,-12,-8,-1,-4,0,0,1,-5
59985676444,-3,-2,-3,-16,-1,-1,0,-4
59985676444,7,15,5,25,2,0,0,2
59985678009,-17,-3,-2,-4,1,-1,-1,-9
59985678009,-6,-16,-7,-22,-6,-2,1,6
59985706426,2,-2,-1,5,0,-1,-2,3
59985706426,-3,3,1,7,0,-1,-2,-10
59985707994,-5,0,-2,6,1,-1,-3,-6
59985707994,7,5,-1,8,1,-1,-2,9
59985713215,-6,-3,-6,-28,-7,-2,-1,0
59985713215,11,3,1,-9,1,-2,-1,4
59985720068,9,-5,0,6,-5,-1,2,4
59985720068,1,-2,0,8,3,1,-2,-7
59985736432,4,0,-1,9,0,0,1,2
59985736432,10,2,-1,-15,-1,-2,-1,1
59985738013,-11,-6,-2,-4,-4,-1,-4,0
59985738013,4,2,0,-2,-1,1,-2,-1
59985750101,8,0,0,-5,1,-1,-2,-3
59985750101,1,-4,-3,12,1,-2,-2,1
59985758999,-6,-3,-1,-13,-5,-1,-1,0
59985758999,-3,-2,-12,-29,-10,-5,-4,-4
59985773251,-5,-1,-1,7,-1,0,-1,-2
59985773251,-5,-6,1,4,1,0,0,-1
59985780117,8,2,-2,10,3,0,-1,8
59985780117,-13,-13,-3,-31,-2,-2,-2,-5
59985796475,-14,-4,0,0,-3,-2,-2,-6
59985796475,8,8,-3,5,-3,-2,0,2
59985798060,-13,-5,-1,-19,-1,1,2,-5
59985798060,7,5,0,14,5,-1,0,6
59985810095,0,2,-3,-30,-11,-3,-2,2
59985810095,4,-6,2,16,1,1,1,3
59985819074,0,-2,0,9,1,-3,-2,-3
59985819074,-2,1,2,-1,0,0,-2,-8
59985833215,-3,3,-4,10,2,1,-1,-2
59985833215,-2,-6,3,-5,2,1,-1,-1
59985839978,2,-2,2,-1,0,-1,-2,4
59985839978,-1,-4,-4,4,-2,-4,-5,-5
59985856389,-7,-9,-6,12,3,3,4,3
59985856389,-3,3,-1,-28,-9,-3,-4,0
59985858039,-3,4,-2,25,4,0,-1,-3
59985858039,3,-5,4,-20,-3,0,-1,2
59985878926,-3,0,4,10,2,-1,-3,-3
59985878926,22,8,-6,5,1,1,0,19
59985880482,-7,-1,-1,-1,-3,-1,1,-1
59985880482,5,2,0,8,-2,-1,-1,-2
59985908962,7,2,2,6,1,-1,0,-1
59985908962,-8,-6,-2,-5,-2,-1,-1,-1
59985910495,15,2,-6,-9,-1,0,1,5
59985910495,7,19,6,13,1,2,-1,-6
59985916618,10,-2,-2,-7,-3,-2,-1,4
59985916618,-10,-2,-1,3,0,-2,-1,-8
59985918034,2,3,-3,7,1,0,1,-3
59985918034,4,-1,-4,-6,-10,-3,-1,-4
59985939117,-9,-4,1,-1,0,0,-2,-13
59985939117,3,5,-1,-7,-2,1,-1,1
59985940550,-4,0,-2,-3,-1,-1,-3,9
59985940550,-1,-3,3,8,4,2,0,-3
59985952699,-5,-3,-2,0,-1,-2,-3,-11
59985952699,-7,1,-1,0,-2,0,-1,-1
59985961638,4,-13,0,-12,-4,-4,-3,-36
59985961638,-6,-1,0,8,0,0,-1,0
59985976147,5,4,0,-1,-1,0,-1,6
59985976147,5,-2,2,-3,-3,-1,0,-2
59985982482,-1,-1,-2,-5,-1,0,-2,-6
59985982482,-32,-32,-3,2,0,-1,3,8
59986006448,5,-2,-2,3,-2,-3,-1,-4
59986006448,-17,-3,-4,-2,0,-3,-2,-10
59986007971,-18,-7,-4,-3,-2,-2,-2,5
59986007971,11,3,-1,3,0,-1,-2,-5
59986012531,3,2,0,-3,-1,-2,-1,9
59986012531,-10,-6,-1,1,0,-3,0,-5
59986021492,2,4,-1,-8,-4,0,0,3
59986021492,-3,3,-1,2,2,0,-1,1
59986036377,3,12,-1,-1,0,-1,-4,-1
59986036377,4,1,-2,-5,-3,1,-2,2
59986037955,-2,-5,-4,-2,-2,-2,-1,0
59986037955,8,14,3,3,1,-1,0,0
59986059107,-17,-1,-1,-1,-2,-1,-4,-5
59986059107,-2,0,1,-1,-2,0,-1,-5
59986060617,5,2,-2,-4,-3,-2,-3,1
59986060617,-2,-2,-1,2,-2,-1,-2,-4
59986072803,0,-7,-1,-4,-1,-1,1,0
59986072803,-2,3,-2,0,0,0,0,1
59986081583,-4,-1,0,-1,-2,-3,-1,-1
59986081583,-14,0,-3,1,-2,-1,0,-22
59986096637,-2,-15,-4,-2,-1,-1,-2,-1
59986096637,6,2,2,-2,0,-1,0,-1
59986098038,-5,-4,0,-1,0,-1,1,1
59986098038,2,-2,-3,-4,-2,-2,-1,6
59986119128,2,1,-1,-2,-3,-2,-1,4
59986119128,-15,-8,-3,-2,-3,-1,-2,-5
59986120535,3,1,-3,-2,-2,-2,-3,5
59986120535,4,6,0,0,-1,2,0,6
59986132652,14,-3,-1,-1,-1,0,0,3
59986132652,-3,0,-2,-2,-2,-2,-1,1
59986141666,-2,4,1,-2,1,0,-1,0
59986141666,1,-3,-2,0,-1,-1,0,2
59986156402,-5,-2,2,-1,-1,-2,0,-2
59986156402,3,0,0,-2,0,-1,0,-1
59986157994,-4,-21,-3,-1,-2,-1,-2,0
59986157994,-2,-5,-5,-3,0,-1,-3,-2
59986178860,1,4,-2,-2,1,-3,-1,16
59986178860,-2,3,-1,1,1,1,0,-12
59986180476,-4,2,-2,-3,-2,-1,0,0
59986180476,6,1,-1,1,-1,-2,-2,11
59986192517,-6,-8,-1,-1,-1,0,0,-1
59986192517,-12,-7,-3,-3,-4,-3,-3,-2
59986209040,3,1,-1,-1,1,-1,-1,-3
59986209040,-1,-2,0,1,0,0,-1,-10
59986216397,7,0,-2,1,-2,-1,-2,7
59986216397,3,4,0,0,-3,1,0,-1
59986218017,-2,-1,-1,-1,-1,-1,-3,-2
59986218017,8,-12,0,1,1,-1,0,9
59986238869,-4,-2,-3,-2,-1,-1,-3,3
59986238869,1,0,1,-1,0,-4,-3,-13
59986240494,13,5,0,1,-1,0,0,19
59986240494,4,4,0,-2,-1,0,-2,2
59986253204,6,5,0,-1,-1,-1,0,-7
59986253204,8,1,0,-1,-1,-1,-1,5
59986259988,-10,-1,-3,-2,-1,-3,-2,-12
59986259988,0,1,-1,-2,-2,-1,-2,7
59986276372,0,-4,-3,0,-1,-1,0,-7
59986276372,3,2,-1,-2,-1,1,0,2
59986277971,-3,2,0,0,-2,-3,1,-4
59986277971,-4,5,-3,-1,-2,-2,0,-6
59986298912,-7,-5,2,2,2,-1,0,-5
59986298912,4,11,-3,-2,-1,-1,0,2
59986300498,-1,3,-1,0,0,0,0,0
59986300498,-5,0,1,-1,-2,-1,-1,-4
59986312495,-5,-4,-1,-1,-1,1,0,-5
59986312495,-9,-7,-2,0,1,0,-3,0
59986321529,3,0,-2,-2,0,0,-1,0
59986321529,-4,-1,-1,0,2,-2,0,-4
59986336376,6,2,-2,-3,-3,-1,-2,18
59986336376,-10,-5,-1,-1,0,-2,-2,-10
59986337978,-3,-1,-1,-2,-1,-2,-1,-1
59986337978,8,2,2,1,-1,-1,-1,1
59986358871,-1,1,0,-4,-2,-2,-2,-5
59986358871,-4,-7,-1,-2,0,-2,1,9
59986360457,-2,-1,-1,-1,-1,1,0,1
59986360457,-2,19,2,-1,0,0,0,-1
59986372516,-7,-7,0,0,0,-2,1,-7
59986372516,2,2,1,0,-1,-1,-3,-4
59986381528,-3,2,0,1,0,-3,-1,-4
59986381528,-10,-13,-3,-3,-2,0,-3,9
59986396391,3,6,2,2,0,-2,-2,-8
59986396391,-2,-4,-2,-2,0,-1,-2,4
59986397989,2,-5,0,-2,-2,0,0,9
59986397989,-17,-1,-2,-2,-1,-2,-1,-29
59986418823,-7,-12,-2,-1,0,-1,2,0
59986418823,-1,-8,-4,-2,-2,-2,-2,0
59986420420,-3,4,1,0,0,-1,-1,2
59986420420,7,1,-3,-1,-1,-3,0,-1
59986432540,-1,16,0,-2,-3,-2,-2,-4
59986432540,1,0,0,-1,-1,-1,0,-2
59986441574,-5,-1,-2,0,-1,0,-2,-2
59986441574,-2,-4,0,1,0,0,-1,-1
59986456401,1,-2,-1,-2,0,0,0,6
59986456401,2,-3,-2,-3,-2,0,-2,4
59986457988,9,-3,-2,0,-1,-4,-1,1
59986457988,-1,-5,-3,-1,-2,-1,1,0
59986478846,-4,-2,0,-2,-1,-1,-2,-5
59986478846,-5,-6,-3,-1,-2,0,-2,-2
59986480448,3,-1,0,0,-1,0,-1,-2
59986480448,-12,-4,-3,-2,-2,0,-2,3
59986492596,-8,-24,-4,0,-2,-1,-2,-11
59986492596,10,10,-2,-1,-2,-3,1,2
59986501474,-7,4,0,-2,-1,-2,-1,-5
59986501474,5,-7,0,-3,-2,-3,0,7
59986516404,-8,4,0,0,-1,0,-2,-5
59986516404,-1,-6,-3,-1,-1,-2,0,3
59986517979,3,3,-2,-3,-2,0,-1,-2
59986517979,1,1,2,1,0,-2,-1,0
59986539391,8,6,-1,-2,-2,-1,-1,12
59986539391,-2,-5,-1,2,-2,-2,-1,-7
59986540942,-9,-2,-2,0,-1,-1,-1,-3
59986540942,-1,-2,0,-3,-3,-1,-3,-3
59986552516,4,1,-2,-1,-1,-3,1,0
59986552516,-2,4,1,0,0,0,-1,0
59986561513,0,-6,-3,-2,-1,-3,-1,-5
59986561513,3,-4,-2,1,0,-1,1,5
59986576374,-1,-4,0,-1,0,1,-1,-5
59986576374,-5,0,0,-1,-1,-1,-2,-1
59986577940,-3,-5,-2,-3,-2,0,-1,-5
59986577940,2,0,-1,-1,-1,-1,-1,-2
59986598884,1,10,0,-1,-1,-2,2,-1
59986598884,-1,-7,-2,-2,-1,0,-2,0
59986600498,-1,4,2,0,-1,-2,-1,1
59986600498,0,-7,-5,-1,-2,-1,-2,-1
59986612513,1,1,-2,-1,0,-1,-1,-3
59986612513,-8,-4,0,-1,0,-3,-2,6
59986621524,0,0,1,1,0,1,1,-5
59986621524,-6,1,2,-1,0,2,1,0
59986636376,-8,0,-3,-2,-2,-3,-2,4
59986636376,12,3,0,-1,-1,-1,1,2
59986637984,1,2,-2,0,0,0,-1,-1
59986637984,9,4,0,0,-1,-1,1,-3
59986658875,2,8,2,2,0,0,0,4
59986658875,-7,-1,1,-2,-1,-2,0,-3
59986660509,-5,-7,-4,-1,-2,-1,-1,-2
59986660509,1,3,-2,-2,-2,-2,-3,0
59986672524,-2,-8,-2,-1,-3,-2,-2,-6
59986672524,2,-5,-3,-3,-2,-1,0,-1
59986681538,2,2,4,0,0,0,0,-2
59986681538,-3,-4,-2,-1,-1,-1,-2,0
59986696389,1,2,-2,-2,2,-2,-2,-3
59986696389,-6,-16,-2,0,-3,-1,-1,-4
59986697980,-3,-1,-1,-2,-1,-3,-2,2
59986697980,-6,-21,-3,-2,-2,-2,-1,-2
59986718863,-3,0,0,0,-2,1,0,-5
59986718863,15,8,-5,-2,0,1,-1,28
59986720460,-6,-1,-2,-1,-2,-1,-1,-13
59986720460,4,-6,-2,-2,-3,-2,0,6
59986732525,-12,-4,0,1,0,0,0,-19
59986732525,-6,-1,-1,0,-1,0,-2,-3
59986741550,0,-2,-4,-1,-2,0,0,4
59986741550,4,4,-1,0,-2,-1,0,1
59986756390,1,-6,-2,0,0,0,-2,4
59986756390,-4,1,1,-1,0,-1,-2,-19
59986757964,-5,-3,-1,-1,1,-2,0,9
59986757964,0,2,1,-1,-1,0,-1,-6
59986778927,-2,1,-1,0,-2,0,1,4
59986778927,1,10,1,-1,-1,0,1,-1
59986780482,-11,-10,-2,-2,-1,0,0,-21
59986780482,-2,3,-2,0,0,-2,-2,2
59986801376,-1,-7,-1,-3,0,-1,-1,0
59986801376,-2,1,-2,-1,-1,-2,-1,-1
59986803003,5,0,-1,-3,-1,0,-2,4
59986803003,-6,1,-2,-3,-1,-1,-2,-3
59986816377,-7,-7,-3,0,-1,-3,-1,1
59986816377,-2,0,-2,-1,-3,-2,-1,-10
59986817974,-2,-2,-1,-2,-2,1,0,3
59986817974,-3,2,1,0,0,-2,-3,-8
59986838858,1,-3,-1,-1,0,-2,-1,8
59986838858,-6,14,0,-3,-2,-2,-1,-9
59986840492,-2,-1,-1,0,-1,0,-2,2
59986840492,-9,-2,-4,-3,-1,-1,-1,-3
59986861373,-1,2,1,-4,-2,-2,-1,-4
59986861373,-2,-1,0,0,-2,-3,0,0
59986863006,1,8,0,0,-2,-2,-3,-5
59986863006,-3,-10,-1,-1,-3,0,-1,-1
59986876443,-4,-3,-4,-1,-2,-2,-3,-10
59986876443,3,-7,-1,-1,-1,-1,-2,1
59986877985,6,2,0,-1,0,-1,0,5
59986877985,6,9,1,0,0,-1,-1,0
59986898886,3,-3,-1,-1,-2,0,-2,2
59986898886,-1,-6,0,0,-1,1,-2,6
59986900469,-5,-15,-4,-1,-2,-3,0,-6
59986900469,-1,4,0,0,1,-1,-1,-2
59986920473,3,-1,-2,-3,0,-1,-1,5
59986920473,6,-1,-1,-1,1,-1,-1,-2
59986929011,0,1,-1,1,-1,-3,0,7
59986929011,-11,-1,-3,-2,-2,-3,-1,-7
59986935477,7,-6,0,0,-3,-2,-1,0
59986935477,-15,-4,-3,-1,-1,-1,0,-9
59986944027,2,-9,-3,-2,-1,-1,0,16
59986944027,-4,-7,1,-1,0,1,1,-14
59986966374,4,2,-3,1,-1,-2,-2,3
59986966374,2,-1,-3,-1,-1,0,-1,5
59986967974,0,3,0,-1,-1,-2,-1,-2
59986967974,1,1,1,-2,-1,-2,-2,2
59986981345,-6,-1,0,-2,0,0,-2,-3
59986981345,-1,-3,1,0,-1,0,0,-4
59986982996,-1,5,-2,-1,-2,1,-1,-4
59986982996,1,-2,-2,1,-2,-1,-2,8
59986995682,3,4,3,-2,-3,0,1,-4
59986995682,0,-2,-1,1,-2,-2,0,3
59987002500,-2,-1,-3,-3,-2,-1,-2,-4
59987002500,3,6,0,-2,-1,-1,1,5
59987018851,-2,-1,0,-2,1,-1,-1,-1
59987018851,-3,-3,0,0,-1,0,1,-2
59987020476,0,4,1,1,0,-2,0,4
59987020476,-7,-6,-1,-1,-1,0,1,-4
59987040695,6,14,-2,-1,-2,-1,-1,-1
59987040695,6,-8,-3,-4,-2,0,-2,3
59987041495,13,0,-1,-1,-1,-1,0,4
59987041495,8,0,-1,0,0,-2,0,12
59987054990,-13,-6,-3,0,1,1,-1,-16
59987054990,3,7,0,0,2,-1,-3,0
59987063199,-2,-8,-1,-1,-1,0,-2,-2
59987063199,8,6,-1,-3,0,-1,-2,0
59987078157,2,-5,-1,1,0,-1,0,2
59987078157,-10,-6,0,-2,0,-1,-1,-3
59987078952,-4,2,0,0,-1,0,2,-7
59987078952,0,-15,-2,-2,-2,-1,-1,-3
59987101361,-5,-1,-3,0,-2,-1,-2,-1
59987101361,-2,-2,0,-1,0,1,0,-1
59987102134,-6,3,1,-1,-1,0,-2,0
59987102134,-5,1,-3,0,-2,1,-3,-4
59987115040,7,6,0,0,-1,-2,1,5
59987115040,-5,-7,-2,-1,0,-2,-1,0
59987123197,4,-2,0,-1,-1,-2,-1,-4
59987123197,-5,3,1,0,-2,-1,1,-3
59987138198,-3,-4,0,-2,-2,-2,-1,0
59987138198,2,6,-1,-1,-2,0,0,-1
59987138951,-2,-2,-2,-2,-1,-2,-2,-3
59987138951,-5,-4,-2,-3,-1,-1,0,-2
59987160686,-1,0,-2,-2,-1,-1,0,1
59987160686,-1,0,-1,-1,-2,-2,-1,-3
59987161470,-4,-3,0,-2,-1,0,-1,-3
59987161470,0,2,1,-1,-1,-2,-2,-1
59987175036,-6,-5,-2,-2,-1,-1,-1,-1
59987175036,2,0,-2,0,-1,-3,-1,-3
59987183217,-3,0,-1,-1,-1,-1,-1,-2
59987183217,2,0,-3,-2,-2,-1,-1,-1
59987198167,-1,1,-1,0,-1,1,0,1
59987198167,-2,-2,-1,-2,-3,0,-2,-2
59987198989,4,7,-1,-1,0,1,-1,1
59987198989,-5,2,-1,-2,0,-1,1,-6
59987220682,0,-1,-3,-2,1,-1,0,0
59987220682,-1,-3,-2,-1,-1,-3,0,3
59987221498,-6,-1,-3,-2,-1,-1,0,-2
59987221498,8,-1,-2,0,0,0,-3,1
59987243908,-11,7,0,0,1,0,-3,-18
59987243908,1,-2,-1,-1,-1,-2,-2,2
59987244691,1,2,-1,0,-2,-4,0,0
59987244691,-2,-1,-1,-1,0,-1,-2,-5
59987258181,-1,-6,0,-2,-1,-2,-1,6
59987258181,1,-1,-1,-3,-2,1,-1,1
59987258949,-4,-4,0,-2,-1,-1,-1,-4
59987258949,-1,-5,-2,-1,-2,-4,1,4
59987280656,9,5,1,1,0,-2,1,2
59987280656,-4,-1,-1,-1,-2,-2,-1,-2
59987281564,0,-5,-1,-3,-1,-2,-1,0
59987281564,1,2,-1,0,-1,0,0,0
59987294964,-1,-7,-1,-3,-2,-2,-2,-1
59987294964,-1,1,-1,1,0,-1,-1,-2
59987303199,-5,-1,-1,-2,2,0,-3,0
59987303199,-3,-2,0,0,-1,-2,-2,-2
59987318215,5,-1,-3,-1,-3,-3,-2,4
59987318215,-2,-1,-2,2,-1,-1,-1,-2
59987318989,-8,-5,-2,-2,-1,-2,-4,-3
59987318989,-4,-13,1,0,-2,0,-1,-3
59987348904,2,4,0,0,-2,0,-3,1
59987348904,9,8,0,0,0,0,-2,-1
59987349677,-9,-8,-4,1,-1,0,1,-2
59987349677,0,3,-3,-2,-1,-2,0,-1
59987355051,-4,-6,0,-1,-1,0,-1,-2
59987355051,-10,-4,-4,-2,-2,-1,-1,-2
59987363134,-2,2,0,1,-3,-1,-1,-1
59987363134,-2,1,-2,-2,-1,-1,-1,1
59987378177,-3,-2,-1,0,-2,0,-2,-2
59987378177,-7,-3,-1,-1,-1,-2,-2,-3
59987378995,14,10,0,0,-1,0,0,0
59987378995,-4,-7,-2,-1,0,0,-2,0
59987400684,-17,-2,-3,-1,-1,-1,-1,-11
59987400684,-6,3,2,0,-1,-2,-3,-6
59987401443,-12,1,-3,-3,-3,-3,-3,-4
59987401443,4,5,-1,-1,0,-2,-1,-2
59987415031,-2,-4,-1,1,0,0,-1,1
59987415031,-4,-2,-3,-3,-2,0,-3,1
59987423223,-4,2,0,0,1,-1,0,-6
59987423223,-22,-18,-2,-3,0,0,-1,-2
59987446376,-4,-3,2,1,0,0,0,6
59987446376,1,-7,-3,-3,-1,0,-1,-5
59987447165,7,-3,-1,-1,-1,-2,-2,-2
59987447165,1,1,-3,0,0,0,-2,-3
59987460661,1,-4,-3,-2,0,-1,-2,1
59987460661,1,4,-1,-1,0,-2,1,0
59987461426,-8,-26,-1,-3,-2,0,0,5
59987461426,7,8,2,-1,-3,0,-1,-4
59987475002,1,-1,-2,-2,-2,-2,-2,2
59987475002,3,1,0,-1,0,0,0,0
59987483179,2,4,-2,0,-2,0,-2,1
59987483179,2,-4,0,0,0,-3,1,0
59987498212,7,0,0,-3,-2,1,-2,-2
59987498212,-2,-2,0,1,0,0,-1,1
59987499022,2,-1,1,-2,-2,-1,-1,1
59987499022,-3,8,-2,0,1,0,0,-20
59987520708,-12,-1,-4,-2,-1,-3,-2,-11
59987520708,0,-7,-4,-1,-2,-1,-1,2
59987521496,10,8,-3,-2,-1,-2,-1,-2
59987521496,1,9,1,1,-1,-1,-3,4
59987535045,6,-1,1,-2,-1,0,1,12
59987535045,-5,-19,-1,-2,-3,-1,1,-10
59987550690,-3,-2,-3,0,-1,-1,0,-1
59987550690,2,3,-2,-3,-2,-1,0,4
59987558160,5,3,-1,-2,-1,-2,0,-1
59987558160,5,2,-1,0,0,-1,-2,5
59987558924,-2,2,1,-1,0,-1,0,-2
59987558924,2,-1,0,-2,-2,-2,-2,1
59987580634,-2,-2,-3,-2,-2,-1,0,-3
59987580634,1,5,0,-2,-1,-1,-2,0
59987581439,-4,-3,-3,1,-1,-1,-1,-4
59987581439,-2,-3,-3,-3,-1,-1,-2,2
59987594984,1,-9,0,-3,-2,-1,-1,-1
59987594984,8,7,2,1,0,-1,0,1
59987603190,-2,-2,0,0,-1,-2,-2,-2
59987603190,1,2,-2,-2,0,-2,-1,1
59987618151,0,-3,-2,0,-1,0,-2,-2
59987618151,-7,-6,-2,-2,-3,-3,-2,5
59987618973,5,4,0,-2,-1,1,-1,-9
59987618973,-10,-5,-1,0,-2,0,0,-17
59987648873,-1,5,1,-3,-1,-2,1,2
59987648873,1,-1,-1,-1,1,-1,0,1
59987649654,-6,3,-1,-1,0,0,-2,-7
59987649654,1,-6,-2,0,-1,-3,0,7
59987655003,8,10,-4,0,-1,0,-2,-3
59987655003,-3,7,0,1,1,-1,-1,-4
59987663237,-10,-12,-4,-1,-3,-3,-2,3
59987663237,6,1,1,-4,-1,1,0,2
59987678160,-5,-5,0,2,-1,0,0,-2
59987678160,6,3,-2,0,-1,-1,0,1
59987678990,-2,-3,-1,0,0,-2,-1,1
59987678990,0,-1,-1,0,0,-2,-1,2
59987700642,-3,-4,-1,-1,0,1,-2,-2
59987700642,-2,-4,-3,-2,-2,-1,0,-2
59987701432,2,1,0,-2,0,0,1,2
59987701432,-7,-2,-1,0,-2,-3,0,0
59987723820,4,-3,-1,-2,0,-2,-1,5
59987723820,-1,7,-1,-1,-2,0,-1,-10
59987724646,-5,-11,-1,-1,-1,-1,-2,1
59987724646,-2,0,-3,-1,-2,0,-1,3
59987738177,4,1,0,-2,0,-1,-1,0
59987738177,-2,2,-1,-1,-2,-1,-2,-3
59987738970,3,1,0,0,-2,-1,0,0
59987738970,0,-2,0,-2,0,0,-2,-2
59987760685,-11,-5,-5,0,-1,-1,0,-6
59987760685,-2,-5,-3,-2,-1,-1,-2,-1
59987761546,7,1,-2,-3,-2,-3,-2,6
59987761546,-1,-6,-1,-2,-2,-1,2,-2
59987783870,-2,1,0,-2,0,-2,-1,-2
59987783870,-2,-4,-1,1,-2,-1,-2,2
59987784664,0,12,-2,1,0,-1,1,-7
59987784664,3,3,-2,1,0,0,0,1
59987798157,-3,2,2,-1,1,-3,0,-1
59987798157,-1,-4,-3,-1,0,-1,-1,1
59987798932,2,-1,-1,-2,-2,0,-1,3
59987798932,1,1,-1,0,-1,0,-1,-2
59987820632,-5,-2,0,-1,0,-2,-2,-5
59987820632,-1,-2,1,-1,-1,-2,0,0
59987821407,0,0,-1,-1,-1,-1,-1,-3
59987821407,2,4,-2,-1,0,0,-2,-2
59987851379,-10,-23,-4,-1,-2,-1,1,2
59987851379,-3,2,0,0,0,0,0,-1
59987852171,0,-2,1,-1,-1,-1,-1,3
59987852171,3,3,0,-2,-2,0,-1,-2
59987858232,11,12,1,1,0,0,1,2
59987858232,-2,-2,-3,-4,-1,0,-1,0
59987858964,-5,-7,0,-3,-1,0,-1,-1
59987858964,3,0,-1,0,-1,-2,-1,-1
59987880686,0,-1,-3,0,-1,-1,-1,-1
59987880686,-5,-4,-2,-1,-1,-1,1,-2
59987881494,14,14,1,2,1,-1,-1,6
59987881494,-26,-8,-2,-2,-2,-1,-1,-9
59987903867,12,-4,-3,-3,-2,-2,-1,0
59987903867,2,0,2,0,-1,1,0,3
59987904703,-3,-2,-4,-2,-1,0,0,0
59987904703,2,-5,-2,-2,-2,-3,-1,2
59987918107,-7,-3,0,-1,-2,0,-3,-2
59987918107,2,16,-2,0,-1,-1,-3,-5
59987918998,-4,-4,0,-1,-3,-1,-1,-1
59987918998,6,1,0,-1,-2,0,-3,2
59987948838,0,-2,0,0,-1,-2,-2,-4
59987948838,8,8,3,0,0,-2,0,1
59987951870,-16,-11,-3,-1,-1,0,-1,-4
59987951870,-4,-5,1,-1,1,0,1,-1
59987963803,-1,7,-1,-2,-2,-1,1,3
59987963803,-3,-9,-3,-1,-3,-2,-3,-1
59987964647,-3,-4,-1,1,-2,-1,-1,0
59987964647,2,2,-2,-4,-1,0,-1,1
59987978193,-6,-4,2,0,-3,-1,-2,-5
59987978193,1,0,0,-2,0,-2,1,1
59987979007,0,-2,-3,-1,0,-1,-1,-2
59987979007,0,-1,-2,-1,1,-1,-1,2
59988000632,-6,-3,-2,-3,0,0,1,5
59988000632,0,-4,0,-2,-2,0,-2,-5
59988001460,0,1,0,-1,-3,-2,-2,-1
59988001460,4,4,-4,-3,-1,-3,-2,-2
59988023894,-1,3,1,1,-1,0,0,1
59988023894,-5,-11,-3,-3,0,0,-1,-1
59988024685,11,7,1,3,1,-1,0,2
59988024685,0,1,2,-4,-3,0,-1,-1
59988038192,0,7,-2,1,-1,-1,-3,-4
59988038192,1,-5,-2,-2,0,-2,-1,2
59988038981,1,2,0,-1,1,-1,-2,-4
59988038981,-2,-6,-1,3,-1,-1,0,-1
59988060653,-1,0,-1,3,-1,0,0,-2
59988060653,-5,-2,-2,-12,0,2,-2,0
59988061439,-4,-6,-3,15,-2,-2,0,-2
59988061439,0,1,-2,6,-1,-3,-2,0
59988083872,-1,-6,0,4,0,0,-1,-4
59988083872,-3,-2,-2,-6,-2,-2,0,-1
59988084657,-3,-5,-1,-1,1,0,0,-2
59988084657,-2,-4,-1,7,2,-1,-2,1
59988098234,5,-2,-5,-8,-3,-3,-3,-12
59988098234,-3,-4,-1,9,-1,0,-1,-2
59988098984,-1,2,-4,-9,-3,-1,-2,-1
59988098984,-1,-4,2,-3,-2,-1,-1,0
59988120678,-4,-4,-1,8,2,-1,1,2
59988120678,-2,-1,-3,6,0,-1,-1,-1
59988121475,-4,-5,-3,-22,-3,-1,0,-2
59988121475,-1,-1,-1,4,-1,0,-2,-1
59988151348,-2,-2,0,-7,0,0,0,-1
59988151348,0,6,-1,-4,-1,-1,-1,-2
59988152167,-14,-14,-3,7,-1,0,-2,-3
59988152167,-1,1,1,2,0,-1,-1,-1
59988158151,-3,0,0,-18,-3,1,0,1
59988158151,7,2,0,0,-2,-2,1,0
59988158971,0,0,-1,-7,-2,-2,-2,1
59988158971,-1,-1,0,-6,-1,-1,-1,-2
59988180662,-1,-3,-1,5,-1,-1,-1,0
59988180662,-6,-5,-3,1,0,0,-2,-2
59988181438,0,1,0,3,0,-1,-3,-1
59988181438,0,-4,0,17,1,0,-1,-1
59988203890,0,1,0,-13,-1,-3,-1,3
59988203890,-2,-3,0,-4,1,-2,0,-2
59988204707,4,3,3,14,1,0,0,-1
59988204707,-3,2,1,4,0,-2,-2,-1
59988218219,-4,-4,-6,-40,-10,-3,-3,1
59988218219,-2,-1,1,7,1,1,-2,0
59988218981,0,-2,-3,-15,-1,-2,0,-2
59988218981,0,-2,1,-6,0,-2,0,-2
59988240673,-1,-1,-1,8,2,-2,-2,-1
59988240673,0,-3,-3,1,-3,-3,-1,-2
59988241501,-1,0,-2,4,1,-2,-2,0
59988241501,0,-4,-4,-8,-2,-1,0,1
59988263833,0,-3,-1,1,2,-1,-1,-1
59988263833,-5,-3,0,4,-2,-1,-2,-1
59988264637,3,3,3,0,-1,-1,0,0
59988264637,-4,-3,-2,-10,-3,-1,-1,-3
59988278189,-2,1,0,11,1,0,-1,4
59988278189,-1,-2,-1,-2,-1,-1,-1,-7
59988278982,-1,-1,-2,-2,0,-1,-1,-1
59988278982,-2,1,-2,-9,-2,-1,-1,1
59988300628,5,7,0,7,1,0,-1,0
59988300628,-1,-2,-1,4,-1,-1,0,1
59988301401,-3,-2,1,0,-1,-2,-4,-2
59988301401,2,0,-4,-3,-1,-1,-1,-2
