timestamp,emg1,emg2,emg3,emg4,emg5,emg6,emg7,emg8
82579439283,3,-1,0,-1,-2,-1,-1,0
82579439283,0,-3,-2,-1,0,0,-1,-3
82579440063,-1,14,0,-1,0,-1,-1,-5
82579440063,-8,-4,-5,-3,-1,-2,-2,1
82579441844,-14,-8,-4,-2,-2,-1,-1,3
82579441844,1,0,0,0,-1,-1,-1,-1
82579443491,2,-2,-2,-1,-3,-3,-4,0
82579443491,1,4,1,0,0,-1,-2,-4
82579449215,-2,-2,-1,0,-1,-2,-1,-3
82579449215,-3,4,-2,-1,0,0,0,0
82579457075,14,-7,-2,-1,-1,-1,-1,1
82579457075,-3,1,2,0,0,0,-1,0
82579470572,-5,-6,-3,-1,-1,-1,-1,-2
82579470572,-4,-30,-5,-2,-2,-2,0,-1
82579482028,3,4,3,1,1,0,0,-3
82579482028,-6,12,-2,-3,-3,-1,0,1
82579485598,23,-1,3,3,0,0,0,2
82579485598,-3,0,0,-2,-2,-3,-2,0
82579510257,-9,6,0,-2,-1,0,1,0
82579510257,9,3,-2,-1,-1,-2,-1,-3
82579511132,-24,1,-4,-3,3,-1,-2,-5
82579511132,8,7,-2,-2,-2,-1,-4,-1
82579556355,1,-2,-3,1,0,-1,-1,0
82579556355,0,-1,-1,0,0,-2,-1,1
82579557166,0,-7,-1,-2,-2,-1,0,0
82579557166,0,-3,-2,-1,-1,-3,-1,-3
82579557990,-1,-1,-2,-4,0,-2,-1,0
82579557990,1,2,2,4,-1,-1,0,-1
82579561081,-2,5,-4,-5,-4,-2,-1,-1
82579561081,0,1,-2,-1,-3,-3,-2,-1
82579567909,-1,-1,0,-2,0,3,-1,-1
82579567909,0,-7,0,2,-1,6,0,-1
82579576138,0,3,2,0,1,-7,-5,0
82579576138,1,0,0,1,-1,-2,-3,0
82579582909,-1,-1,0,-1,-1,-9,1,-2
82579582909,0,32,-1,-3,-1,4,0,-3
82579598610,0,-6,0,0,-2,-1,0,-1
82579598610,1,0,1,0,0,2,2,0
82579605386,-2,-4,-3,-4,-3,1,0,-2
82579605386,1,-1,-1,-2,-1,-2,-1,1
82579629729,5,-1,0,1,0,-3,-2,-1
82579629729,-7,-2,-1,0,-2,2,-5,-2
82579631377,1,2,1,10,2,-3,-3,1
82579631377,-1,-7,-4,-21,-3,3,2,-2
82579642918,-3,-4,0,2,1,-5,-3,-2
82579642918,0,-3,-1,6,4,-7,1,1
82579651882,-2,-2,1,-2,-7,3,-3,-3
82579651882,4,-8,-3,2,-5,-12,-2,-5
82579666744,-3,-3,-4,-6,2,11,5,0
82579666744,-1,-20,-3,-7,-2,10,3,1
82579668361,4,1,-3,-5,-5,-20,-5,2
82579668361,21,-2,-1,4,2,-1,2,2
82579689268,16,-2,0,1,0,4,-5,2
82579689268,-17,2,1,4,6,4,1,-5
82579690884,-9,2,0,-2,-4,3,-2,-3
82579690884,6,-9,-3,-5,-4,-1,-5,0
82579702952,15,6,-2,-3,-4,-11,3,7
82579702952,-24,-2,-5,-7,3,-10,-13,-9
82579711880,17,-2,2,15,8,3,2,5
82579711880,-19,-3,0,-12,4,-7,8,-9
82579726729,-7,0,2,7,-15,19,-5,-2
82579726729,6,3,1,7,2,-5,5,1
82579728322,1,17,-1,-9,-5,16,3,2
82579728322,19,-1,2,13,11,-14,-9,5
82579749238,-43,-6,-5,-24,-19,15,3,-12
82579749238,-2,-2,-2,-7,-6,-22,-1,-6
82579750826,-4,-1,-1,2,-1,-15,-3,0
82579750826,-3,-3,-1,-2,-1,16,-4,0
82579762881,-1,-6,-2,6,1,-10,-3,-6
82579762881,11,7,-1,-2,-4,4,2,3
82579771883,9,-8,-3,5,8,-3,-8,0
82579771883,-2,4,-3,-9,4,12,9,-4
82579786734,-15,-22,-2,5,-6,-13,-4,-1
82579786734,38,4,-1,-5,6,5,5,-8
82579788356,-45,-13,1,6,-3,-8,-16,-45
82579788356,3,-8,-5,-4,0,2,7,31
82579809208,-12,-8,-4,-5,-1,-10,-1,2
82579809208,9,1,2,6,-3,5,-6,4
82579810765,21,2,-6,-30,-17,-21,7,13
82579810765,-10,5,-2,15,4,-7,-5,-20
82579831743,17,12,6,18,15,-6,6,5
82579831743,-6,-1,0,10,-3,6,-11,5
82579833350,-10,-4,2,-4,7,16,-15,-13
82579833350,-14,-6,-1,13,2,13,19,1
82579846708,15,8,1,-14,-10,-28,0,11
82579846708,-1,-8,-11,-35,-15,0,6,0
82579848340,-4,1,-1,-1,-1,22,2,20
82579848340,10,0,4,11,4,-7,-22,-21
82579869279,-14,-1,-3,-5,-15,-10,-6,-1
82579869279,-4,15,1,4,-5,-22,10,-11
82579870835,-19,4,-3,-7,6,10,5,8
82579870835,3,-1,2,-19,2,-6,-3,0
82579882879,1,-1,2,10,-5,24,-8,-14
82579882879,-11,-3,0,-9,3,-1,1,6
82579891879,6,1,0,5,-21,-17,0,2
82579891879,-12,-4,-3,3,6,-21,-9,2
82579906081,3,4,-1,16,13,8,-3,-4
82579906081,-6,-1,-8,-12,11,36,26,6
82579906832,3,-4,5,52,-5,-14,-12,-11
82579906832,-6,-2,-5,-61,-7,14,-4,11
82579928528,3,1,0,-26,-20,-20,-2,3
82579928528,-4,-7,-18,-69,-13,-2,-6,-4
82579929328,1,-21,-4,-21,3,-1,2,3
82579929328,-6,4,-1,-22,-33,-5,-3,-8
82579951023,0,0,0,56,35,28,11,19
82579951023,-5,-6,7,16,-7,-26,-11,-10
82579951801,4,7,3,-11,1,8,2,4
82579951801,2,-1,0,29,14,-5,2,9
82579966011,-3,0,3,-13,3,19,9,-19
82579966011,6,-2,9,9,-9,-14,-25,-7
82579966800,13,3,-16,-27,-7,-5,14,12
82579966800,-39,-8,1,31,-1,-6,1,-23
82579988528,28,18,-3,-22,6,3,6,5
82579988528,-63,-20,3,30,10,23,-7,-7
82579989326,-25,0,0,-4,-6,-39,-16,-34
82579989326,27,1,-1,-17,1,11,9,30
82580011030,58,4,3,12,-7,-3,-7,17
82580011030,-29,1,-5,-10,-7,-7,18,8
82580011802,100,14,13,41,20,20,2,46
82580011802,-100,-23,-11,-18,-14,-14,-22,-77
82580026026,42,-4,-2,7,-3,-12,-11,-11
82580026026,67,7,2,-22,-9,15,-2,13
82580026829,-31,-5,-6,9,-20,-2,17,-4
82580026829,90,12,2,45,10,-8,-4,43
82580048466,-126,-17,-11,-28,-10,-9,-9,-27
82580048466,-2,-13,-2,29,4,1,-1,-10
82580049365,4,0,-3,-19,9,-3,1,10
82580049365,26,2,4,-4,-20,2,-4,8
82580071494,-26,-10,-7,-20,15,0,11,-11
82580071494,-3,10,-3,14,-21,-10,-21,-1
82580072280,12,-2,0,16,26,7,17,6
82580072280,-11,-7,0,0,-7,-2,-7,-5
82580086017,-13,-7,-5,-6,2,1,-8,-32
82580086017,12,5,4,-3,8,-9,8,40
82580086786,30,2,2,2,-1,4,-12,4
82580086786,-10,16,-2,-8,6,8,2,31
82580108519,-10,-15,-5,-18,-32,-9,8,-9
82580108519,-22,5,2,25,27,0,-6,-12
82580109299,-14,-11,3,16,16,4,-10,-29
82580109299,-16,10,2,-7,-4,-7,4,4
82580131081,43,21,2,-5,8,2,-7,8
82580131081,-6,-20,-2,5,-10,-10,2,1
82580131856,-9,-21,-7,-21,-6,5,3,5
82580131856,19,-1,-2,9,12,5,9,10
82580146033,19,9,-1,3,-1,-5,-1,9
82580146033,41,12,-1,-14,-14,-1,-3,-7
82580146813,-15,1,-2,5,27,8,5,25
82580146813,-41,-17,2,3,2,6,13,2
82580168570,45,0,2,-8,-5,2,-1,-1
82580168570,-84,-20,-4,7,-3,-5,-11,-72
82580169327,20,16,0,-11,-14,-4,-5,-15
82580169327,-18,-1,-6,-4,-12,-4,-9,-7
82580191056,-4,43,9,11,18,1,10,23
82580191056,41,-4,3,-2,14,1,4,34
82580191902,-61,-23,-3,-21,-28,-4,-2,-1
82580191902,52,15,13,8,4,3,-7,-30
82580206074,36,-23,-3,19,-7,-9,-9,-10
82580206074,14,27,-6,-8,-9,-11,0,-4
82580206861,-8,9,-1,-2,9,11,0,-25
82580206861,74,29,-3,-21,-11,-4,3,76
82580228556,-97,-16,0,21,16,1,-4,-54
82580228556,127,2,-4,-23,-23,-2,-3,-31
82580229348,43,-22,-10,-3,-3,-5,0,35
82580229348,40,34,6,12,-9,-1,1,-20
82580251082,-12,3,-4,7,5,-1,-3,87
82580251082,17,-27,-5,-1,-3,0,-1,10
82580251889,-11,14,18,-2,1,3,6,-6
82580251889,-58,-28,-13,-10,2,-7,-10,-39
82580266010,72,33,18,-3,-20,7,6,15
82580266010,-27,1,1,2,11,1,-6,-8
82580266858,10,9,-13,-26,-4,-22,-9,2
82580266858,-26,3,4,45,9,15,2,-8
82580288513,-21,-18,-12,-19,-5,-7,-5,-6
82580288513,-15,3,1,3,4,7,7,11
82580289341,39,2,-2,-3,12,13,1,-16
82580289341,-57,-19,-6,13,-13,-26,-12,-27
82580311035,7,-14,-5,-9,-6,0,-4,-8
82580311035,-25,3,1,-4,0,13,3,0
82580311788,-29,-6,-4,-2,-23,-40,0,-6
82580311788,15,-10,0,6,19,23,5,5
82580326037,3,-6,-3,15,10,13,-5,2
82580326037,-21,-2,-9,-56,-10,3,11,9
82580326853,-22,6,-2,30,2,18,0,-29
82580326853,7,-17,-4,-20,-15,-29,-19,18
82580350096,46,8,3,40,11,0,0,-17
82580350096,-8,-3,5,8,5,0,1,12
82580350835,-2,2,0,-16,-6,1,-4,-5
82580350835,-6,5,-1,-16,-8,-4,10,8
82580371013,-1,3,-2,-20,0,-13,-19,-4
82580371013,20,21,-2,-1,3,-12,-8,8
82580371814,-64,-25,-2,7,4,4,2,-20
82580371814,9,-3,-6,-4,-1,4,-6,-6
82580386051,2,-3,1,-20,-12,-9,-4,1
82580386051,-30,4,0,31,26,8,5,7
82580386804,9,6,-2,-3,-13,4,-5,-2
82580386804,1,-3,-1,-3,10,16,2,-17
82580408519,-19,-9,-3,-10,2,-6,3,-13
82580408519,-3,-11,3,11,-13,-6,0,8
82580409300,6,0,-2,-10,-5,-4,-10,5
82580409300,-13,-10,-2,-7,2,-2,-5,-9
82580431067,20,0,0,14,-2,7,11,16
82580431067,-19,-6,-1,-9,-1,-5,-12,-32
82580431860,8,1,0,-35,-1,1,1,9
82580431860,7,-2,-2,64,13,-4,-2,-1
82580446080,-2,11,0,7,4,-6,4,4
82580446080,-1,-7,-3,4,-22,-11,-17,-12
82580446808,36,9,-1,-14,-9,-3,9,-1
82580446808,-1,-6,-3,-26,-2,14,11,0
82580468582,-28,-6,-5,-6,5,-4,-12,23
82580468582,24,0,1,4,5,4,7,2
82580469366,-12,4,-1,8,-5,3,0,-5
82580469366,23,4,3,-5,-12,-11,-4,10
82580491057,-20,-9,-5,-5,-1,2,-12,-23
82580491057,6,1,0,8,10,0,-1,-4
82580491835,18,5,3,13,1,-1,-5,1
82580491835,3,0,-1,-23,-2,0,3,-9
82580506040,-13,-8,-1,5,3,2,4,8
82580506040,6,-10,-2,-7,-7,-7,-5,9
82580506806,-18,-3,0,31,12,2,1,-17
82580506806,-4,-2,-1,-12,-4,-3,-3,-1
82580527904,-1,-8,-2,-2,-7,1,6,-8
82580527904,-9,13,-1,-22,-1,1,3,-5
82580536101,-7,-21,-3,33,17,-1,-4,9
82580536101,-9,4,4,-10,-8,1,3,2
82580551072,5,-3,-7,-14,-20,-8,1,1
82580551072,-9,5,1,22,4,-2,-10,-6
82580551839,-5,2,-2,-16,-4,3,-10,-4
82580551839,2,2,0,4,6,-8,-3,-26
82580573537,32,1,2,-2,-10,3,16,22
82580573537,-27,6,2,5,-2,0,-3,-10
82580574331,-21,-5,0,-6,-2,0,-10,-13
82580574331,12,-1,-1,3,0,1,16,47
82580587892,14,5,0,-12,-4,1,0,0
82580587892,35,8,0,1,3,1,1,21
82580596053,1,10,1,5,-8,-3,6,14
82580596053,-48,2,-6,-18,-6,-2,-8,-17
82580611078,-12,-22,2,18,11,-1,-6,5
82580611078,43,8,0,2,19,5,10,21
82580611898,-8,0,-2,-15,-26,-6,2,-4
82580611898,18,1,0,-4,4,0,-8,12
82580633541,-17,17,-4,-6,14,3,0,-47
82580633541,28,-21,1,15,-2,-2,-5,-7
82580634340,-15,-22,-3,-1,3,-4,3,7
82580634340,18,-5,-4,-8,-7,-1,-4,-10
82580664243,6,8,-4,-17,-9,-5,-1,-31
82580664243,-17,-9,-5,-2,-5,-1,-2,-30
82580664984,-17,4,1,2,8,3,-4,17
82580664984,-3,0,0,9,8,1,-1,-32
82580671008,-20,-7,2,3,-12,-7,-18,-46
82580671008,12,-31,-3,-9,-4,-3,0,-25
82580671856,11,-3,-3,3,6,-1,-2,-28
82580671856,13,-1,3,2,-3,-1,-1,10
82580693562,57,10,7,-2,2,3,3,8
82580693562,6,-13,-28,-21,-20,-7,-7,25
82580694302,-19,17,27,19,-2,-3,-1,-55
82580694302,46,5,-1,0,2,-3,-3,3
82580707861,-22,-14,-14,-7,1,2,0,16
82580707861,19,3,-2,-21,-10,0,0,31
82580716097,-39,2,-4,2,10,-2,-4,50
82580716097,9,-7,-6,0,-10,-7,-2,-2
82580731079,-56,-12,-5,-7,-3,-1,-4,-16
82580731079,16,26,6,3,5,5,6,-18
82580731855,-38,8,-4,-13,-7,-1,-4,-14
82580731855,-44,-7,0,14,3,-1,2,54
82580753524,-16,6,3,0,5,5,-4,21
82580753524,-38,-28,-2,-4,4,3,4,-21
82580754340,78,-1,-7,-4,-21,2,8,30
82580754340,-51,-2,3,-5,0,2,-12,-43
82580767930,11,2,1,-2,-1,-33,-3,-1
82580767930,-33,16,3,-28,-19,1,-3,22
82580776095,30,-6,0,25,-15,-9,-5,2
82580776095,-63,-25,-8,-8,26,14,3,-12
82580791061,9,-7,6,14,5,2,4,9
82580791061,-26,1,2,8,4,10,-2,-18
82580791885,-7,-5,-11,-43,-10,-19,-5,0
82580791885,55,6,-4,2,-24,3,-29,-21
82580813574,-14,3,2,15,3,8,31,-28
82580813574,11,22,8,5,3,-1,16,28
82580814367,22,-9,-4,-3,6,-1,-2,-8
82580814367,-6,4,2,1,-3,-9,3,-5
82580836736,20,-1,-3,-31,-22,-8,-20,8
82580836736,16,-11,1,41,21,-11,-15,-2
82580837474,7,9,-1,-8,0,7,11,2
82580837474,9,1,2,-1,0,-5,-7,-21
82580851032,7,-3,-6,-13,-10,7,-2,27
82580851032,-29,0,2,6,-2,0,2,-8
82580851816,-9,-10,0,1,16,4,-9,-12
82580851816,15,-3,-3,-4,-1,-2,6,9
82580873537,-15,-2,-3,-4,4,3,-2,1
82580873537,-4,-4,2,9,4,-1,-1,2
82580874300,12,2,0,5,4,2,-3,1
82580874300,4,4,0,0,-9,-2,9,13
82580896730,4,3,1,11,14,3,1,6
82580896730,-8,-3,0,-10,-7,-4,-10,-12
82580897524,6,0,-5,-13,-4,3,3,7
82580897524,-6,-2,0,4,4,-1,4,0
82580911045,-5,-6,-3,-5,-2,-1,-7,-3
82580911045,12,1,-6,-11,-15,-1,0,5
82580911825,-32,-5,-2,7,8,1,0,-6
82580911825,9,5,0,8,2,-2,2,5
82580933564,6,1,0,-3,-4,-1,-2,3
82580933564,6,6,-4,2,-1,17,0,10
82580934326,-4,7,-4,-13,-7,-27,2,3
82580934326,-23,-6,1,10,3,7,-7,-13
82580956689,11,-25,-3,9,6,20,7,4
82580956689,-5,0,2,-1,-4,-23,-6,-19
82580957468,26,15,3,4,8,14,8,28
82580957468,-15,-8,-3,-15,-4,-6,-8,6
82580971023,-20,29,4,1,-1,-3,-1,-6
82580971023,-6,-11,-1,-10,-6,-1,0,-5
82580971833,-3,-10,1,22,13,-2,-4,-10
82580971833,4,-5,-3,-11,-8,-2,0,14
82580993551,17,14,2,9,-4,5,-2,-13
82580993551,-2,2,-2,-1,5,-3,2,-5
82580994313,-10,-5,1,23,-5,-7,-6,-14
82580994313,34,15,4,-15,2,11,6,13
82581016686,-5,-22,-13,-7,-8,4,-2,-8
82581016686,-9,-5,-5,-6,-8,-22,-4,3
82581017524,10,-5,-1,9,8,0,-11,-1
82581017524,-9,-5,2,23,9,6,5,-11
82581031009,-18,-4,-3,-9,-6,-3,-3,5
82581031009,-1,8,3,-4,4,13,6,3
82581031850,26,-1,-2,2,-15,-1,-4,1
82581031850,-38,-7,-7,-25,-11,-20,-5,-11
82581053562,4,-4,2,14,3,-1,-5,7
82581053562,-23,-9,-2,-1,7,3,3,5
82581054399,-8,-1,2,-7,1,11,0,-10
82581054399,3,-11,2,26,8,-8,-1,-1
82581076739,10,-5,-4,-70,-14,-11,-3,7
82581076739,-3,-9,-5,60,2,11,0,-3
82581077504,5,0,1,3,5,2,3,4
82581077504,3,3,-4,10,-6,-2,-1,-8
82581091075,-2,8,0,-21,2,-7,-3,1
82581091075,10,2,0,-21,-1,-5,-6,-5
82581091831,-1,-8,-4,-23,-11,4,7,28
82581091831,22,0,2,5,2,-1,-2,4
82581113494,-7,0,2,24,9,6,-1,-5
82581113494,-6,-3,0,-11,-2,-18,-3,-6
82581114302,-1,1,0,30,8,-14,-8,-12
82581114302,12,-12,2,-25,0,12,7,4
82581136742,5,-3,-2,20,2,6,-1,13
82581136742,-13,23,-11,-36,-10,0,1,3
82581137506,2,-5,-7,-78,-12,4,-3,-7
82581137506,31,8,-2,7,-10,-11,0,8
82581151011,-13,1,12,98,25,1,-2,-12
82581151011,-3,-4,2,-57,1,4,0,0
82581151821,-16,-2,-7,12,-29,-12,-4,-7
82581151821,1,-1,-12,-49,-8,4,0,0
82581173586,5,0,-3,-3,-2,2,0,2
82581173586,2,-2,4,25,6,-10,-6,-2
82581174346,-7,-3,2,9,8,7,3,-6
82581174346,-6,0,-1,14,-2,-3,-1,2
82581196720,-5,7,-1,-16,-6,-9,0,-1
82581196720,2,-28,-2,27,2,7,0,8
82581197691,0,-2,-3,-15,1,-1,-4,-8
82581197691,-11,3,0,29,3,-5,-2,-13
82581219239,19,2,-5,-30,-9,-12,1,29
82581219239,-4,-1,-6,-16,-6,11,0,-3
82581220030,4,5,-3,-18,-4,3,2,1
82581220030,-5,0,0,8,3,4,-4,-3
82581233511,-1,-3,1,13,2,-13,-2,-8
82581233511,-19,-9,-2,11,-2,-9,-4,-4
82581234306,-8,4,3,-18,0,11,3,3
82581234306,-2,3,1,14,4,11,1,0
82581256705,-7,-2,-6,-47,-23,-14,-3,-12
82581256705,9,-12,0,10,4,0,0,3
82581257496,-15,-3,1,5,2,-1,-2,-10
82581257496,8,6,4,0,-1,-2,1,1
82581271061,-3,0,1,6,5,7,1,-3
82581271061,4,7,1,3,0,-3,-1,-2
82581271831,4,-5,1,19,6,-4,-2,-1
82581271831,7,28,6,-17,-9,-2,0,-2
82581293555,-8,-27,-11,-11,-5,-4,-3,-7
82581293555,8,8,1,3,0,-1,-2,8
82581294337,0,0,-1,27,10,1,-2,-2
82581294337,-2,1,-3,5,-2,-5,-1,-3
82581316758,-2,4,1,1,1,1,-1,-5
82581316758,-3,1,-1,7,-2,-1,-3,-6
82581317533,10,-2,-2,7,-3,-7,-1,1
82581317533,-21,-1,-1,-9,2,2,1,3
82581331036,-2,-5,0,1,4,2,-2,-3
82581331036,0,-3,-1,-8,-2,5,2,3
82581331823,-1,1,0,13,0,-8,-1,5
82581331823,1,-1,-4,-6,-4,-1,-4,-3
82581353536,-1,4,3,-14,2,6,0,2
82581353536,-2,5,-1,-7,-7,-6,-5,-6
82581354334,-3,-7,1,2,-4,-1,-2,-1
82581354334,2,-6,-4,-41,-1,-5,-4,0
82581376819,10,-9,-2,10,-1,2,1,1
82581376819,0,-19,2,17,3,0,0,-2
82581377537,0,2,-2,-31,-7,0,0,-1
82581377537,-6,-11,-7,-8,-5,-6,-1,0
82581391077,-4,10,4,20,5,0,0,-1
82581391077,2,10,0,-10,-4,-2,-1,0
82581391847,8,-4,2,9,4,2,2,-1
82581391847,5,2,2,16,1,-3,0,2
82581413582,0,9,-2,2,-2,-2,0,0
82581413582,13,14,7,20,5,0,3,-1
82581414331,18,4,0,16,-1,0,-1,-6
82581414331,-3,-30,-5,-11,-3,-4,-2,2
82581436804,1,11,1,4,3,-1,-1,4
82581436804,20,16,6,10,0,1,-2,-6
82581437545,-2,-25,-3,-5,-3,0,2,6
82581437545,3,7,-4,-21,-2,-3,-1,-3
82581450390,-7,-3,-4,-11,-4,-2,-1,-6
82581450390,-32,-10,-4,-1,-2,-2,-2,-4
82581458582,-8,8,-2,0,-2,-3,-3,-2
82581458582,-2,-1,-3,12,3,0,-1,-4
82581473566,-1,-6,1,-14,-3,-1,2,0
82581473566,0,-1,-6,18,-2,-1,-1,0
82581474314,-6,4,-3,-12,-3,-2,-3,-4
82581474314,-7,-3,4,15,3,2,0,-2
82581496733,10,13,-6,-28,-3,-2,-4,-2
82581496733,-13,-15,-2,-7,-10,-3,-1,-1
82581497511,-10,-2,-1,7,-1,0,-2,-2
82581497511,0,0,3,18,2,-1,-2,-2
82581510440,-2,2,-7,5,-7,-3,-3,-2
82581510440,-4,-4,-2,-7,3,-2,-3,-2
82581518549,3,-1,-2,1,-2,-1,-2,-2
82581518549,-4,-8,-3,8,-6,-2,-1,-1
82581533561,-17,-15,-2,34,-4,-2,-3,-7
82581533561,11,-3,-2,-15,-1,-1,0,10
82581534352,-6,20,4,5,6,1,-2,-3
82581534352,-9,-29,-8,-5,-1,-2,0,-2
82581564252,2,-2,2,2,1,0,-1,-3
82581564252,-5,-1,0,16,-7,-3,-2,-3
82581565050,1,10,-5,-20,-3,-1,0,-1
82581565050,20,16,4,3,2,0,1,3
82581579266,-5,-3,-1,-10,-2,0,-1,5
82581579266,2,-3,-1,-1,6,2,1,-2
82581580055,5,-3,-3,2,-11,-3,-4,-3
82581580055,-9,-9,-4,-2,0,-3,-3,-1
82581593559,4,0,1,-1,-1,0,0,-3
82581593559,1,9,-5,-20,-8,-3,-3,-2
82581594334,-5,-9,-1,-10,0,0,1,-1
82581594334,2,8,4,-1,1,1,-4,-1
82581616735,-4,-3,-5,1,-6,-4,-3,-3
82581616735,1,-1,7,1,5,2,2,1
82581617490,4,-3,-3,-3,-6,-1,-1,3
82581617490,-3,1,4,68,15,3,0,-1
82581630387,5,3,4,-48,3,2,-1,2
82581630387,3,-10,-6,35,-19,-5,-4,-2
82581638596,-2,-4,-3,-85,-2,1,0,-3
82581638596,-6,0,-6,67,-13,-6,-4,-3
82581653516,-2,2,1,3,10,1,0,1
82581653516,-7,-7,-5,20,8,2,0,-1
82581654308,27,23,4,65,8,1,1,4
82581654308,18,20,7,-32,8,2,2,-1
82581676760,-10,-26,-7,-20,-19,-5,-4,0
82581676760,-14,-19,-5,-39,-13,-3,0,-13
82581677525,-11,4,-5,3,-1,-2,-2,-6
82581677525,-4,-5,-4,-28,-5,-4,-2,33
82581690347,-4,-25,-1,31,7,1,0,-28
82581690347,15,20,0,-29,5,1,1,64
82581699257,-1,2,-2,14,-7,-5,-7,-10
82581699257,-49,-5,-4,-18,-4,1,1,-12
82581713481,19,8,2,-8,-1,-2,-3,-3
82581713481,4,9,0,-12,-2,0,1,-4
82581714266,-33,-35,-6,4,3,-1,-2,-11
82581714266,20,3,0,-11,0,0,5,28
82581736709,-4,8,-3,-2,-5,-2,-2,-13
82581736709,2,10,6,18,8,1,-2,-26
82581737540,1,0,3,-3,2,1,0,24
82581737540,2,-6,-4,-12,-4,-1,-4,-19
82581750688,-10,-1,3,18,3,-1,2,11
82581750688,11,-3,-1,-14,0,0,1,-3
82581758524,3,-15,-2,-7,1,-2,-1,2
82581758524,-4,7,1,-4,-3,-2,-4,-6
82581773555,9,3,-2,6,2,0,-2,12
82581773555,-7,-2,0,6,2,-1,-1,-7
82581774351,-36,-30,-8,-8,-6,-2,-2,-14
82581774351,-13,-6,-5,-12,-2,-1,-1,-17
82581796778,3,8,-1,13,-2,-1,2,10
82581796778,6,-4,-1,-5,1,-2,0,9
82581797531,28,11,0,4,-1,0,3,-13
82581797531,-30,-4,-3,-6,-3,-3,-4,9
82581819239,-19,3,-2,1,-3,-1,-3,-2
82581819239,7,5,-1,-4,-1,0,-2,-10
82581820009,-16,-12,-1,-1,0,-1,1,23
82581820009,20,1,0,-8,-3,-1,0,23
82581833569,1,1,-4,-4,-2,-1,-2,-17
82581833569,18,3,-1,0,0,-1,-2,-19
82581834337,15,21,-1,-1,-3,-3,0,14
82581834337,19,0,0,-8,-1,0,-1,15
82581856779,-11,-1,-1,-1,-2,-2,0,30
82581856779,18,33,3,3,2,2,5,6
82581857482,-3,0,2,-1,1,0,-2,-10
82581857482,31,12,-4,-8,-3,-4,-5,-62
82581886739,-1,0,1,0,0,2,6,7
82581886739,-15,-11,-3,1,-4,-2,-7,-59
82581887467,30,26,-3,-4,-1,-2,2,-7
82581887467,2,-10,3,0,0,1,1,-19
82581893542,3,-11,-1,-5,-4,-3,-5,-11
82581893542,-21,-12,1,-2,0,-2,-2,-10
82581894351,-25,-5,-1,-3,0,-1,-3,6
82581894351,3,6,-1,-4,-3,-3,-1,-2
82581916736,-21,2,-1,2,2,0,0,-13
82581916736,-8,-12,-1,-1,0,-1,1,39
82581917537,16,0,-3,-3,-3,-1,0,-8
82581917537,-25,-6,-1,-3,-1,-2,-1,8
82581939225,1,4,2,1,1,-1,0,1
82581939225,-8,-30,-9,-3,-4,-3,-3,-5
82581940852,-12,4,2,1,2,1,-1,0
82581940852,7,5,0,-2,-1,-1,0,-20
82581953502,15,9,-4,-2,-2,-4,-3,-4
82581953502,-2,8,-3,-2,0,-2,-3,4
82581954291,16,-9,0,1,-1,-1,-1,0
82581954291,-7,-7,-1,-3,-1,0,0,14
82581976698,10,-15,-2,1,-1,1,0,-2
82581976698,-5,10,2,-1,0,0,0,3
82581977555,-7,-2,1,-2,-1,0,-3,-5
82581977555,-5,-3,-2,-3,-1,-1,0,-2
82581999149,2,0,0,-1,0,0,-2,1
82581999149,16,12,1,0,-2,1,2,14
82581999985,-4,-6,-1,0,0,0,-1,-1
82581999985,-15,-8,-3,-5,-3,0,-2,0
82582013534,-6,-17,-3,0,0,-1,-1,-3
82582013534,-3,-1,0,-3,-2,-1,-1,4
82582014287,0,3,0,-1,-1,-2,-2,4
82582014287,5,-8,0,-1,-2,1,5,24
82582036763,-8,-4,-2,-3,-1,-1,-1,-4
82582036763,-5,-6,1,0,0,-1,0,-3
82582037471,-13,-2,-1,0,-2,-1,-3,-2
82582037471,-3,-6,-4,0,-1,-1,-2,5
82582059206,2,4,4,0,-1,-1,1,-4
82582059206,-10,11,-2,-2,-1,0,-4,-18
82582060001,-1,23,3,0,0,1,2,1
82582060001,6,3,-2,0,0,0,-1,-7
82582081740,-12,-3,-5,-1,-2,0,-1,-2
82582081740,-5,-6,-4,-1,-2,-3,-2,-5
82582082493,-8,-11,-2,-3,-2,-1,-3,-7
82582082493,11,17,2,-2,-3,-1,-3,-3
82582096757,-2,5,0,0,0,-2,-1,-3
82582096757,1,-6,-2,0,0,-1,-2,9
82582097502,3,-4,-3,2,0,-1,3,-7
82582097502,2,-3,-1,0,0,-1,0,2
82582119265,10,1,-2,-3,-1,0,-3,2
82582119265,-12,-10,-4,-1,0,-1,1,17
82582120022,-3,-6,1,-1,-3,-2,0,6
82582120022,-3,-26,-4,-2,-1,-3,-2,-6
82582133586,0,5,1,1,-2,0,-2,1
82582133586,1,4,-1,-1,0,0,-1,-10
82582134341,-5,-4,-3,-2,-1,-1,-1,3
82582134341,-6,3,-2,-2,-2,-2,-2,-6
82582156734,1,-14,-3,-3,-2,-1,-2,2
82582156734,-5,-8,1,0,1,3,3,-4
82582158325,9,-7,-2,0,0,-2,-1,1
82582158325,-10,2,-1,-1,-2,-1,-4,3
82582179243,-3,1,-1,-3,-1,-2,1,6
82582179243,-5,1,-1,-1,-1,-1,-2,-3
82582180869,34,15,2,0,-1,-2,-3,-30
82582180869,-4,-10,5,2,2,-1,5,36
82582192942,-5,9,-1,-1,-3,-2,-2,-10
82582192942,-12,1,-1,-4,-4,-4,-1,-7
82582201848,4,5,0,-3,-2,-1,-1,7
82582201848,-1,-13,-4,-1,-3,-3,-3,-10
82582216755,7,1,2,-1,2,1,1,2
82582216755,8,0,-2,0,-1,0,-1,-1
82582218289,-14,-21,-7,-4,-2,-1,-2,6
82582218289,-7,5,-1,0,-1,-1,-1,-14
82582239259,-6,-9,-8,-3,-1,0,-1,0
82582239259,14,-12,-2,-3,-3,-3,-1,5
82582240868,-6,3,-1,-1,-1,-1,0,-2
82582240868,3,-10,-1,1,0,1,1,-2
82582252858,11,3,0,-4,-3,-3,-1,26
82582252858,1,0,0,-2,-3,-2,-3,-5
82582261891,-7,0,0,-1,-1,0,-1,0
82582261891,11,29,-1,-2,-1,-1,-1,-8
82582284189,7,3,3,1,-1,-1,-2,-13
82582284189,9,3,-2,-1,-1,1,1,3
82582285817,-12,-3,1,0,-2,-3,0,9
82582285817,-21,-13,-5,-2,-3,-2,-2,-12
82582299207,4,10,2,1,-1,1,-1,-6
82582299207,12,1,0,0,-1,-1,-2,-2
82582300809,-1,-4,1,0,0,-3,0,-2
82582300809,29,1,-3,-1,-2,-1,-1,12
82582312878,4,5,0,-1,1,0,1,-15
82582312878,-2,8,2,-1,-1,-1,0,6
82582321885,-7,-3,0,-1,0,0,-1,-3
82582321885,-14,16,3,0,-2,-1,-1,10
82582336734,5,-4,-2,2,-1,-2,1,15
82582336734,1,7,1,-1,-2,-2,-2,-4
82582338370,12,-7,-4,-2,-1,-1,-1,3
82582338370,-14,-1,-1,-2,1,-1,-1,-9
82582359221,-12,-6,-2,-5,-3,-1,-2,-6
82582359221,-21,-17,-3,1,0,0,-1,-2
82582360844,-3,-18,-5,-1,-1,-1,-2,-3
82582360844,8,-9,-1,0,-2,-2,-1,-4
82582372843,-1,10,0,0,0,-2,0,-3
82582372843,-15,-8,-3,-2,-1,-2,-3,-12
82582381848,5,12,1,-1,-1,1,-1,10
82582381848,-2,1,-1,-3,-1,-2,-3,-8
82582396756,-8,-36,-4,0,0,-1,-1,-12
82582396756,9,13,-3,-4,-4,-3,-3,-1
82582398268,-14,2,2,1,0,0,1,8
82582398268,-10,-8,-3,-1,-1,1,-1,-5
82582419236,2,9,-3,-3,-3,-3,-2,3
82582419236,-15,-12,-2,0,0,0,-3,-2
82582420829,-13,-4,-1,-1,0,1,-1,-6
82582420829,6,-2,-2,-1,-1,-2,-1,-1
82582432939,-8,1,-1,-1,-2,-1,-3,0
82582432939,17,6,1,0,-1,1,1,2
82582441870,0,-22,-3,-1,-1,-1,-1,-1
82582441870,-14,3,2,-1,-1,-1,0,-7
82582456754,-5,0,-2,-2,1,-1,0,-4
82582456754,-6,2,-1,-3,-2,-2,0,8
82582458327,11,27,1,0,0,-2,-3,0
82582458327,3,-3,-2,-2,-1,-2,-5,-6
82582479224,-2,-5,-3,-1,-1,0,-3,-3
82582479224,-3,2,-2,-2,0,-2,-2,-6
82582480857,13,-9,-3,-3,-1,-1,1,9
82582480857,-8,1,-3,-2,-1,-1,-2,0
82582492820,-2,5,-1,0,0,0,-1,1
82582492820,-3,-5,0,0,0,-1,-2,-14
82582501882,4,1,-3,-2,-2,-2,-2,-3
82582501882,8,1,2,1,0,1,0,-1
82582515757,31,13,-2,-2,-3,-2,-3,-5
82582515757,-9,23,4,-1,0,0,2,4
82582524383,23,5,-3,-4,-3,-1,-2,-10
82582524383,-5,0,0,-3,-2,-3,-1,-8
82582539193,-41,-40,-5,-3,-5,-2,0,32
82582539193,10,1,0,3,1,0,-1,5
82582540784,-6,2,0,3,0,0,-2,-1
82582540784,-2,-4,0,-1,-1,-1,0,5
82582561731,-5,2,-1,0,-1,-1,-3,-12
82582561731,-5,-11,-3,-4,-2,-3,-2,3
82582563344,-14,-8,0,0,-1,0,-2,3
82582563344,-6,-8,-2,-1,-2,0,-3,-15
82582576703,6,8,1,0,0,1,0,3
82582576703,-6,-7,-3,-2,-1,0,0,2
82582578339,-4,7,0,-1,-1,0,-2,-19
82582578339,7,2,-1,1,0,1,-1,9
82582599195,-3,30,-2,-3,-2,-1,-2,-5
82582599195,-5,-10,-1,-1,0,-1,-1,8
82582600793,-11,-13,0,-3,0,-2,2,-1
82582600793,-6,-4,-2,-1,-1,1,1,14
82582621700,-2,-3,0,1,2,0,-1,-1
82582621700,6,1,1,-1,0,-1,-2,-6
82582623307,-1,-3,-3,-2,-2,0,1,10
82582623307,16,0,1,1,-2,-1,-1,-5
82582636734,-5,-5,0,0,-1,0,0,-7
82582636734,1,-4,0,-1,-2,-1,-1,-1
82582638360,1,2,1,0,0,0,-1,-4
82582638360,-17,-14,-7,-4,-4,-3,-5,-18
82582659224,0,-32,-4,0,-3,-1,1,10
82582659224,1,1,-2,-2,-1,-1,-1,-4
82582660791,-11,-5,-2,-1,1,-2,-1,-3
82582660791,-8,4,0,-2,0,0,-1,-5
82582681769,-9,7,1,1,-2,-3,-2,-8
82582681769,1,11,-1,1,0,-1,-1,1
82582683374,5,7,-1,-3,-3,-1,-3,2
82582683374,4,1,0,-1,0,-2,-2,3
82582696091,9,-4,-3,-2,-1,0,0,8
82582696091,3,1,-3,-1,-4,-1,1,-2
82582702838,-6,7,0,-1,0,-1,-3,-9
82582702838,10,-4,-4,-2,1,-2,2,4
82582719290,-39,0,0,0,-1,-1,-2,-11
82582719290,10,-26,-4,-1,-2,-1,-2,-3
82582720810,0,-3,-1,0,-2,-2,0,0
82582720810,3,-24,-3,-4,-2,-1,-2,-4
82582741734,7,3,0,0,1,-1,0,0
82582741734,0,3,-2,-2,1,-2,-2,1
82582743348,-16,-6,0,-1,-3,-1,-1,13
82582743348,-6,6,-1,-3,-3,-1,-3,-13
82582755872,6,-3,0,-3,-2,-1,-3,-10
82582755872,-4,-7,-2,-1,-2,-1,-1,4
82582764374,7,5,-1,-1,0,0,-1,-9
82582764374,-1,6,0,1,-3,0,-1,5
82582779198,17,12,2,-1,-3,0,-1,1
82582779198,-14,-7,-1,0,-2,-1,-3,-9
82582780828,39,9,4,1,2,1,2,7
82582780828,-6,-1,-1,1,0,-1,0,2
82582801772,3,2,-3,-3,-1,-1,-1,-4
82582801772,7,-2,0,0,-1,-1,0,1
82582803310,-25,4,-5,-4,-4,-3,-4,-20
82582803310,11,-4,1,1,0,-1,2,10
82582816714,13,-2,0,0,2,0,-1,-8
82582816714,-7,2,-1,-1,-1,0,1,7
82582818346,-19,-5,-2,-4,-2,-2,-4,-6
82582818346,4,9,1,0,-1,2,-2,-3
82582839235,-3,-3,-2,-3,-3,-2,0,1
82582839235,0,3,0,-2,0,0,-1,0
82582840871,0,-2,-1,0,0,-2,-1,0
82582840871,-10,-10,-3,0,0,-1,0,-6
82582861715,26,27,2,1,1,0,1,18
82582861715,-19,-12,-5,-2,-2,0,-2,-7
82582863385,9,-4,-2,-2,-1,-1,1,3
82582863385,-6,-3,-1,-1,0,-3,-3,-1
82582876730,-7,1,-3,1,-3,-3,-3,-4
82582876730,8,4,1,0,-2,-1,-2,-9
82582878360,-5,-3,-1,1,-1,0,1,3
82582878360,5,5,1,0,-2,-1,1,2
82582899221,-9,-15,-1,-1,1,-1,-2,-7
82582899221,8,7,-2,-4,-2,-4,-3,9
82582900836,1,-7,-3,-1,-2,-1,0,-7
82582900836,6,-15,-2,0,-1,2,0,4
82582921775,3,0,0,0,1,0,0,-3
82582921775,-3,-1,-2,0,0,-1,-2,1
82582923380,-13,1,0,-2,-1,-2,-1,-4
82582923380,17,8,1,-1,-2,-1,1,20
82582936066,0,-1,1,0,-1,-2,0,-10
82582936066,-1,-3,0,-1,0,-1,2,4
82582942846,-1,9,0,0,0,-1,0,-1
82582942846,-1,-11,-4,-3,-2,-2,-4,-10
82582959216,-33,-9,-3,-1,-1,-3,-1,-8
82582959216,8,5,1,-1,-2,0,0,-4
82582960797,1,-1,-2,0,-3,0,-2,23
82582960797,5,9,1,0,1,1,3,-7
82582981777,3,-12,-3,-2,-1,0,-2,2
82582981777,-9,17,0,-1,-2,1,-3,-8
82582983335,0,-7,-1,-1,-1,1,-1,-3
82582983335,8,5,0,-2,-1,-1,-2,0
82582996084,-1,18,-1,-1,-3,-1,-3,3
82582996084,3,-4,-1,-2,-1,-1,0,0
82583002895,4,-7,-2,-2,0,-2,0,-6
82583002895,-12,2,0,0,0,-2,-2,-5
82583019220,-3,1,-1,0,-2,-2,-1,3
82583019220,-13,-18,-4,0,-1,-1,-2,-3
82583020829,-3,-4,-2,-2,-3,-1,0,-5
82583020829,-5,-2,-1,-2,0,-2,-2,-4
82583041725,8,-11,-3,0,1,0,0,5
82583041725,-3,-4,-3,-4,-1,0,0,0
82583043294,8,-2,-1,-1,-1,-2,0,-8
82583043294,1,2,-1,0,-2,-2,1,12
82583056082,5,-1,-1,-2,-2,-1,-2,-10
82583056082,-8,-1,1,0,-1,-1,-2,-8
82583062876,-24,13,0,-1,-2,-2,-2,-12
82583062876,-3,-1,-2,-2,-4,-2,-3,-7
82583079192,1,0,-1,-3,-1,-1,0,-2
82583079192,-6,-35,-4,-2,-3,-2,0,11
82583080918,1,-3,-1,-2,-2,-2,-3,-1
82583080918,-7,2,-2,-1,0,-3,-3,-3
82583101733,-5,-12,-4,-2,-2,-1,-1,0
82583101733,9,17,1,0,-1,-1,-1,-5
82583103358,-1,15,3,1,1,0,1,0
82583103358,-7,-7,-1,1,-2,-2,-1,-1
82583124232,6,2,-1,0,-2,-1,0,-2
82583124232,-15,8,1,-1,0,-3,-4,-8
82583125946,0,-4,0,-2,-1,-1,0,-4
82583125946,3,2,1,-1,-2,1,0,-4
82583139197,-2,-3,-1,1,-1,-2,-2,13
82583139197,5,-2,-1,0,-2,0,1,-4
82583140837,4,-32,-5,-2,-1,-3,-3,1
82583140837,-20,2,-2,-1,0,-1,-1,-8
82583161773,-18,-23,-6,-3,-1,-2,-3,4
82583161773,7,7,-1,-1,0,-1,1,0
82583163352,2,3,-3,-2,-2,-1,0,-2
82583163352,1,1,-2,0,-1,-1,0,2
82583176045,13,-22,-1,-2,-3,-1,-2,-4
82583176045,-4,1,1,0,0,-1,0,0
82583182884,6,1,1,1,1,2,1,7
82583182884,-7,-2,-2,-2,-2,-2,-2,2
82583199193,-11,-12,-5,-4,-1,-2,-3,-6
82583199193,-9,4,-1,-1,-2,-1,-2,-5
82583200850,0,-5,0,-1,1,-1,-3,-1
82583200850,4,-3,0,-2,-2,-1,-1,-4
82583221736,2,-13,-3,0,0,-1,0,-1
82583221736,2,0,-2,-1,0,-1,-1,3
82583223340,-5,2,-3,-2,-3,-2,-1,-2
82583223340,-12,-2,-4,-2,0,-1,-3,-9
82583235394,2,13,2,-2,-1,1,1,-2
82583235394,8,-1,0,0,-1,-1,-1,0
82583244352,-3,-1,0,0,0,0,-2,-6
82583244352,4,1,-1,-1,-2,-1,0,1
82583259213,-1,7,1,-1,0,-1,-2,-2
82583259213,-4,-8,-5,-1,-3,-3,-2,-5
82583260767,21,0,1,0,0,-1,0,10
82583260767,20,14,4,2,2,0,0,2
82583281696,-12,20,2,-2,-3,0,-1,-6
82583281696,22,2,-1,0,0,0,3,6
82583283325,-2,-1,-3,-2,-3,-3,-2,-1
82583283325,2,4,-2,-1,-3,-2,-1,13
82583295353,10,-8,0,1,-1,-1,0,-16
82583295353,-2,3,1,-2,0,-2,-1,3
82583304372,-9,-5,-3,-2,-1,-2,-1,0
82583304372,-2,2,0,0,0,-2,-1,-4
82583319213,2,9,2,-1,-1,0,0,4
82583319213,-3,-3,-3,-3,-2,-1,-2,0
82583320822,-13,-5,-1,-1,-2,-1,-2,-4
82583320822,-3,-8,-2,-3,-2,-1,0,-6
82583341785,0,0,-1,-1,0,-2,-1,3
82583341785,-8,-5,-1,-2,-2,-1,-1,-5
82583343328,-3,5,-1,0,-1,0,1,8
82583343328,-19,-3,-2,-1,-3,-1,-2,-2
82583355360,-5,-1,-1,0,0,-1,0,4
82583355360,16,-5,-1,-1,0,-1,-1,7
82583366516,-16,-5,-4,-4,-2,-4,-2,-7
82583366516,5,27,1,-4,-2,-2,-2,7
82583379202,-11,-19,-1,2,0,-1,0,-5
82583379202,-11,-16,-2,-4,-2,-2,-1,-2
82583380829,-4,1,-2,-1,0,-2,-3,-9
82583380829,1,2,-1,-3,-1,0,1,-1
82583401746,2,6,-3,-3,-1,-3,-3,0
82583401746,7,2,-1,-1,-2,0,-1,-3
82583403290,2,-10,-1,1,-1,0,0,-4
82583403290,2,-13,-2,-2,-1,-1,-2,5
82583415327,12,7,0,-1,-1,0,0,-7
82583415327,-5,-1,-4,-1,-2,-2,0,7
82583424390,13,1,-2,-1,-2,-1,-1,2
82583424390,-3,-9,-1,0,0,-2,0,-11
82583439266,2,2,0,1,-1,0,0,-4
82583439266,-5,0,1,-1,0,-1,-1,4
82583440803,10,-4,-2,-2,-1,-3,1,-1
82583440803,8,1,1,-1,-1,0,-1,-4
82583461732,-1,-1,-4,-2,-1,-3,-3,-3
82583461732,1,4,0,0,-1,0,-3,-6
82583463344,-15,-1,-3,-3,-2,0,-2,-3
82583463344,-1,-15,-6,-1,-3,-3,0,3
82583484260,0,5,-1,0,0,0,0,4
82583484260,-1,10,1,-1,1,-1,1,-2
82583485849,4,-1,-2,-3,-1,0,0,-4
82583485849,-1,19,0,0,-1,-2,-2,-3
82583506732,-7,-2,-2,-2,-2,-2,-2,2
82583506732,12,-1,-2,1,0,-1,-1,-2
82583508298,7,4,3,1,1,1,2,-6
82583508298,2,2,4,-2,0,-2,0,14
82583521711,2,-4,0,-1,0,-1,0,6
82583521711,7,4,-2,-1,-1,-1,-1,-3
82583523308,11,4,1,1,-1,-2,-1,1
82583523308,-4,-8,-2,1,1,1,-1,-7
82583535408,3,-1,0,0,-1,-1,0,-1
82583535408,-7,-2,1,-1,0,-1,-1,3
82583544401,0,0,-3,-1,0,-1,-1,-4
82583544401,4,-3,1,-3,0,-1,-2,-5
82583559255,-7,5,0,-3,-2,0,-2,1
82583559255,-7,-5,-2,-1,-3,0,-1,-3
82583560859,-11,-2,-1,0,-3,-2,-4,3
82583560859,-1,-2,-3,-1,-2,0,-2,-6
82583581743,-3,-5,-2,-3,0,-1,-1,-3
82583581743,-5,2,-1,-1,-1,-2,0,0
82583583329,0,-1,0,0,-1,0,-2,1
82583583329,-7,-8,-4,-2,-2,-2,-2,-6
82583595406,1,6,0,-1,-2,-1,1,3
82583595406,-8,-2,-2,-1,-1,0,-2,-5
82583604333,-1,5,0,-3,-2,-2,0,1
82583604333,-13,-30,-5,-1,0,-2,0,-16
82583619199,4,2,-1,-1,-2,-1,0,22
82583619199,-7,12,0,-2,-2,-2,-2,-7
82583620799,4,4,0,1,1,-1,-2,1
82583620799,7,20,0,-1,-3,-2,-1,-6
82583641743,-11,-21,-2,-1,1,-2,-1,-5
82583641743,-7,-8,-3,-4,0,1,0,-14
82583643327,3,1,0,2,-1,-2,-3,4
82583643327,-4,4,-1,-4,-3,-2,-3,0
82583655362,-5,7,0,3,2,0,-3,-8
82583655362,2,0,-1,-7,-5,-2,0,8
82583664358,11,0,1,-2,0,0,1,-2
82583664358,-1,-10,-2,0,1,0,1,0
82583679206,-8,12,-1,0,-1,-2,-2,-6
82583679206,-21,2,-2,0,0,-2,-3,-6
82583680800,-8,-3,-3,-2,1,-1,-1,1
82583680800,-8,-2,-1,-2,-2,-2,-2,0
82583701729,5,2,-1,-2,0,-2,0,-1
82583701729,5,-19,-3,1,-1,-1,-2,2
82583703350,-18,-6,-3,-4,-4,-1,-3,6
82583703350,9,6,2,2,0,1,2,-3
82583724211,8,-5,-2,-2,-3,-2,-2,1
82583724211,2,-3,-1,0,1,-1,-2,3
82583725808,4,16,0,-2,-1,-2,-1,-2
82583725808,11,-11,0,1,1,-2,1,5
82583739214,-8,3,0,0,-1,0,-2,-6
82583739214,9,6,2,1,-2,-2,0,5
82583740815,-10,1,-1,-1,-1,0,0,-2
82583740815,-1,9,-2,-1,-2,0,-2,-1
82583761728,-3,-5,-1,-2,-2,-2,0,-3
82583761728,0,-1,0,0,0,-1,-3,0
82583763393,-4,-9,-2,-2,-2,1,-1,-5
82583763393,-6,-4,0,-1,0,0,-1,-1
82583784232,-4,-9,-3,-4,1,0,-1,-3
82583784232,-2,0,-2,2,2,-1,0,0
82583785803,-1,-4,-1,-2,-4,-2,-2,-1
82583785803,6,-17,-4,-1,-1,-1,-1,-5
