timestamp,emg1,emg2,emg3,emg4,emg5,emg6,emg7,emg8
83594007416,-2,1,-3,-2,-1,-3,-2,-2
83594007416,-1,-1,0,-2,-2,-2,-1,-1
83594014629,-1,-1,-1,1,-1,-1,-2,0
83594014629,-3,0,-1,0,-2,-1,-3,-3
83594016316,0,-3,-2,-1,0,-1,-2,0
83594016316,-1,-1,-3,-2,0,1,0,-1
83594037129,1,-1,-2,-2,-1,0,-2,-6
83594037129,-1,-1,0,-1,-2,-2,0,1
83594038725,-2,-1,0,-3,-1,-1,0,0
83594038725,0,-2,-1,-1,0,-3,-1,1
83594050755,-1,-4,-1,0,0,-1,-3,-1
83594050755,-2,-1,-1,-2,-1,-1,-1,-2
83594059722,1,0,-2,-3,-2,-2,-1,-3
83594059722,-1,-2,-1,-2,-1,-1,0,-1
83594074752,0,0,-1,-2,-2,-2,0,3
83594074752,-5,0,-2,-2,-1,1,-1,-4
83594076280,8,-1,-2,-2,-2,0,-1,4
83594076280,8,-1,-1,-2,-1,-1,-2,-8
83594097195,-3,1,0,-1,-1,-1,0,11
83594097195,0,-2,-1,-1,0,-2,-1,1
83594098737,1,0,0,0,-1,-1,0,-6
83594098737,-1,-3,-3,-1,0,-2,-1,6
83594119739,1,-1,0,0,-1,-1,-2,-3
83594119739,-2,-2,-2,-1,-2,0,-2,-2
83594121279,-5,-2,-1,0,-2,-2,-1,-1
83594121279,-4,-1,-2,0,-2,-1,-2,-2
83594134671,-2,-1,-1,-2,-2,-2,0,-4
83594134671,-4,-2,-3,-1,-1,0,-2,0
83594136307,-1,-2,-1,0,-1,-1,-1,-4
83594136307,7,0,-2,0,0,0,-1,-6
83594157358,-6,0,-3,-1,-2,-3,1,12
83594157358,0,-2,1,-2,0,-3,-1,-7
83594158842,6,6,0,0,2,-1,0,4
83594158842,-7,-4,-1,-1,2,-1,-1,-4
83594170980,2,-1,-1,-2,0,-1,1,-2
83594170980,3,2,-1,0,-2,-1,0,1
83594179782,-5,-1,0,0,-3,0,0,0
83594179782,-4,1,0,-1,-1,-1,-2,2
83594202169,0,-3,-1,-2,-1,-2,-1,-5
83594202169,8,0,-2,-1,-1,-1,0,1
83594203769,-8,4,0,-1,-1,0,-3,-4
83594203769,0,-1,-2,0,-1,-1,-3,0
83594217378,-1,-1,-1,-2,0,0,-2,-4
83594217378,2,4,-3,-1,0,0,-2,-2
83594218762,-6,-15,-2,-2,0,-2,0,-2
83594218762,-4,0,-1,-2,-1,-1,0,0
83594230878,-2,2,-1,-1,0,0,-1,-7
83594230878,11,-5,-2,0,1,-1,0,2
83594239831,-1,0,-1,0,-1,-1,0,4
83594239831,-4,0,-2,-1,-3,-2,-1,-1
83594254714,0,-4,-1,0,-3,-2,-1,-2
83594254714,0,-2,0,-1,0,-2,-3,-3
83594256380,-10,-2,0,-1,0,-1,0,-8
83594256380,10,1,-1,-4,-1,-2,1,9
83594277153,9,4,0,1,-1,1,0,3
83594277153,-3,-4,-2,-2,-4,0,-1,2
83594278782,-8,-2,-1,0,-1,-4,0,-4
83594278782,-6,-1,-1,2,1,5,-3,-2
83594290778,1,0,0,-2,5,-1,-3,-1
83594290778,-2,-1,-2,-8,-11,4,-1,3
83594299795,2,-2,-1,13,-3,-10,2,0
83594299795,3,0,-1,0,2,-3,0,-3
83594314657,5,4,1,0,-11,-5,-1,5
83594314657,32,3,4,8,12,3,6,2
83594316269,-42,-10,-6,-7,1,11,-2,-11
83594316269,-12,-5,-2,4,-8,-2,-3,-7
83594337217,1,4,-1,-1,1,0,1,2
83594337217,8,-1,0,27,-2,-7,-2,-1
83594338794,-30,-3,-8,-57,-7,-5,-3,-9
83594338794,13,-3,2,39,6,-6,1,2
83594350780,0,13,0,15,-12,-9,-10,-6
83594350780,-23,-9,-8,10,-7,8,2,-13
83594359809,41,16,6,31,18,5,6,21
83594359809,-14,-1,3,14,3,9,2,1
83594374021,21,2,1,25,5,-1,1,26
83594374021,66,16,2,7,2,10,6,6
83594380783,-63,-42,-10,-32,-19,-37,-14,-35
83594380783,57,4,0,-10,0,6,-4,-92
83594404643,16,-15,3,-43,10,14,12,63
83594404643,-3,-23,2,87,-2,-10,-5,36
83594406216,-49,2,0,-1,-3,-8,-12,-11
83594406216,19,0,-3,-12,6,12,18,18
83594410790,7,-14,-7,-1,8,3,-7,-48
83594410790,-51,9,-2,-98,-13,8,7,35
83594419777,49,10,1,-9,9,-1,1,-16
83594419777,-18,9,-3,-1,-14,-17,-7,24
83594433952,-17,3,-3,-10,-25,1,-3,5
83594433952,85,22,3,2,9,-6,2,64
83594440808,-90,-23,-4,31,5,-5,-4,-31
83594440808,1,5,-8,-43,-23,-4,-31,-8
83594457110,27,-3,1,45,11,-18,27,-14
83594457110,-73,-3,-1,-38,1,-1,9,-6
83594458738,25,38,0,-18,-24,17,-7,-48
83594458738,35,-19,8,12,11,-16,-9,86
83594479669,51,3,-3,-13,1,4,-13,-35
83594479669,-89,-15,-3,1,5,-13,-19,-97
83594481265,115,11,0,2,3,45,46,107
83594481265,-49,-2,-3,13,17,11,5,-74
83594494190,11,8,0,-17,-15,-27,-9,103
83594494190,32,3,4,21,18,0,2,-43
83594501091,-47,-15,-4,1,-24,-35,-18,39
83594501091,-14,3,-4,-106,-25,10,-11,-48
83594517394,-48,-14,-4,35,21,18,-5,-37
83594517394,-24,-12,-8,-51,7,31,-1,62
83594518796,51,8,4,-3,-11,-18,18,38
83594518796,-35,-6,0,60,-7,-50,4,43
83594539746,-62,6,4,-28,5,-23,-18,-37
83594539746,12,-3,2,-7,-24,-2,-29,-66
83594541320,65,3,0,28,16,5,-10,70
83594541320,-18,-43,-10,-31,7,70,31,15
83594554232,14,-7,-7,-19,-20,-27,0,-43
83594554232,1,6,3,16,5,11,34,29
83594560845,18,-8,-1,-9,-26,9,-9,-67
83594560845,-32,-6,-6,4,2,-36,-14,-63
83594577387,-25,-3,2,-2,2,3,-21,17
83594577387,17,-6,-5,5,6,-9,-9,-59
83594578786,49,3,5,26,16,28,21,31
83594578786,-3,7,0,-21,-34,-48,47,17
83594599855,3,-5,-1,12,17,26,10,-12
83594599855,-4,6,2,-14,-7,12,-58,-63
83594601357,6,8,2,-19,16,-4,-3,48
83594601357,16,8,-1,24,34,46,-17,-16
83594613335,-38,-8,-3,-8,-33,-55,41,39
83594613335,5,0,1,8,-25,-27,8,31
83594622356,-28,-12,-14,-45,-29,26,19,-58
83594622356,28,-20,0,35,24,-12,-10,26
83594637206,22,5,2,5,12,36,-9,-38
83594637206,-30,-7,-8,-46,5,-10,1,14
83594638786,-43,-12,1,91,11,-24,-31,-81
83594638786,-22,9,-6,-53,-22,27,8,16
83594659692,-16,-4,-9,-27,-16,-42,-21,-30
83594659692,71,6,-1,9,20,13,-2,24
83594661256,-66,-2,2,6,14,1,-25,-22
83594661256,13,-4,-1,-20,-2,35,22,26
83594673534,-9,-4,-4,30,-14,-2,7,-29
83594673534,-7,-19,-1,-4,-18,-38,1,-12
83594682473,10,-7,-3,-30,13,0,-2,3
83594682473,5,9,2,15,15,-6,-32,-27
83594697423,-25,-14,-1,-8,0,29,-3,-21
83594697423,37,19,0,21,4,-13,-7,-5
83594698828,-12,13,2,6,0,-4,26,25
83594698828,-1,1,3,-1,0,-23,-17,-90
83594719729,-2,21,-1,-25,-18,9,8,44
83594719729,-18,0,0,24,13,16,11,-51
83594721316,65,2,3,-15,8,-7,-7,59
83594721316,-53,8,6,-24,-21,2,1,4
83594733401,18,1,0,34,39,7,-5,2
83594733401,7,-6,-3,25,-1,-6,6,11
83594742301,25,6,-1,-18,-8,-7,-13,-41
83594742301,-45,-11,-2,16,-4,-5,6,57
83594757150,-12,12,-2,-41,-18,3,0,4
83594757150,-36,-2,3,20,8,2,-5,2
83594758826,12,-17,-12,-13,-14,-2,-1,-85
83594758826,59,9,5,49,23,-12,-5,27
83594781098,-56,12,3,1,3,11,-2,30
83594781098,8,2,3,-9,-1,1,6,8
83594782676,-2,-6,-7,-50,-21,-6,2,2
83594782676,0,-2,-6,14,-12,-4,-8,-16
83594793526,4,13,3,3,13,5,-8,-54
83594793526,42,-7,-2,18,8,0,16,111
83594802335,-33,0,-1,0,4,-1,-5,-11
83594802335,-39,-8,-2,8,-6,-6,-8,-29
83594817275,42,-40,-6,-52,-22,0,7,83
83594817275,-3,-2,-5,-56,-13,-3,-8,-45
83594818821,-36,-9,6,26,23,3,-3,-10
83594818821,37,3,-3,7,9,-3,6,37
83594839717,30,7,-3,-2,8,-5,-11,-57
83594839717,-46,-4,-1,16,1,0,3,-19
83594841304,17,5,1,8,3,1,2,26
83594841304,12,11,-3,-11,-1,-1,1,-6
83594853524,-5,-10,-2,1,-12,1,-1,-17
83594853524,-16,-8,-6,-32,-12,-2,-1,-4
83594862368,3,9,-2,3,-2,1,-6,-26
83594862368,22,6,0,7,6,-6,-5,0
83594877310,-7,-5,-4,12,14,2,4,-2
83594877310,-6,-7,-3,18,-19,-2,-3,-47
83594878768,5,12,1,-17,-19,-5,-9,21
83594878768,-16,-21,-5,-17,-5,-3,4,6
83594899839,-30,6,3,4,9,3,-5,-8
83594899839,5,5,-2,5,12,-1,8,-2
83594901312,-3,-6,-3,-26,-3,-4,-6,-14
83594901312,43,-8,-3,46,-5,-4,-10,-16
83594922383,35,10,3,28,5,3,7,44
83594922383,12,-14,1,-5,0,2,7,68
83594923807,-21,-1,2,9,7,2,2,-2
83594923807,58,13,-5,-21,6,2,6,18
83594937240,-53,-17,-7,-30,-45,-5,-4,23
83594937240,-5,-5,-1,16,24,1,-9,-47
83594938778,48,1,3,22,-10,-5,-2,56
83594938778,-33,0,3,0,23,5,14,25
83594959895,-28,-7,-4,-9,-29,-5,-8,-48
83594959895,-5,6,-3,-18,0,-2,-5,36
83594961325,-3,5,4,-21,-12,-4,-21,-76
83594961325,-28,-3,2,-2,14,0,23,26
83594973416,44,13,0,-4,-1,1,1,10
83594973416,1,13,-2,-16,-21,-2,-5,-19
83594982354,-35,-3,0,13,7,-1,2,-24
83594982354,35,3,-5,-32,-26,-3,-6,-4
83594997402,62,1,5,44,39,1,-4,-59
83594997402,-15,-5,9,-27,-20,1,7,5
83594998816,68,16,-10,52,38,2,4,18
83594998816,-64,-20,7,-32,-37,-4,-10,-12
83595019720,44,2,-12,0,7,-8,-10,-20
83595019720,-51,0,15,13,-7,0,3,27
83595021269,-4,-6,-17,-8,-6,-1,8,7
83595021269,16,4,-2,-38,-17,-4,-17,-36
83595033513,9,7,3,89,41,7,18,65
83595033513,107,-9,-20,-14,-6,-2,2,16
83595042342,-102,-10,3,-17,-10,-8,-14,-47
83595042342,15,-11,7,31,5,-1,-4,-30
83595057202,66,0,8,-30,-3,0,7,72
83595057202,-65,-9,-12,4,-2,-4,-18,-78
83595058770,65,3,2,-23,-14,0,12,11
83595058770,-25,2,5,39,26,-6,-21,14
83595079856,73,0,-9,-11,-4,5,-7,22
83595079856,86,10,-10,-19,-6,1,32,96
83595081287,8,0,1,8,-7,0,-4,7
83595081287,-88,-18,-3,26,11,0,5,66
83595093508,3,7,-8,-55,-36,-9,-10,-88
83595093508,3,2,18,6,3,1,-13,-43
83595102332,-21,-4,5,7,20,0,-4,-65
83595102332,127,2,16,27,9,1,14,49
83595117388,-62,7,-24,-14,-1,-3,-5,-67
83595117388,-84,-21,-22,-49,-32,-16,-19,-62
83595118792,93,14,41,50,4,12,13,127
83595118792,-89,-21,-23,-55,-10,-7,-13,-58
83595139750,-78,-20,22,-6,-32,-13,-12,-43
83595139750,1,-1,-7,-23,33,-13,-17,-26
83595141308,28,1,-5,-30,-13,-33,-14,51
83595141308,69,33,4,81,-6,21,17,33
83595153617,-70,-13,-1,-60,-37,-2,14,-58
83595153617,43,15,-11,46,40,20,9,37
83595162360,-42,-24,-17,-45,-31,4,9,70
83595162360,127,27,0,37,32,-13,-3,-29
83595176735,-102,-9,8,43,25,28,4,61
83595176735,-72,-22,10,61,36,-33,-12,-10
83595183524,38,9,-6,-46,-22,5,21,10
83595183524,-52,-4,-13,-120,-53,-29,-26,-51
83595199873,73,32,8,39,36,44,11,18
83595199873,-3,-17,13,-25,0,19,16,18
83595201329,-30,-6,-11,32,19,11,-7,-50
83595201329,28,-4,-4,-62,-38,-20,10,82
83595213419,-35,-23,-3,11,36,-38,-48,-35
83595213419,30,17,-7,-37,-31,9,7,-22
83595228456,44,12,-4,-3,5,-18,3,-52
83595228456,-56,-7,3,5,-2,40,9,-37
83595236670,29,11,-9,-26,-26,-23,6,-36
83595236670,11,2,3,33,0,-7,-18,28
83595243520,36,-13,-2,-63,-27,-12,18,24
83595243520,-10,36,2,53,39,14,-8,-36
83595259842,46,-6,-4,6,5,3,3,70
83595259842,10,0,5,-7,-16,12,12,-9
83595261318,-31,-3,1,35,11,-12,-9,-10
83595261318,-11,3,-7,-23,-28,-7,-23,-35
83595273448,21,-12,-1,-15,19,-16,13,-26
83595273448,-24,10,6,55,1,-3,10,-16
83595282435,-16,0,-2,-26,8,31,-8,-4
83595282435,19,-10,7,8,6,-7,-12,-1
83595296683,-16,0,-1,9,7,-7,2,-11
83595296683,-14,-19,-2,-3,-38,29,0,15
83595303431,-7,-5,-20,-1,-18,-15,17,-19
83595303431,-54,-12,14,78,27,-1,-2,-15
83595319714,62,-1,11,-50,-2,-16,-15,25
83595319714,1,10,-13,23,9,20,-8,-17
83595321308,28,-4,-4,12,-7,-22,5,-3
83595321308,24,10,-5,8,21,-3,10,6
83595333413,-5,-3,-4,-19,-21,18,11,15
83595333413,10,7,12,-4,23,3,-2,-9
83595342410,-18,2,-5,12,-2,13,-20,-8
83595342410,27,5,-9,-21,-8,-5,2,10
83595355879,-31,-1,-11,15,-10,5,14,-10
83595355879,11,12,3,-35,2,-35,-11,1
83595364103,1,-2,1,-9,-5,6,-5,-22
83595364103,11,-18,6,35,8,12,14,8
83595379217,-53,-9,-7,21,-11,1,-9,0
83595379217,30,0,-5,-38,0,14,-9,-10
83595379790,-49,13,7,21,0,-9,-8,-17
83595379790,43,2,-5,-53,-20,-6,3,37
83595401504,-56,-12,-3,46,12,4,-4,-14
83595401504,26,-6,-6,-12,-26,-17,8,8
83595402269,-64,-13,1,-20,19,6,-3,-12
83595402269,-8,-7,-7,-1,5,3,-2,-15
83595415838,7,2,4,-12,-25,-6,1,22
83595415838,38,-8,-1,46,39,-2,-3,9
83595423986,-54,-9,0,7,1,2,-5,-25
83595423986,-13,8,-5,-49,-26,1,2,-12
83595439212,21,5,-1,-28,10,5,-9,-23
83595439212,-11,5,0,4,-18,-8,12,38
83595439802,-15,-2,-1,13,14,3,-5,10
83595439802,-11,-4,-4,1,-1,-5,-3,-15
83595461489,12,14,3,-1,-4,-4,-12,-42
83595461489,-5,-1,-1,-5,14,2,3,-24
83595462249,56,4,-3,-3,-28,0,18,52
83595462249,-39,-18,-4,28,19,-4,-3,-17
83595476029,17,-12,-1,22,11,2,-2,-24
83595476029,-2,15,5,-7,0,1,-5,-40
83595484235,-11,3,-1,3,8,-2,-4,-7
83595484235,-11,9,-1,-22,-30,-3,-2,18
83595498993,12,1,1,1,8,-1,3,-7
83595498993,6,-1,-6,-17,-32,-9,1,54
83595499761,6,-4,2,40,22,0,-4,14
83595499761,3,1,-1,-19,-7,-1,-4,-18
83595521490,-76,-15,-7,-2,4,-1,0,41
83595521490,13,3,-1,-9,-19,-5,6,-8
83595522223,12,-1,-2,2,5,4,-3,28
83595522223,-11,-19,-3,-5,5,-7,3,8
83595535976,22,0,-1,-17,-32,2,1,8
83595535976,4,-7,0,32,32,-3,-11,17
83595544098,-26,-2,-1,3,-5,3,-4,-76
83595544098,37,8,1,3,9,5,14,21
83595559035,23,3,1,-17,6,1,4,-25
83595559035,33,2,-1,-8,-25,-5,-2,20
83595559710,-39,-12,-2,-23,7,1,-8,-12
83595559710,2,5,0,6,10,1,-4,-48
83595581678,25,0,-1,13,-7,1,-1,18
83595581678,20,4,-1,-12,16,1,8,3
83595582279,-10,-11,-1,17,4,-4,-12,-13
83595582279,-2,5,1,-3,1,-5,-6,-24
83595595862,-4,-5,-2,-7,1,2,14,93
83595595862,-29,-17,-1,-13,-13,-5,-6,-50
83595604046,40,22,4,-15,-3,-1,1,12
83595604046,-26,-12,-4,35,0,1,-4,-12
83595618982,43,1,-1,-23,1,-1,-5,-32
83595618982,-52,3,-1,-12,-19,-3,-2,1
83595619739,43,1,-1,9,4,-2,-2,6
83595619739,-65,-5,-4,-17,4,0,-4,0
83595641739,-14,-6,-1,-39,-25,-1,-3,-18
83595641739,5,-1,1,73,14,-3,0,33
83595642321,21,0,0,10,1,4,4,-11
83595642321,10,-16,-3,-57,-24,-2,-3,25
83595655846,18,-4,6,56,45,-5,-2,29
83595655846,-63,0,-4,-7,-16,1,-2,-39
83595664060,11,-7,0,15,2,-2,-7,-12
83595664060,18,12,1,-12,4,1,1,9
83595679261,-3,8,-3,-28,-33,-1,4,11
83595679261,-12,-2,-3,-7,6,-5,-13,-74
83595679785,1,-1,-4,6,4,-2,4,24
83595679785,16,4,-5,-3,-17,-4,-6,-41
83595701536,20,8,0,-5,14,-6,-12,-17
83595701536,15,4,-2,20,4,0,0,2
83595702323,-1,-21,-2,-16,-15,0,-4,4
83595702323,14,6,1,-10,-2,-3,-4,-34
83595715903,45,7,-4,46,12,-5,-11,-13
83595715903,-76,-13,1,-30,-7,3,6,20
83595724063,16,14,-3,10,5,-2,8,94
83595724063,40,13,5,13,-10,0,2,45
83595739220,-25,-10,-8,-4,3,2,2,-31
83595739220,61,-2,-2,3,4,-1,-4,19
83595739855,-38,0,11,-4,-5,3,3,-37
83595739855,0,-9,-19,-16,4,-5,-4,47
83595761534,-72,-13,-1,-3,-14,1,5,12
83595761534,19,-2,-7,-46,-23,-5,-3,-38
83595762320,21,21,-2,49,48,0,-1,17
83595762320,-50,4,-4,3,-28,-6,-47,-103
83595776010,41,-2,27,15,8,12,57,90
83595776010,-39,-22,-13,-20,3,0,-11,-44
83595783989,-18,-2,2,-21,-25,-2,-3,-78
83595783989,17,-6,-7,11,3,-4,4,58
83595799049,-32,-14,-15,-3,7,-5,-19,-31
83595799049,8,-14,-4,-7,-5,-2,-15,-93
83595799802,-43,22,3,-1,-6,1,6,22
83595799802,86,-34,-16,-34,-1,2,25,6
83595821732,-69,-35,23,20,-13,-8,-12,-44
83595821732,78,13,-31,-16,10,2,-10,-39
83595822254,-79,-7,-13,-6,-8,-4,-11,-61
83595822254,-21,-10,30,17,13,3,-8,12
83595836011,108,34,-9,-24,7,-2,26,39
83595836011,-89,-13,7,-14,-17,-4,-13,-26
83595844230,97,-29,-15,-9,13,-9,6,61
83595844230,-77,-2,14,73,12,4,-11,-60
83595859238,80,27,22,4,-3,-1,-21,-26
83595859238,-73,-2,-1,-54,-20,17,25,41
83595859862,17,5,-5,6,7,-24,-15,-10
83595859862,18,14,-22,-42,9,-3,29,35
83595881553,-8,-6,6,14,5,19,-8,-11
83595881553,108,22,0,23,-11,6,14,53
83595882316,-117,-32,4,-13,4,10,-8,-51
83595882316,9,4,9,-2,27,-8,-11,0
83595896079,4,14,13,-7,-25,-11,-1,-2
83595896079,-21,-14,-15,-6,-13,-11,3,12
83595904200,33,21,2,-11,-30,1,-8,-20
83595904200,-35,-33,3,32,16,5,13,65
83595919183,0,4,-20,-14,4,3,-9,-3
83595919183,8,-18,29,68,36,-2,6,26
83595919852,55,2,2,4,-14,-9,1,-9
83595919852,-20,20,3,-24,-1,-2,1,-23
83595949868,-52,-10,-40,-38,-41,-6,-10,-23
83595949868,-2,8,23,-1,-1,-2,-6,9
83595950484,6,-9,2,77,38,4,-2,-4
83595950484,20,3,-5,11,-3,3,-3,-12
83595956029,51,-5,-13,-36,-5,0,-3,34
83595956029,2,16,-14,31,0,-3,-2,2
83595964230,37,-2,-1,-55,-19,6,-7,-30
83595964230,4,21,-5,9,-2,0,1,58
83595978991,-49,-22,-19,3,-1,-9,-27,-76
83595978991,11,13,-3,-13,0,-2,-1,2
83595979783,8,4,12,-12,-8,3,3,2
83595979783,8,15,12,-1,-11,-1,7,22
83596001590,2,9,24,19,13,-1,12,20
83596001590,-23,-6,14,14,8,-3,1,9
83596002291,-30,-7,8,-6,2,1,10,10
83596002291,-11,-15,5,4,-6,-3,9,-25
83596015786,-18,-9,5,25,20,1,10,8
83596015786,3,5,13,-2,2,-5,9,8
83596024117,26,3,0,-12,-6,3,11,22
83596024117,-15,-8,-3,4,4,-2,-2,-13
83596039167,-22,-3,2,6,9,-2,2,-12
83596039167,12,-6,-5,3,8,1,1,6
83596039756,-9,-2,-8,-14,-5,-1,-3,37
83596039756,27,9,-10,-25,-25,0,-5,-7
83596061696,-15,-13,-13,0,11,-7,-6,-32
83596061696,78,19,-1,10,6,-2,-9,55
83596062265,-35,-7,-10,-1,-5,10,11,22
83596062265,16,-3,-3,-5,-5,0,-8,-24
83596075998,-11,0,-9,-10,-8,3,-12,-12
83596075998,-50,-10,-12,-17,-8,5,-4,-19
83596084261,21,6,-7,-5,-4,-7,-7,-19
83596084261,-22,-21,-13,-4,-3,-22,-6,-2
83596099190,8,-7,-7,-8,-1,0,-17,-16
83596099190,-24,-10,-10,-8,-4,4,-2,-10
83596099842,7,-2,-4,-2,-3,6,-2,-9
83596099842,-4,14,-2,-7,-4,-2,-10,-32
83596121631,-10,7,-1,5,-4,-11,-4,12
83596121631,-4,-5,0,-18,-12,3,4,-9
83596122243,2,0,-1,6,13,4,-5,0
83596122243,12,0,3,12,2,-4,-2,-4
83596135974,3,0,1,14,-4,-3,5,12
83596135974,4,0,2,-5,-3,-4,-9,16
83596144111,5,3,1,-10,-10,-14,0,-7
83596144111,-5,-3,-3,-6,0,13,2,-5
83596159073,22,3,0,-3,-2,-1,5,17
83596159073,-16,-4,-3,-2,-1,-3,2,-13
83596159763,-2,-1,-1,0,1,-4,-3,-4
83596159763,19,-14,0,1,4,3,1,8
83596181519,-67,-2,-1,-5,-5,4,5,-8
83596181519,14,1,1,4,3,-4,-5,-5
83596182359,7,-6,0,1,2,-4,-1,4
83596182359,-6,7,2,-1,-3,1,0,4
83596195990,23,3,2,-4,-3,3,3,12
83596195990,-3,-6,-3,1,2,-5,-4,-7
83596204138,-22,1,0,0,-1,2,0,-8
83596204138,3,3,-1,-1,-3,1,2,-5
83596219175,10,1,-1,-1,1,0,0,2
83596219175,6,2,3,2,3,-2,2,0
83596219795,15,-1,-2,-2,-3,-1,-3,0
83596219795,-4,-1,0,0,-3,0,0,-5
83596241698,6,-2,-1,-1,-1,-4,3,3
83596241698,-2,0,-2,-12,0,-3,-2,2
83596242309,-3,-1,0,14,0,4,-2,-2
83596242309,-3,-2,0,7,7,-1,0,3
83596255785,0,0,0,-2,-1,1,1,-3
83596255785,0,0,-3,0,-4,-10,-3,-6
83596264041,3,-2,-2,-11,-1,16,1,-1
83596264041,-4,1,-1,-1,-2,-13,3,-10
83596279284,6,-1,-1,4,0,-3,-4,6
83596279284,-1,-1,-2,2,1,3,-3,-4
83596279834,0,-3,0,6,0,-4,-3,-2
83596279834,-3,14,2,4,1,8,2,5
83596301517,0,-5,-7,-6,-7,-4,1,-2
83596301517,-1,1,0,-7,-1,-5,-5,-12
83596302293,-4,-2,-1,18,-3,-2,-2,-4
83596302293,-4,1,2,29,3,2,-1,-2
83596315926,2,2,0,-23,-1,-5,-1,3
83596315926,0,-1,-6,-20,-10,6,0,-9
83596324069,7,0,-8,-63,-16,-10,0,5
83596324069,-5,-5,1,22,-1,-2,-4,-8
83596339113,0,-4,-2,-3,-2,-2,-3,-6
83596339113,-3,-2,6,32,10,3,-1,6
83596339764,0,1,1,-2,4,3,2,2
83596339764,0,-5,-11,-75,-20,-8,-3,2
83596361553,-3,-1,1,3,2,0,-3,-3
83596361553,2,0,0,-1,6,2,3,10
83596362272,2,1,8,83,11,-3,-1,-11
83596362272,-1,-5,-10,-47,-19,-3,-5,-3
83596384775,-2,-6,-8,13,-7,-6,-3,5
83596384775,0,-2,-6,-14,-7,-1,-1,2
83596385516,-3,-4,0,6,8,-2,1,-2
83596385516,1,0,6,-9,-3,-1,2,-1
83596400518,1,4,11,1,5,12,2,2
83596400518,-2,-1,1,73,1,-4,-1,1
83596401199,-3,-4,-6,-83,-11,-4,-4,-1
83596401199,2,19,9,58,8,5,1,3
83596421486,-6,-4,-11,-21,7,-3,-1,0
83596421486,5,-1,5,78,0,0,-1,-1
83596422290,2,1,-4,38,-11,-5,-4,-4
83596422290,12,-12,-22,104,-2,-12,-6,-6
83596444894,-1,4,-3,77,22,2,-2,-29
83596444894,-7,-3,13,55,38,8,7,29
83596445457,6,10,6,-39,-25,-4,-2,-4
83596445457,-1,-8,2,-14,-4,3,3,5
83596459243,-20,-26,4,-47,-15,-2,3,36
83596459243,13,1,10,-10,10,-2,-1,-5
83596459766,-3,-5,-1,-43,-10,-7,3,3
83596459766,-4,-4,15,30,14,4,3,3
83596481722,1,17,-1,1,-10,-5,2,-15
83596481722,0,-9,-8,-51,-9,-6,3,-6
83596482294,-2,-5,-1,40,11,0,2,7
83596482294,-1,0,-10,28,6,-2,-7,-10
83596504631,2,5,-3,-11,1,2,3,-8
83596504631,-9,-2,-16,-6,-11,-4,-7,-12
83596505436,-6,7,-9,14,4,1,-6,6
83596505436,-10,-7,-3,-21,2,3,-4,-1
83596518910,15,-5,-2,16,-4,-2,-8,5
83596518910,-6,1,-6,-43,-15,-3,-3,12
83596519725,-1,-7,-8,-4,-8,-3,-4,-7
83596519725,-16,2,-4,-38,0,-2,-5,-11
83596541676,5,-21,2,9,-1,-2,0,7
83596541676,-1,-2,-10,-53,-18,-3,-6,-45
83596542269,2,18,-1,-5,6,1,2,10
83596542269,11,-6,-2,-25,-5,0,0,5
83596564667,-19,-3,-5,6,2,-1,-7,-8
83596564667,7,4,2,18,5,1,-1,-7
83596565444,-7,1,3,-4,-2,-1,0,1
83596565444,-3,0,-2,-23,-4,-3,-4,3
83596579084,-14,-12,0,41,0,-1,4,-2
83596579084,7,13,2,-51,-14,-2,0,8
83596579826,0,2,9,29,9,0,2,6
83596579826,-4,-3,3,8,2,1,2,-7
83596601466,1,1,2,8,5,-2,-1,2
83596601466,-29,-1,-7,-14,-10,-3,-3,-25
83596602222,7,-5,2,25,8,0,-1,-8
83596602222,5,3,0,-3,0,-2,2,-4
83596624630,-7,14,-2,-21,-6,-1,0,-3
83596624630,23,3,3,15,4,-1,-1,20
83596625431,0,-16,-8,-11,-2,-2,0,-8
83596625431,-3,4,4,2,-4,1,0,3
83596638925,9,7,4,9,3,0,0,0
83596638925,-8,-6,1,38,3,2,1,1
83596639784,-8,4,3,0,3,-1,-2,-13
83596639784,9,-6,-3,-14,-3,0,2,10
83596669719,12,-1,-2,0,-1,1,-1,0
83596669719,0,-3,1,2,0,-3,-2,1
83596670467,3,7,3,5,7,1,1,-3
83596670467,-11,-2,-4,-17,-10,-4,-1,-3
83596684839,2,1,1,1,0,0,-3,-3
83596684839,-3,-10,-2,-4,-2,-1,-1,-1
83596685472,-26,-13,-9,4,-4,-5,-4,-1
83596685472,13,7,0,6,4,0,-2,-7
83596698995,-18,-6,-2,-8,-4,1,0,-1
83596698995,18,21,4,9,0,-2,0,7
83596699785,9,13,-2,-12,-2,-1,-4,18
83596699785,-3,-5,-6,-14,-3,-1,0,-17
83596721517,5,32,0,-2,-5,-3,-3,-2
83596721517,-5,-10,-6,-7,-2,0,-3,-2
83596722270,-10,-2,1,3,1,0,0,-2
83596722270,4,1,-2,1,-3,0,-2,16
83596744913,25,-20,4,16,6,1,2,2
83596744913,-8,-6,-1,-32,-11,-2,0,-1
83596745484,1,-9,1,11,-1,0,1,-6
83596745484,-18,0,5,23,7,-1,1,8
83596758998,-13,-6,-12,-82,-13,-4,-2,-10
83596758998,2,0,3,14,7,-1,-2,4
83596759796,14,4,2,1,1,5,1,-7
83596759796,10,5,-4,-4,-4,-3,-4,-2
83596781558,3,-17,-3,8,-2,0,-1,0
83596781558,-4,-1,-1,1,-1,-1,-1,-2
83596782342,0,2,-5,-23,-6,-2,-1,-3
83596782342,-4,14,5,3,1,0,-2,-2
83596804653,4,5,4,17,0,0,0,3
83596804653,-11,-2,-4,-2,-3,-3,-4,-16
83596805465,-5,-16,-2,12,0,1,1,-1
83596805465,11,-4,0,1,0,0,-2,-5
83596819167,1,12,2,1,-1,-2,-1,1
83596819167,-8,-42,-5,0,-2,-2,0,1
83596819776,4,6,0,5,4,-2,0,1
83596819776,-9,-20,-5,0,-7,-1,-1,20
83596841700,4,16,3,9,2,2,1,-13
83596841700,0,-8,-4,3,1,0,1,4
83596842311,2,-5,-1,-5,-1,-2,-1,-1
83596842311,-7,-9,0,20,3,0,1,-2
83596864912,-18,-12,-6,-26,-8,-3,-4,-3
83596864912,11,22,3,5,1,-1,0,5
83596865528,0,-7,-1,4,1,-1,1,1
83596865528,-5,1,1,3,1,0,0,-7
83596879205,-11,6,5,14,3,1,0,2
83596879205,-4,2,-3,-11,-3,-2,-3,-3
83596879742,3,1,-3,-3,-3,0,-2,0
83596879742,-3,-28,-2,-10,-3,-2,-2,-13
83596901462,2,-5,0,7,1,-1,1,6
83596901462,-2,0,-4,-23,-1,-1,-1,1
83596902243,7,-2,-1,4,1,0,-1,9
83596902243,-4,8,-1,-8,-6,1,-2,-6
83596924698,5,-22,-3,-1,-1,0,-1,3
83596924698,-12,-2,-2,0,-1,-1,-1,-3
83596925488,-1,2,-4,-6,-4,-3,-3,-6
83596925488,-13,4,-2,-3,0,-2,-2,-22
83596938551,-11,2,-1,7,0,-1,-3,2
83596938551,-5,3,2,0,1,-1,0,0
83596946679,2,-2,0,-1,1,-1,0,-6
83596946679,6,-2,-2,-21,0,-1,-1,12
83596961573,1,-1,-2,9,0,-1,0,-6
83596961573,-7,-2,-3,5,1,0,1,-2
83596962315,-11,-3,-4,-6,-4,-3,-1,1
83596962315,6,13,4,2,4,1,1,4
83596984906,2,2,0,-2,-1,0,-2,-1
83596984906,-1,0,1,-3,-1,0,-2,3
83596985485,-2,-2,0,6,-1,0,-1,-2
83596985485,2,-1,-3,-3,-1,-1,0,0
83596998282,0,-3,-4,-3,-1,-3,0,-1
83596998282,-3,20,0,6,0,0,-2,-6
83597006505,-5,-5,2,25,1,1,2,9
83597006505,4,5,1,-32,-4,-1,-1,-1
83597021423,-1,-1,-1,-5,0,-2,-2,2
83597021423,7,-3,-4,5,0,-3,-1,1
83597022202,-9,10,-1,-2,0,-2,-4,-18
83597022202,5,-2,-3,5,-3,-1,1,13
83597044911,-2,2,-2,-2,-1,-1,-1,-1
83597044911,1,-3,1,-2,-2,1,-2,-3
83597045452,16,-6,-4,-9,1,-2,-1,-3
83597045452,-3,3,1,9,3,-2,-1,-2
83597058560,5,-2,-3,-11,-3,-1,-3,-2
83597058560,-1,-2,1,7,1,0,-2,5
83597066524,-6,-7,-4,-11,-3,-3,-1,0
83597066524,-5,-11,-4,9,-1,-3,-3,0
83597081421,10,6,1,5,-1,-1,1,2
83597081421,-2,-23,-1,1,0,-1,-1,0
83597082282,3,-4,-2,-7,-3,0,-1,5
83597082282,-10,-16,-4,-2,-1,-1,-3,-6
83597104772,-8,0,-2,-2,-3,-1,-2,-3
83597104772,2,5,0,1,-2,0,0,3
83597105464,-4,-4,-1,-8,-4,-1,-1,-8
83597105464,5,5,-1,6,0,0,-2,4
83597118368,9,-5,-2,-3,1,-3,-2,-8
83597118368,-4,4,-2,-7,-2,-1,0,2
83597126465,11,-31,-5,-2,-3,-2,2,-13
83597126465,-7,10,2,5,3,3,1,2
83597141706,-6,0,-1,-2,-2,1,0,-1
83597141706,5,0,-3,-9,-4,-1,-1,-3
83597142245,3,16,1,1,0,0,-2,9
83597142245,6,-16,-2,1,-1,-1,-2,-3
83597164894,-4,-8,-1,0,0,-2,1,3
83597164894,-8,-1,-2,8,1,-1,-2,0
83597165508,-9,7,-2,-8,-3,-1,-2,2
83597165508,1,15,2,-1,0,-3,0,-4
83597178357,-10,-1,0,0,-2,0,-2,-2
83597178357,5,2,-1,-3,-3,-3,-2,11
83597186632,-4,0,2,3,1,-1,0,0
83597186632,-5,2,-1,0,-3,0,1,-6
83597201560,0,0,-1,0,-1,-2,-1,1
83597201560,-1,-3,-1,0,-1,-2,-1,-5
83597202249,-7,-8,-3,-5,-3,-2,-4,-4
83597202249,-2,0,-4,-2,-2,-2,-1,2
83597224749,-4,-11,-3,-1,-2,0,-2,-4
83597224749,-3,-4,-4,-6,-1,0,-1,-3
83597225494,-6,5,0,1,-2,0,-1,0
83597225494,8,-8,-1,0,-1,-2,-2,-1
83597238536,-7,2,-2,0,-2,0,-1,-18
83597238536,2,-1,0,5,1,-2,-1,-7
83597246571,-2,0,0,-1,-1,-1,1,-4
83597246571,-3,1,-2,-14,-3,-2,-1,7
83597261690,-3,1,1,-1,1,-2,0,-3
83597261690,1,0,0,-2,-1,0,-1,3
83597262276,-1,-21,-4,0,-1,-1,-1,-2
83597262276,-33,-11,-5,0,-1,-3,-4,0
83597284908,6,19,3,1,-1,0,-2,1
83597284908,5,-15,-1,-3,-3,-1,0,-1
83597285432,-5,5,1,-4,-2,-2,-1,4
83597285432,23,3,0,2,0,0,0,-3
83597307247,2,-5,3,-3,-1,-1,0,6
83597307247,-4,7,-1,1,-3,-1,1,-4
83597307984,-2,2,-2,-2,-1,-1,0,-1
83597307984,4,-1,0,1,-1,-1,-2,-4
83597321623,-1,4,0,2,-2,-1,-1,1
83597321623,4,2,-1,-5,0,-1,-1,1
83597322323,6,-4,-1,-1,-1,-1,-1,-1
83597322323,-2,2,-1,-1,0,-1,-2,27
83597344743,0,-6,-4,-2,-1,0,1,-5
83597344743,3,5,2,3,0,-2,-1,-6
83597345439,0,11,0,5,-1,-2,-1,-1
83597345439,-7,10,1,-16,-4,0,-2,7
83597374868,-5,-21,-2,0,1,0,1,4
83597374868,-5,-2,-5,-3,-3,-1,0,-3
83597375438,-4,0,-2,-4,0,-2,-4,-4
83597375438,5,3,0,7,-3,0,1,-9
83597381559,3,16,0,-2,-2,0,-2,2
83597381559,-17,-13,-3,-3,-1,0,-1,-3
83597382294,-8,7,0,2,0,1,-2,-1
83597382294,-9,-9,-2,0,-2,-1,-2,-11
83597404829,2,1,-3,-6,-3,-2,-1,2
83597404829,12,3,0,4,1,0,-1,-4
83597405487,0,-2,-2,-3,-4,-1,-1,1
83597405487,-2,-4,-1,1,0,-1,-3,-4
83597427370,2,8,1,0,-1,-2,-1,0
83597427370,6,-23,-4,-2,0,-2,-2,22
83597428064,8,-3,-3,-1,-1,0,0,-17
83597428064,-3,-31,-2,-2,0,-1,0,-2
83597441534,-1,-5,-3,-3,-2,-2,-4,-1
83597441534,-6,5,-1,1,-1,0,-3,-2
83597442244,1,-1,1,-2,-1,-2,-1,4
83597442244,-8,-1,-2,2,0,0,-1,-12
83597464914,4,-3,-1,-3,0,-2,-1,4
83597464914,-11,-9,-2,-2,-2,-1,-2,-7
83597465487,2,5,0,0,-1,1,-1,6
83597465487,-5,8,1,1,-1,-1,-3,-17
83597487332,18,-5,1,0,0,0,-1,6
83597487332,11,11,-5,-4,-2,-2,-1,-2
83597487934,-4,-2,-2,-1,1,-1,-2,2
83597487934,16,-22,-5,-2,-1,-2,0,3
83597501465,-6,18,1,1,0,0,0,-4
83597501465,-5,-9,1,0,-1,0,-1,-2
83597502260,0,-2,0,-1,-1,0,-2,1
83597502260,5,9,-2,0,-2,-1,2,2
83597532362,-3,1,-3,-3,-1,-1,-1,-2
83597532362,-2,4,2,1,-1,-1,-2,-28
83597532945,-6,-5,-2,-4,-1,0,0,3
83597532945,-3,5,0,4,0,-1,0,4
83597547380,-2,-8,-2,0,-4,-1,0,-2
83597547380,-2,8,3,1,0,-1,-1,4
83597547954,5,6,-1,0,0,-2,-1,-6
83597547954,-9,-7,-1,-3,1,1,-1,3
83597561576,20,0,-1,0,-1,0,-3,2
83597561576,4,4,0,-1,-1,0,1,4
83597562288,-3,14,-1,0,-2,-2,-1,-1
83597562288,3,-7,0,-1,0,-2,-1,1
83597584771,-18,-5,-5,-4,-2,-1,0,-5
83597584771,-21,2,-1,-2,-2,0,-2,-1
83597586222,-8,-16,-4,-2,-3,-4,-3,4
83597586222,-2,14,2,0,0,1,-1,-4
83597607160,-3,-5,0,-1,-1,-1,-1,-2
83597607160,-1,-6,-3,-1,-1,-1,-1,0
83597608758,-3,-6,-1,-3,-3,-2,0,-2
83597608758,-3,4,-1,-2,-1,-1,-1,0
83597629644,-11,-6,-2,-3,-2,-4,-3,-6
83597629644,7,4,-1,0,2,-2,0,-2
83597631321,-1,5,1,1,-1,0,-1,2
83597631321,14,-20,0,0,-1,-1,0,-3
83597644903,-6,-22,-4,-2,-1,-1,-3,2
83597644903,-4,1,-1,-1,-3,-2,-1,0
83597646318,-6,-6,-1,-1,2,-1,-2,-1
83597646318,-3,29,-1,-3,-1,-1,-2,-2
83597667156,-6,0,-1,-1,0,-1,-1,-1
83597667156,5,-3,-2,0,-1,-1,1,2
83597668819,-5,-10,-5,-2,-2,-2,-1,-3
83597668819,-3,12,1,0,0,-2,0,0
83597680930,9,0,-1,-1,-1,0,-2,0
83597680930,-14,12,0,-1,-2,-2,-1,4
83597689794,-3,6,0,0,-1,-2,-2,-3
83597689794,5,0,-2,-2,-2,-1,-2,11
83597704797,6,2,0,0,0,1,2,5
83597704797,4,-11,-1,-1,-2,0,0,-1
83597706309,-3,-9,-2,-1,-1,-1,0,-2
83597706309,-13,-12,-6,-2,-2,-3,-3,0
83597727184,-11,0,3,-1,0,-2,-2,-7
83597727184,3,5,-3,-2,0,-1,0,2
83597728812,10,3,-1,-2,-2,0,0,8
83597728812,-5,-5,-1,-2,-1,-1,-3,-6
83597740816,-7,1,0,1,0,-1,0,-3
83597740816,3,-4,-2,-3,-3,-2,-3,-3
83597749788,-1,2,0,0,0,-1,-2,0
83597749788,-3,-4,0,-1,-2,0,-2,-2
83597764656,7,-1,-3,-1,0,0,1,6
83597764656,-4,-12,0,-2,0,0,-3,-2
83597766229,2,-6,-4,0,-2,0,-1,-6
83597766229,-10,11,1,2,0,0,0,-7
83597787156,-4,0,-1,-2,-2,-1,-1,3
83597787156,-19,-29,-9,-3,-2,-2,-5,-15
83597788752,2,3,3,-1,-2,1,-1,-4
83597788752,8,10,0,0,-1,-1,-2,-1
83597809604,-2,4,-1,-2,-2,-1,0,-5
83597809604,0,4,1,-1,1,0,0,5
83597811239,-4,16,0,2,1,-2,-1,-1
83597811239,-4,-16,-3,-2,-2,-1,-1,-2
83597824600,-5,-2,-2,-2,-1,-1,-3,-3
83597824600,14,7,1,1,-1,0,1,15
83597826239,-1,6,0,1,1,1,0,-1
83597826239,3,2,0,-1,-1,-3,0,0
83597847132,2,0,-3,-2,-2,-2,-2,-1
83597847132,-3,-1,-1,-1,-2,-1,-2,-5
83597848744,0,-8,0,-1,-2,-1,-3,-1
83597848744,-4,-5,-3,-2,1,-1,-2,-4
83597860754,-17,-12,-5,-4,-3,-2,-3,2
83597860754,-12,-18,2,2,1,-1,-2,4
83597869754,-2,-7,-3,0,-1,-2,0,2
83597869754,-15,-6,-2,-2,-3,-1,-3,-14
83597892160,-8,-5,0,2,1,0,0,-5
83597892160,10,15,1,-2,-4,-1,0,-2
83597893806,-1,-3,-1,-2,-1,-2,-3,-1
83597893806,1,-6,-2,-2,-2,0,0,5
83597907174,4,4,-3,-1,-1,-1,-2,-4
83597907174,-1,19,-1,0,-1,-2,-3,-1
83597908779,1,-7,-1,-1,0,-1,-3,1
83597908779,8,6,-1,-1,-1,-1,0,0
83597920812,0,1,0,-1,0,0,1,1
83597920812,10,5,-3,-1,1,-2,0,1
83597929773,-4,-2,0,-2,-2,-1,1,-4
83597929773,0,2,0,-1,-1,1,-1,10
83597944745,3,-23,0,0,-2,-1,-2,-1
83597944745,-13,-5,-1,-1,-1,-2,-1,-7
83597946319,14,-1,-2,-1,-1,0,-1,-4
83597946319,0,3,1,2,-2,0,1,6
83597967305,21,9,-1,0,-1,-2,-1,21
83597967305,4,0,-1,-2,-2,0,-1,-10
83597968752,-1,-5,0,-1,-1,-1,-1,1
83597968752,0,-1,-1,-2,-1,-1,-1,-6
83597980846,-17,3,-5,-3,-2,-2,-3,-5
83597980846,7,1,-2,0,0,-1,-1,5
83597989812,-3,3,2,-1,0,-1,0,0
83597989812,3,-2,-4,-2,-1,-2,-2,5
83598004654,-12,-11,-2,-1,0,-1,-1,-13
83598004654,-1,0,-1,0,-4,-1,-2,6
83598006228,-5,-1,-3,0,-1,-1,-1,4
83598006228,22,18,2,0,-1,1,-1,-4
83598027225,9,5,0,-1,-1,0,-2,-12
83598027225,-3,4,0,-1,0,1,0,-3
83598028740,-12,-9,-1,-2,0,-2,-3,-15
83598028740,-8,-5,0,-2,-1,-2,-2,-4
83598040905,4,16,0,-3,-1,-3,1,1
83598040905,-5,-6,-1,-2,-1,-1,-2,-8
83598049776,-2,7,-2,-1,-2,-3,0,5
83598049776,-2,-6,-2,-2,0,-1,-2,-3
83598064682,-2,-3,0,-2,-1,0,0,0
83598064682,1,-5,-1,0,0,-2,0,3
83598066373,-3,-1,-1,-2,-1,0,0,-2
83598066373,-1,-4,0,0,-2,-2,-1,-1
83598094656,0,-4,1,0,0,-1,-1,-4
83598094656,-5,2,1,1,-1,-2,-1,1
83598096239,22,24,2,-1,-1,0,0,1
83598096239,-6,-11,-6,-3,-1,0,0,-3
83598100866,3,5,-2,2,-2,-2,1,1
83598100866,-12,-3,-4,-4,1,-2,-2,-9
83598109783,-9,2,-1,-1,-2,-2,-2,-10
83598109783,4,-4,0,0,-1,-1,-1,25
83598124855,-4,1,1,2,1,0,1,-7
83598124855,2,0,-2,-3,-1,-1,-1,-3
83598126340,-10,-13,0,-1,-2,-2,-1,0
83598126340,-8,18,0,-1,0,-2,-1,-7
83598147326,6,-46,-2,-2,-1,-1,-2,0
83598147326,-1,-4,0,1,-1,-2,-1,-1
83598148809,-1,-1,-1,-2,0,0,-2,1
83598148809,-4,0,0,-1,0,-2,-1,-9
83598160798,-9,13,-3,-2,-1,-1,-2,3
83598160798,5,-20,-1,-2,0,-2,-1,1
83598169854,-4,-11,-2,-2,-2,0,0,3
83598169854,-4,-4,-1,0,0,-3,1,-6
83598184657,-5,5,-1,0,-2,-3,-2,-1
83598184657,-1,3,-3,-1,-2,1,-1,0
83598186273,0,2,-2,0,-2,0,0,1
83598186273,-3,-11,-2,-1,-1,-1,-1,-3
83598207157,0,5,1,-2,-1,-1,-1,3
83598207157,6,10,-3,-2,-1,-2,0,-2
83598208732,-1,-5,-1,-2,-1,-2,-1,-4
83598208732,3,2,-1,-1,-1,-1,0,17
83598229642,-2,1,-1,-2,-1,-1,0,-11
83598229642,0,0,1,-1,-2,-1,0,3
83598231241,-2,-4,-3,-2,-2,0,-1,-2
83598231241,14,-33,-6,-5,-2,-2,-3,-1
83598244645,1,14,2,0,1,-1,0,-1
83598244645,-5,-7,-1,-2,-1,1,-1,-2
83598246273,5,0,-2,0,0,-2,1,6
83598246273,-3,1,0,1,-2,0,1,-9
83598267389,-1,1,-1,-1,-1,-1,-1,-2
83598267389,-3,0,-1,-1,-1,0,-3,-6
83598268789,6,0,-2,-1,-1,-1,-1,7
83598268789,-6,4,1,0,0,2,0,-5
83598289672,0,-4,0,-3,-2,-1,-1,0
83598289672,1,6,1,0,0,0,0,3
83598291314,-3,0,-3,-2,-1,-2,-2,-2
83598291314,-5,2,0,-1,0,-1,-1,-6
83598304669,-11,-4,-4,-1,-2,-2,-2,8
83598304669,-8,-4,-1,1,-1,-1,-2,-21
83598306378,-2,1,1,1,0,0,-2,-3
83598306378,-3,12,0,0,-2,-2,-2,-1
83598327167,-1,-16,-1,0,0,-1,-2,-7
83598327167,-13,-3,-4,-3,-3,-2,-1,2
83598328762,-1,1,1,0,-1,-2,-2,-1
83598328762,-4,2,-1,-1,-3,-1,-2,-6
83598349657,1,2,-2,0,-1,-1,0,2
83598349657,-23,-2,-5,-2,0,-3,-1,0
83598351282,-1,-6,-1,-2,0,-1,0,-2
83598351282,2,7,0,-3,-1,-2,0,4
83598364747,-2,-26,-2,1,0,0,-3,-3
83598364747,11,-1,-2,1,-2,-1,0,4
83598366273,-15,-2,-3,-2,0,0,-2,-6
83598366273,-1,5,-1,0,0,0,-1,-3
83598387247,2,9,-1,-1,0,1,-1,0
83598387247,9,5,3,-1,-2,-1,0,11
83598388817,2,-7,0,0,-2,-1,-2,-14
83598388817,0,-5,-2,0,-2,-3,-1,-3
83598409665,1,6,-1,-3,-2,0,0,1
83598409665,7,-1,-1,-2,1,0,0,-1
83598411260,0,3,-1,0,0,-2,0,6
83598411260,-6,15,-2,-5,-4,-2,-2,-4
83598424225,-2,8,2,1,-2,0,-1,-9
83598424225,22,0,-3,-1,-1,0,0,6
83598430861,1,-5,-3,-2,-1,-1,0,2
83598430861,-7,-5,-1,-1,0,0,0,-2
83598447347,1,3,1,-1,0,-2,-1,2
83598447347,-10,-18,-1,0,-2,-2,-1,-6
83598448821,-1,3,1,-1,0,-1,-2,1
83598448821,6,-7,-2,-1,-2,0,-1,10
83598469644,-3,0,-4,2,-1,-2,-1,-2
83598469644,-7,7,-2,-1,0,-2,-3,-7
83598471260,-1,-10,-3,-1,-3,0,-1,-1
83598471260,-6,-6,-1,-2,0,-1,-2,-7
83598483927,-4,6,1,-2,-2,0,1,3
83598483927,6,8,2,1,-1,-2,0,-1
83598490769,0,-4,-2,-2,-1,-1,-1,4
83598490769,-11,-6,-1,-1,-2,0,-2,-24
83598507123,12,4,-1,-1,-1,-3,0,4
83598507123,0,-4,-1,-3,-2,-1,-2,-2
83598508730,-2,11,0,0,0,-2,0,-3
83598508730,4,-16,-2,0,-2,-1,-1,6
83598529738,0,-1,-1,-1,0,0,-2,-2
83598529738,-5,2,-2,0,-1,-1,0,-5
83598531351,-3,4,-1,1,0,-1,0,1
83598531351,2,26,-3,-1,-1,-3,-3,8
83598544149,11,-10,2,0,-1,0,-1,4
83598544149,-1,-3,-4,-4,-3,-1,-2,1
83598551018,2,-4,-2,-2,-2,0,-3,-7
83598551018,-6,1,0,0,-1,-2,2,-1
83598567396,-1,-1,-2,-1,-2,-1,-2,-6
83598567396,-29,1,1,2,0,-1,0,6
83598568810,7,3,1,0,-1,-2,-2,-3
83598568810,2,-9,-2,-1,-3,-1,-2,-3
83598589657,1,5,-1,-1,-2,-1,-1,0
83598589657,12,-4,-1,1,-1,0,1,15
83598591282,3,12,2,-1,-1,-1,-1,-8
83598591282,0,-33,-2,0,-1,0,0,5
83598612392,-4,-1,-2,-2,-3,-2,-2,-7
83598612392,2,5,0,-2,1,0,-2,-1
83598613817,-2,-2,1,-1,0,-3,-1,3
83598613817,5,5,1,-1,-2,0,0,0
83598627178,-14,-13,-3,-2,-1,0,0,-3
83598627178,2,-11,0,0,0,-2,0,-6
83598628731,5,-3,-2,0,0,1,-1,5
83598628731,-8,2,-1,0,0,-1,-1,2
83598649902,-9,-9,-4,-2,-3,-3,-3,1
83598649902,3,12,3,0,0,-1,-1,-8
83598651294,-10,-12,-2,-2,-2,1,1,1
83598651294,2,-2,1,0,0,-1,-2,0
83598664004,0,10,1,-2,-1,-2,0,-3
83598664004,1,-2,0,-2,-1,-1,-2,4
