timestamp,emg1,emg2,emg3,emg4,emg5,emg6,emg7,emg8
116950572251,-2,-1,-5,-6,-3,-2,1,-1
116950572251,-2,-1,1,3,-2,-3,0,-1
116950573022,-1,-2,-4,-2,0,-1,-4,0
116950573022,0,0,0,-2,-1,0,1,0
116950576417,0,1,-2,0,1,-1,-3,-1
116950576417,-3,-3,-4,-3,0,0,-1,-2
116950577188,0,-1,1,-1,-1,-1,-1,-2
116950577188,-2,-3,-2,-2,-3,-3,-3,-1
116950584511,-1,0,3,6,-2,-5,-4,0
116950584511,2,1,1,-5,-1,6,1,1
116950598317,-3,-3,-2,-3,-1,1,-1,-4
116950598317,-2,-1,-3,-2,-2,-2,-1,-2
116950609279,0,-3,-1,1,-4,6,1,-2
116950609279,-2,-1,-2,-1,0,-12,-2,-2
116950612868,-3,-2,-1,1,-1,3,0,0
116950612868,-1,-1,1,-2,0,0,3,7
116950624306,-1,-3,-1,-1,-5,-8,-4,-4
116950624306,-4,-2,-1,1,1,-2,-1,0
116950636606,-2,1,-2,-5,-5,-3,0,-2
116950636606,-2,-2,-1,1,0,-6,-6,0
116950644327,2,0,-4,-1,4,3,3,0
116950644327,0,8,1,-2,-6,1,-1,1
116950658543,-1,-2,-2,-1,4,3,1,0
116950658543,0,0,0,1,2,6,1,-5
116950666458,-6,-3,-2,-7,-3,-5,-8,-3
116950666458,3,1,1,-2,-2,-15,-4,4
116950706156,1,15,-1,0,-6,-7,2,0
116950706156,-1,-3,-3,-1,3,4,-6,-2
116950706907,-1,5,0,2,-1,0,4,-6
116950706907,-1,0,3,3,-2,-2,4,4
116950707738,2,-5,-9,-10,0,-4,-4,3
116950707738,-14,0,2,1,-3,-3,-7,-15
116950710155,1,-2,-6,-8,-7,-7,7,57
116950710155,-8,-8,0,1,9,14,-6,-20
116950718357,11,-3,3,6,0,4,7,29
116950718357,11,2,-2,2,0,5,5,1
116950725172,-1,-12,-1,-4,-7,-14,-9,-21
116950725172,-2,1,-3,-2,-5,-12,-3,10
116950732623,8,0,-1,3,-2,-8,-20,-7
116950732623,-1,13,0,-8,-3,4,11,14
116950755811,-7,-4,1,-2,1,3,12,-27
116950755811,-6,-9,-6,-3,-7,-2,-3,53
116950756620,-12,-4,2,0,8,-8,-9,-38
116950756620,14,10,0,2,8,9,3,15
116950770397,31,5,-2,-1,0,10,-2,13
116950770397,-49,-11,-4,-5,-10,-26,-8,-47
116950778641,-2,-9,-6,-2,-9,7,-7,-18
116950778641,-7,-9,-2,-1,-4,14,5,20
116950793374,-13,-5,-2,-4,7,-5,-8,-29
116950793374,31,14,1,0,2,4,-1,7
116950794152,-22,1,3,-3,-3,-6,7,8
116950794152,-13,-5,1,3,6,-6,-1,-25
116950815828,1,0,-2,-2,0,9,-3,4
116950815828,8,6,1,0,-3,-5,0,-39
116950816614,6,0,0,2,-5,7,7,42
116950816614,2,-8,-11,-12,-11,-24,-17,-13
116950838997,-20,0,7,9,5,1,4,-10
116950838997,27,-3,-7,-18,-6,-4,0,33
116950839798,-51,-11,-2,0,2,-4,-12,-74
116950839798,-2,-2,3,4,-6,-1,11,18
116950853342,-1,0,-8,0,0,-2,-15,11
116950853342,3,2,9,12,3,32,5,12
116950854211,16,5,0,-6,-4,-41,7,6
116950854211,-5,-2,-1,1,6,-6,-1,-18
116950875828,7,8,0,3,0,31,2,-1
116950875828,-20,-34,3,-3,-1,-10,-2,-25
116950876620,5,6,-2,4,-1,-2,-9,22
116950876620,7,-8,-6,-8,-9,13,13,-4
116950899024,4,1,3,2,3,-18,-15,-6
116950899024,17,13,-2,1,0,-12,13,15
116950899832,1,-8,1,-1,8,10,-2,16
116950899832,13,0,-3,-2,-2,6,6,8
116950913328,1,-4,-6,-6,0,19,8,29
116950913328,-9,7,-1,-1,-11,-3,-4,20
116950914158,-8,-21,-7,-6,5,-33,-18,-4
116950914158,-1,2,5,9,1,-17,8,9
116950935814,2,-7,-5,-7,-13,-9,-7,-31
116950935814,11,0,-2,3,11,32,26,43
116950936588,13,16,-3,-7,1,-1,-3,-44
116950936588,-4,-4,5,-3,-2,1,-7,20
116950959048,22,1,-2,-9,-15,-18,-2,14
116950959048,-22,-9,-15,-12,-11,-24,-16,-88
116950959856,26,6,-3,4,-2,13,4,20
116950959856,-1,7,-4,0,13,30,2,-17
116950973568,-23,-12,-5,3,-2,-21,3,-18
116950973568,16,9,1,3,5,-1,-8,34
116950974278,-9,-8,5,2,-2,28,1,-8
116950974278,11,-8,-13,-9,-21,-47,-2,18
116950996097,-10,4,11,10,12,27,-13,20
116950996097,-18,-8,-21,-23,0,-2,-1,-25
116950996690,18,-1,-2,2,0,12,10,12
116950996690,4,2,9,6,-4,-22,-7,1
116951019179,-15,7,6,6,11,13,1,25
116951019179,-3,8,-1,-2,-7,7,9,-19
116951019902,6,-3,6,3,5,5,17,17
116951019902,4,-3,-2,0,-7,4,-10,-14
116951033452,-2,2,1,-2,-3,-19,-10,6
116951033452,10,6,8,11,13,7,4,-9
116951034244,-7,3,1,-4,-3,-2,6,36
116951034244,-12,3,0,-4,-5,-7,-12,-22
116951056025,7,-5,-4,2,-2,-10,4,-24
116951056025,8,0,2,7,0,-1,-18,21
116951056730,-18,-8,-5,-6,-1,5,3,-36
116951056730,-6,9,7,-1,2,4,-10,-7
116951079245,-6,-7,-5,-7,-2,-5,14,-7
116951079245,14,-5,1,0,3,-2,-4,4
116951079890,-12,-1,2,0,-8,10,-3,-7
116951079890,14,4,4,4,4,3,6,48
116951093404,-2,4,3,10,5,8,1,-6
116951093404,1,-1,-4,-14,-3,-6,-4,-1
116951094331,-4,-4,-5,-5,-1,-10,-13,9
116951094331,-9,-7,-5,-3,5,7,4,-17
116951115959,-1,-1,4,1,-12,-8,-1,-13
116951115959,-7,-7,-9,3,-8,-5,-3,8
116951116708,3,1,-4,-15,2,-3,-9,-9
116951116708,-9,2,-4,-3,-7,-1,-6,-15
116951139229,-6,-1,-3,8,13,3,3,-9
116951139229,-3,3,6,14,0,-5,-6,-2
116951139824,7,4,2,6,-2,0,6,-1
116951139824,0,-5,-2,-5,-5,-4,-7,-9
116951153551,-5,-4,-13,-22,-7,-6,-5,-2
116951153551,6,3,8,-3,-6,1,8,34
116951154345,-7,1,5,6,-2,3,2,-38
116951154345,-3,-9,0,22,16,6,5,6
116951176353,-4,-1,1,-37,-32,-7,-5,-1
116951176353,2,-2,-8,-8,2,-2,-2,-16
116951177117,-13,1,-4,-3,-4,-2,3,10
116951177117,-6,-6,-4,-14,-7,-4,-7,-17
116951199202,-2,4,7,16,7,1,-1,-6
116951199202,3,1,4,5,2,1,-2,-3
116951199937,13,2,4,4,6,4,-4,18
116951199937,-8,-19,-2,6,1,5,13,5
116951213533,19,2,-12,-20,-1,-1,5,10
116951213533,-7,-8,19,18,5,4,7,12
116951214375,11,-21,-19,-9,-8,-9,-14,-43
116951214375,-10,-3,-4,0,-4,2,-12,38
116951235896,25,8,6,13,8,4,18,27
116951235896,10,-1,0,-11,-4,-7,-6,-39
116951236716,-31,2,2,-8,-7,-1,9,-16
116951236716,-25,-3,-18,-13,-2,-8,-15,-67
116951259068,-9,-4,4,9,-3,-3,-3,29
116951259068,-1,5,-12,-9,0,0,-2,-20
116951259872,-10,-3,-3,-1,-3,-2,-3,38
116951259872,-3,6,2,5,-8,0,-12,-35
116951273596,-13,-5,-4,-10,8,-26,-14,-28
116951273596,-18,3,1,-6,9,18,13,36
116951274307,23,-9,10,3,4,17,14,29
116951274307,9,3,-7,0,-16,7,-11,19
116951296077,-27,-8,4,5,-8,-25,10,-57
116951296077,15,-11,1,7,-2,-5,-16,75
116951296668,6,15,12,0,9,8,25,16
116951296668,7,2,7,8,21,9,10,20
116951319270,18,-16,-10,-3,-20,37,-10,-68
116951319270,-47,6,-3,-10,-9,-32,20,16
116951319905,-2,8,3,8,-4,-32,-89,-89
116951319905,23,0,3,-3,10,98,65,93
116951332864,-7,0,-4,5,19,-37,-8,-1
116951332864,-13,-7,-8,-9,-14,-46,-26,-60
116951341146,3,2,1,4,5,10,46,42
116951341146,13,1,-1,-12,-9,-32,-23,44
116951355902,0,-2,0,3,12,36,-10,-12
116951355902,-20,-9,-12,-3,-33,2,-16,-34
116951356811,7,-1,-5,-2,-5,-21,7,13
116951356811,-40,-3,3,7,-1,-9,-15,-48
116951379253,-1,0,-9,-22,-2,2,16,39
116951379253,5,-4,1,4,1,-15,-7,1
116951379892,0,4,1,-1,13,21,10,-2
116951379892,-4,-1,3,-7,1,-10,-4,-35
116951392678,26,-8,-1,2,-7,-14,-14,22
116951392678,-16,2,2,7,12,19,7,-52
116951400848,6,1,-2,6,-3,7,-6,16
116951400848,11,5,8,-1,-1,-12,-7,-26
116951415843,14,6,2,-8,0,-6,18,45
116951415843,22,-14,-3,2,5,15,2,-22
116951416612,-39,-10,-9,-4,-8,-9,0,-4
116951416612,-2,-7,4,9,4,-20,2,10
116951439280,-10,3,-4,0,-6,0,1,-17
116951439280,3,6,5,1,12,19,7,20
116951439882,5,1,-5,-7,-7,-5,-7,-8
116951439882,1,-1,-4,-1,-3,-14,-8,-23
116951452860,-1,2,5,7,0,7,-7,10
116951452860,-1,2,3,1,-5,-4,-6,-8
116951460861,8,-13,-1,4,2,-6,-13,9
116951460861,-8,3,1,-9,-8,-4,5,-25
116951477289,7,5,-1,3,4,3,2,12
116951477289,4,4,-2,-4,-1,2,-5,14
116951478063,-9,1,4,3,-6,0,-9,-40
116951478063,4,-1,-2,0,4,-4,-2,1
116951499252,-13,-3,2,9,0,-4,-3,5
116951499252,30,9,2,-8,-1,-1,-1,3
116951499879,-38,-7,-5,-3,-3,0,-2,-22
116951499879,-3,0,4,-6,-1,-9,4,5
116951512949,-10,-1,-5,0,-1,-2,-9,-17
116951512949,0,0,-5,-5,0,6,8,19
116951521169,17,-2,2,-2,-2,-2,5,0
116951521169,4,3,0,1,-3,-6,-7,2
116951535952,-11,0,0,5,-2,1,1,-1
116951535952,3,-6,-3,0,5,2,0,15
116951536693,12,0,-10,-13,-9,-3,-3,-2
116951536693,-21,1,1,1,-2,-8,-3,-10
116951559231,5,2,3,-3,-1,6,-1,-4
116951559231,-11,5,2,3,7,-2,0,-8
116951559861,9,4,10,18,-2,4,5,18
116951559861,14,-15,-36,-34,-15,-5,-3,1
116951581617,-2,1,-3,-3,-7,0,-3,0
116951581617,-6,1,-1,1,-1,-3,7,-7
116951582364,4,5,1,2,1,-2,5,19
116951582364,4,-8,9,8,1,-4,-3,-15
116951595799,7,-2,-7,-9,1,2,-2,4
116951595799,14,-5,-5,-1,-3,0,2,23
116951596867,-8,3,8,8,6,4,-5,-19
116951596867,4,3,2,5,5,1,3,-1
116951619343,-4,-2,-13,-21,-12,-6,7,9
116951619343,-8,-5,1,8,1,-4,-37,-85
116951619888,-11,15,-12,-20,-12,-6,-2,25
116951619888,-5,-12,4,7,4,-1,-22,-72
116951632880,-20,3,10,17,3,6,8,-2
116951632880,-5,-7,-15,-12,-2,-7,-4,5
116951640960,21,6,3,9,4,5,50,-17
116951640960,9,10,-1,1,2,2,11,80
116951656031,-23,8,3,3,3,21,-22,-104
116951656031,5,1,0,-1,-1,-13,-13,18
116951656742,-22,-5,1,2,-12,-19,3,-29
116951656742,20,0,-10,-17,-7,12,-27,32
116951677742,-1,-5,1,1,-5,-38,40,-17
116951677742,-2,-3,10,13,19,29,7,17
116951686701,-5,-9,-1,4,5,6,-10,1
116951686701,11,-9,-7,2,-5,8,12,-45
116951701597,0,-5,4,1,-10,3,-51,45
116951701597,-13,0,1,-4,1,-22,34,12
116951703300,27,-5,1,-1,2,7,-4,10
116951703300,-19,2,2,7,6,0,8,19
116951724215,11,0,0,1,1,-8,1,-3
116951724215,1,1,1,4,-7,-8,-16,-12
116951725711,-3,-3,-9,-12,-1,3,0,14
116951725711,-6,2,-4,-5,-8,-10,-9,8
116951737880,5,-1,-1,1,-2,-4,0,-1
116951737880,-10,4,1,-8,-12,-1,-1,-7
116951746687,4,-12,-7,-8,-3,-3,-8,18
116951746687,-6,0,5,4,1,1,3,-14
116951761797,2,-2,-4,-5,0,-6,1,7
116951761797,7,0,-3,-1,2,8,5,-1
116951763198,-2,0,0,1,-5,1,-5,-2
116951763198,-5,0,3,-3,0,-6,2,-3
116951784002,0,-5,0,6,4,3,0,7
116951784002,0,-1,-1,-5,-5,3,4,4
116951785588,-4,0,-4,-5,4,-4,-10,-3
116951785588,-4,0,4,18,-4,-3,1,-2
116951797896,2,-2,-5,-21,0,5,4,15
116951797896,-3,-3,0,11,-4,3,-2,-8
116951806615,-2,0,0,-2,1,-7,-6,-3
116951806615,0,2,-4,-42,-2,-4,4,0
116951821321,1,-1,-4,-12,2,3,3,3
116951821321,2,-2,2,14,0,-1,0,0
116951827718,-1,1,2,20,2,0,-5,-4
116951827718,-3,4,0,-18,7,-1,3,1
116951845514,3,-10,-7,21,-12,-4,-7,1
116951845514,-1,1,2,47,5,6,4,-1
116951847107,-3,-4,-11,-96,-22,-14,-6,4
116951847107,-4,0,-9,17,-2,-1,-3,-5
116951857763,-4,1,2,13,1,10,3,0
116951857763,-3,-2,-5,-32,-2,6,-1,-1
116951866734,1,-2,8,94,17,-12,-3,-4
116951866734,-6,-6,-1,-61,-13,-6,8,2
116951880956,16,1,-1,23,4,0,-2,6
116951880956,-10,-5,-3,-43,-4,-4,-13,-4
116951887878,0,2,1,36,4,22,16,-1
116951887878,1,-2,-4,-49,-4,-13,-8,0
116951904224,-7,-3,-6,-25,-14,-1,-1,-6
116951904224,-2,1,-3,20,-1,-3,1,2
116951905679,5,0,0,-11,2,4,-4,2
116951905679,-4,0,9,92,3,-8,-3,0
116951917678,-9,0,-18,-106,-10,2,-2,-2
116951917678,6,4,-2,15,-3,-6,-5,-6
116951926637,-4,-1,0,-24,-3,-17,2,-4
116951926637,4,2,8,74,9,12,2,-3
116951941583,-1,3,7,6,6,-7,-2,-3
116951941583,0,-3,-2,-2,-2,7,5,1
116951943224,-2,-1,-5,26,3,8,-1,3
116951943224,-3,-1,-3,-30,-10,-9,-7,-2
116951964054,0,-1,8,65,13,-2,1,1
116951964054,0,-2,-5,-41,-10,-6,4,2
116951965610,0,1,6,37,13,12,1,0
116951965610,0,-3,-8,-28,-9,-4,0,0
116951977747,-2,-1,0,21,-1,2,0,1
116951977747,0,-5,1,-39,-5,-1,-4,-5
116951987337,-4,0,-4,-2,-1,-10,-6,-1
116951987337,3,-16,-11,-63,-8,9,-1,-3
116952009061,-13,-5,3,71,5,-22,0,-4
116952009061,10,2,-1,-25,1,19,3,10
116952010638,-7,2,0,14,-3,-9,-6,-3
116952010638,-2,3,5,-24,11,5,3,-1
116952031503,1,0,-9,-91,-19,-1,1,2
116952031503,-14,-8,-2,73,6,1,2,-3
116952033175,12,3,1,-24,-5,-8,-4,1
116952033175,-1,1,3,83,0,0,-3,0
116952037889,5,2,1,-34,-2,-16,-12,-2
116952037889,-2,4,4,58,3,11,10,-2
116952046697,-2,-3,-8,2,0,11,5,1
116952046697,-1,5,2,9,0,-7,-2,-2
116952060906,7,0,2,57,10,11,2,0
116952060906,-4,-1,-4,-52,-6,-16,-5,0
116952067700,-4,7,-7,-56,-11,0,-5,-1
116952067700,0,-6,3,77,13,-3,0,-2
116952084090,-4,-2,-2,-50,-13,2,0,-3
116952084090,-1,0,-1,-30,2,-6,-1,-3
116952085599,-3,-2,1,19,-2,0,0,-2
116952085599,-1,3,-2,-18,-5,1,-5,0
116952097628,-1,-2,-1,21,5,6,4,3
116952097628,-2,-4,-2,2,-5,-6,-3,-4
116952106625,0,-8,-2,-2,3,1,-7,-2
116952106625,5,5,0,-4,-6,-10,-2,-1
116952120902,-5,-9,-5,14,0,0,1,-1
116952120902,5,2,3,3,-1,1,-1,-1
116952127689,-3,3,7,53,9,4,0,-2
116952127689,-3,-9,-13,-81,-16,-7,0,3
116952144030,-1,0,0,18,0,-3,-1,0
116952144030,-2,3,2,16,1,-3,-1,2
116952145625,-4,-3,-3,-16,-6,-2,-1,-5
116952145625,-4,2,1,-12,1,7,0,-3
116952157630,10,4,1,-1,1,1,1,-1
116952157630,-4,-1,-2,-12,-7,-6,-5,-5
116952166676,0,-5,-3,-21,-6,-5,-5,-1
116952166676,0,1,-2,7,3,-2,3,0
116952180856,-1,0,-1,-9,1,8,0,2
116952180856,3,1,3,19,2,-4,-3,-2
116952195200,-3,-6,-2,-14,-7,-3,0,-1
116952195200,-3,0,-3,16,2,1,-2,-5
116952204025,-2,0,2,2,-1,-3,-1,-1
116952204025,0,-2,-3,-1,-2,-3,-1,-2
116952205614,-2,-4,-6,-53,-7,-1,1,-3
116952205614,0,-2,-2,7,1,-1,-1,0
116952217712,-2,-1,5,13,4,-2,0,-1
116952217712,2,-13,-3,7,-2,-2,-3,-3
116952226636,-16,-1,-5,-25,-3,2,1,0
116952226636,-2,-2,0,54,2,-3,-1,-3
116952240864,11,5,1,0,-1,1,0,0
116952240864,-3,1,-1,-7,3,-1,1,1
116952247691,-5,-6,-3,28,-2,-10,-3,1
116952247691,-1,0,0,-38,-2,8,-1,-3
116952264063,-7,-16,-3,19,0,0,-3,-3
116952264063,-14,-17,-1,8,0,-3,2,0
116952265686,16,8,2,22,-2,-4,0,1
116952265686,-19,-4,-8,-5,-2,-4,-1,-3
116952286506,-8,2,3,1,0,3,-2,-5
116952286506,9,2,-10,-23,-11,-3,-4,0
116952288167,8,-2,-3,-13,2,-8,-1,-1
116952288167,-14,2,5,58,5,4,1,0
116952300878,-5,1,-1,-11,-3,-3,-2,-1
116952300878,-5,6,0,-39,-4,-1,-1,-3
116952307700,1,-14,-3,-21,-6,-1,-3,-2
116952307700,7,14,-2,50,-1,-4,0,2
116952324026,5,1,-5,-13,0,-2,-1,1
116952324026,18,15,3,30,1,0,1,1
116952325665,-12,-7,5,-44,1,1,-4,-7
116952325665,-6,-13,-9,10,-6,-2,-2,-8
116952346524,1,3,-1,-19,-4,0,0,1
116952346524,-3,20,-2,40,6,-2,-4,-5
116952348174,-11,-18,-5,-4,-6,2,2,3
116952348174,-20,-7,5,-12,3,-1,-2,-1
116952360232,-3,0,-3,9,2,-3,-2,0
116952360232,-5,-4,-5,-58,-13,-4,-3,-1
116952369214,4,9,-7,16,2,1,-2,0
116952369214,0,7,2,-28,-3,-1,-2,-1
116952384010,2,-3,-3,10,2,-2,-2,-2
116952384010,-2,-9,-4,-17,1,1,-1,0
116952385665,11,-19,-2,40,0,1,-1,-1
116952385665,18,12,5,-17,-2,0,3,6
116952406521,-15,-9,-8,-16,-2,-2,-2,-4
116952406521,3,3,2,-13,-5,-1,-2,-1
116952408191,-20,-1,0,3,-1,0,0,-4
116952408191,10,6,1,13,4,2,-1,-3
116952420198,-6,-5,0,-1,-4,-4,-3,-5
116952420198,-9,-4,-1,31,2,1,0,6
116952429133,1,7,0,-46,-6,-1,-3,1
116952429133,-1,-7,1,-16,-2,0,1,1
116952443998,6,7,1,-1,-1,0,0,2
116952443998,5,-4,0,16,2,-2,-4,-3
116952445618,10,-8,0,15,-2,-1,0,-6
116952445618,-4,0,-6,-13,-2,-1,-3,6
116952466510,13,-3,-1,-7,-2,-1,1,0
116952466510,-19,4,1,5,4,1,1,1
116952468168,-15,28,5,25,3,-1,-2,-14
116952468168,10,-7,1,-16,-2,-1,0,-2
116952488996,-2,3,1,10,0,-1,1,-4
116952488996,1,-6,0,-1,0,0,1,3
116952490644,-8,7,2,-2,0,-1,0,4
116952490644,0,-8,-3,-7,-1,-3,-2,-2
116952504004,-12,12,-1,0,-1,0,-2,-5
116952504004,-11,-2,-1,-1,-1,-2,-2,-3
116952505604,12,2,3,1,1,-1,-1,7
116952505604,4,-1,-3,-1,0,-1,-2,-10
116952526543,10,-7,0,0,0,0,0,6
116952526543,0,-19,-3,-2,-1,-2,-1,-7
116952528163,-1,-5,-3,4,-2,-1,-2,-17
116952528163,-6,-7,-1,-6,0,-1,4,19
116952540187,8,5,1,-1,-1,-2,0,0
116952540187,-1,-1,-2,1,0,-1,-2,-1
116952549161,-2,0,1,3,1,3,-1,-2
116952549161,-7,-9,-9,-8,-5,-2,-5,-13
116952564422,-1,11,1,1,0,-2,-1,4
116952564422,5,-4,-2,3,-1,-1,-2,1
116952566044,3,1,1,0,2,1,0,6
116952566044,2,9,1,-4,-2,-4,-1,-3
116952586563,-6,17,0,1,-2,-2,0,2
116952586563,-4,-12,-2,-3,-1,0,0,-8
116952588213,10,-2,-5,-4,-2,-2,0,4
116952588213,9,1,-1,3,-1,0,0,-4
116952600196,-24,-12,-4,-1,-2,1,-1,-5
116952600196,10,10,5,3,0,0,-2,2
116952609178,-1,3,-3,-2,-2,-2,1,3
116952609178,-21,-23,-3,-3,-2,-1,-3,-4
116952624029,1,-24,0,-1,-1,-1,-1,-3
116952624029,-21,-4,-4,0,-1,-1,-1,0
116952625648,16,17,2,1,-2,-3,-3,-4
116952625648,-2,-3,1,-1,1,0,-2,1
116952646303,-4,-7,-4,-5,-3,-2,-3,0
116952646303,7,-1,-2,-5,-3,-2,0,-2
116952652687,-3,4,2,0,1,-2,-2,-1
116952652687,7,3,2,3,0,0,-2,-3
116952660161,5,2,3,1,-1,-1,-1,0
116952660161,17,0,-1,2,-1,-2,2,-1
116952669196,-10,2,6,4,1,1,1,-1
116952669196,5,2,-5,-1,-2,-3,0,-11
116952683830,5,-5,-3,-2,-1,-1,-3,-2
116952683830,-2,1,0,0,-3,0,-4,-5
116952690212,7,-14,-1,1,1,1,0,3
116952690212,8,-7,0,-2,-1,-1,0,4
116952706494,1,16,3,2,1,1,1,0
116952706494,10,3,1,1,2,-1,-1,1
116952708161,-8,-4,-5,-5,-1,-1,0,1
116952708161,-3,1,0,0,1,-1,1,0
116952720193,-2,-1,-2,-1,0,0,0,0
116952720193,0,4,-2,-1,-2,-3,-3,-5
116952729152,-13,-8,-5,-4,-4,-4,-1,10
116952729152,-1,2,1,-2,0,0,1,-2
116952744046,-3,-9,0,-1,-1,-1,0,-3
116952744046,18,4,0,-1,-1,-1,-1,1
116952745666,-7,-1,-1,1,-1,-1,-2,-5
116952745666,-4,3,-2,0,-1,-1,-2,1
116952766499,-8,5,-1,-1,-1,-3,-6,-2
116952766499,8,6,-2,-1,0,1,2,-1
116952768173,-3,-9,-4,-4,-2,-1,-1,6
116952768173,1,4,0,1,0,0,0,-2
116952780206,11,-5,-5,-5,-5,0,-1,-3
116952780206,-8,-3,0,-1,0,-1,-1,0
116952789138,1,-3,-4,-3,0,1,1,-2
116952789138,-5,14,0,0,-1,-1,-1,0
116952804012,5,-15,-4,-3,-2,-1,0,1
116952804012,-1,0,0,-1,-1,-2,-2,-3
116952805600,14,7,2,-2,0,-1,0,-2
116952805600,9,0,0,-1,-2,1,-2,-5
116952826489,-6,0,0,1,0,-1,1,8
116952826489,1,8,1,-1,0,-1,-2,1
116952828165,-4,5,-1,0,-2,-3,-2,-3
116952828165,3,0,-1,-1,-3,-2,-1,2
116952840182,0,1,1,0,0,0,-1,-4
116952840182,-12,-5,-1,0,-1,-1,-2,-3
116952849173,2,-1,-4,-3,-2,0,-2,-2
116952849173,-3,0,0,-2,0,-2,-2,-2
116952864023,-8,-1,-1,-2,-1,-3,-1,-5
116952864023,-12,-11,-4,-2,0,-3,-2,-2
116952865578,1,0,1,-3,-2,-1,-3,-1
116952865578,-6,-8,-3,-1,-2,-2,-2,-1
116952893965,1,-1,-4,-2,-1,0,-2,-1
116952893965,-12,-19,-10,-3,-4,-3,-4,-5
116952895585,-6,8,1,1,-1,-1,1,-1
116952895585,16,3,-3,-2,-1,0,-2,-2
116952900104,-13,-8,2,1,-1,-3,-1,-7
116952900104,-6,-1,-2,-2,-3,0,2,-3
116952909186,-36,-27,-9,-2,-3,-1,-2,-2
116952909186,-12,15,7,2,0,-1,0,-2
116952923962,-4,-12,-2,1,-1,-1,-1,-6
116952923962,6,0,0,-2,-1,-1,-2,5
116952925574,4,0,1,-1,1,-1,0,-2
116952925574,-7,-4,-1,-1,0,-1,0,2
116952946526,1,-3,-1,-1,0,0,0,-2
116952946526,-19,-1,2,-2,-1,0,2,1
116952948163,16,11,2,1,0,-1,0,-1
116952948163,2,-3,0,-1,0,0,0,1
116952960233,0,5,-4,-4,-2,-2,-4,0
116952960233,0,-3,-1,-1,-1,-2,-2,0
116952969133,16,7,1,1,0,0,1,0
116952969133,-3,-13,-3,-2,-1,-1,-1,-1
116952984086,0,1,0,-2,-2,-2,-2,1
116952984086,2,-15,-3,-2,-2,-1,0,-2
116952985707,-2,-6,-1,-1,-1,-1,-3,-3
116952985707,6,2,2,-2,-1,-2,-2,-2
116953006551,-8,-5,-2,-1,-1,-1,0,0
116953006551,6,5,1,0,-1,-2,-3,-2
116953008171,-6,-5,-3,-4,-3,0,-1,-1
116953008171,7,6,-1,1,-1,0,0,1
116953020179,-4,16,0,-2,-1,1,-1,1
116953020179,4,5,0,1,0,1,-2,-3
116953029135,-23,-20,-4,-1,-2,-2,-3,1
116953029135,4,1,3,0,0,0,1,-3
116953043996,-9,-12,-3,0,0,-1,1,-1
116953043996,-22,-1,-1,-2,-2,1,2,2
116953045631,23,-4,-1,0,1,-1,-2,-1
116953045631,-16,-11,-5,-1,-3,-3,-4,-5
116953066533,0,-3,-2,0,-1,-1,-2,-4
116953066533,15,-1,0,-1,2,-1,1,-2
116953068138,-1,6,3,2,-1,-2,1,-1
116953068138,-5,-6,-5,-3,-3,-1,0,0
116953080209,13,11,0,0,-1,-2,0,2
116953080209,-1,1,0,-1,-1,1,-2,0
116953089163,4,-1,-3,-1,-3,-1,-2,-1
116953089163,0,6,3,3,1,1,-2,-1
116953103966,-2,-3,1,-1,-2,-1,-2,-1
116953103966,1,0,-1,-2,-2,0,0,0
116953105595,-3,-12,2,3,1,-2,-1,-1
116953105595,5,5,-4,-3,-1,-4,-1,0
116953126484,-3,-6,0,0,1,1,0,0
116953126484,2,1,1,-1,0,-1,-1,-1
116953128128,-13,-1,-4,-3,-1,-1,-1,-3
116953128128,-4,-3,-1,0,0,-1,0,0
116953140193,-10,-7,-3,-4,-1,-4,-3,-2
116953140193,-1,-7,2,1,-1,-2,-2,-5
116953149137,-9,4,0,-3,-1,1,0,14
116953149137,-4,-8,-4,-2,-4,0,-2,-3
116953163323,-1,1,1,-2,-2,-1,0,1
116953163323,-5,-2,-9,-4,-4,-2,1,0
116953170117,-6,1,0,0,0,-2,0,-5
116953170117,6,12,-1,-1,0,-2,-1,-1
116953186526,-19,-9,-2,1,-2,2,-1,2
116953186526,6,11,2,-1,0,0,-3,-3
116953188195,-4,-8,-5,-4,-2,1,-1,-5
116953188195,-1,3,2,0,-1,-2,-1,2
116953209004,-2,-3,-4,-2,-1,-2,-1,-4
116953209004,0,18,1,-1,-1,-1,0,0
116953210608,-21,-7,-4,-4,-4,-5,-3,-9
116953210608,2,0,3,-2,-2,-2,0,7
116953223990,12,-4,0,0,0,0,0,-2
116953223990,-4,-9,0,1,-1,-2,-2,0
116953225629,5,5,-1,1,0,-1,-1,0
116953225629,-12,-8,-10,-2,-2,-3,-3,-8
116953246554,4,1,2,1,0,0,0,-1
116953246554,-2,5,0,-1,-1,1,-1,0
116953248176,3,2,-2,-1,-2,-2,-3,-3
116953248176,-3,-33,0,0,0,1,-1,-1
116953268944,24,11,1,-1,0,0,1,2
116953268944,-2,-3,-2,0,0,-1,-2,-2
116953270611,13,6,2,0,0,0,0,-2
116953270611,-4,-2,-2,-3,0,1,-1,-1
116953283980,-1,5,-2,-1,-1,-2,0,-3
116953283980,-5,-27,-2,0,-1,-3,1,-1
116953285605,4,2,-1,-1,1,0,2,-2
116953285605,-8,5,1,-1,-2,-3,0,6
116953306547,9,4,1,-1,0,1,-1,0
116953306547,4,3,-4,-3,-1,-1,-3,-2
116953308182,3,1,-1,-2,-1,1,0,2
116953308182,13,1,1,-3,-1,-1,0,-1
116953328998,-10,-3,1,-1,-1,-2,-1,-2
116953328998,0,-11,-2,-1,-1,-2,-2,-9
116953330577,10,7,2,1,0,-1,0,3
116953330577,7,-18,-1,0,1,1,0,0
116953343343,3,-7,-4,-1,-3,-2,-2,0
116953343343,0,7,0,1,0,-2,-1,-1
116953350148,-5,-17,-1,-2,-1,-1,-1,-2
116953350148,-13,-6,-6,-2,-3,-2,-2,-4
116953366465,-1,2,0,-2,-2,-2,-3,-5
116953366465,-2,3,1,-2,-1,-1,2,8
116953368050,-8,-5,-1,-1,0,-2,-1,-2
116953368050,-5,5,0,0,0,-2,1,0
116953389017,17,2,0,-3,0,1,1,1
116953389017,5,13,2,-1,-1,2,-2,1
116953390615,-9,3,-2,-3,-2,-2,0,2
116953390615,5,8,-4,0,0,0,-1,-2
116953403412,-10,-14,-2,-1,-2,-3,0,1
116953403412,1,-1,-2,-2,-1,0,0,-2
116953410195,23,5,0,1,-1,-2,-2,-6
116953410195,-4,-4,-3,0,-1,-1,0,-1
116953426502,-12,-7,-1,-2,-1,-3,-3,-2
116953426502,1,-7,-3,-1,-2,-2,-3,1
116953428170,5,3,-1,-2,0,-1,-1,-2
116953428170,-12,8,-1,-3,0,-1,-1,1
116953449026,19,6,1,0,-1,0,-1,1
116953449026,9,12,2,1,-1,0,-1,-1
116953450637,-5,-17,-3,-4,-2,-1,-2,-4
116953450637,-5,8,2,-2,-1,-1,-1,-2
116953463324,-7,2,-3,0,-1,-2,0,1
116953463324,-11,-11,-3,-1,-1,-3,-3,-3
116953470159,1,4,-1,0,-2,-2,0,0
116953470159,5,7,2,1,0,-2,-1,-2
116953486491,-24,-17,-3,-3,-1,-2,-1,-4
116953486491,-4,3,-1,0,-1,1,0,-2
116953488169,4,6,-2,0,-3,-1,-1,0
116953488169,-11,-3,1,-1,-1,-2,2,-4
116953508969,1,-14,-4,-1,-1,-3,2,3
116953508969,4,-3,-2,-1,-2,0,-1,0
116953510640,-5,2,0,-2,1,-1,0,0
116953510640,2,-14,-5,-2,-2,-1,-1,1
116953523391,0,12,4,3,0,0,-2,-2
116953523391,12,1,0,-1,-2,-2,0,2
116953530182,-5,-4,-2,-2,-3,-2,-1,-1
116953530182,-1,0,-1,-3,-2,-2,-4,-3
116953546516,-5,-1,1,-2,2,0,0,-2
116953546516,-6,-1,-2,-1,0,-1,-2,-4
116953548170,6,17,2,0,1,0,0,4
116953548170,14,12,2,1,-3,1,-2,6
116953569002,1,-5,-4,-2,-2,0,-2,-2
116953569002,-11,-7,1,1,-1,-1,-1,-2
116953570632,-9,-6,-5,-5,-3,-3,-3,-5
116953570632,8,4,-1,0,1,0,0,-1
116953583364,9,-19,-4,-2,-3,-2,-3,0
116953583364,-2,4,-1,1,-1,-1,0,-1
116953590182,-8,-6,0,-1,-1,-2,-1,0
116953590182,-4,-9,-3,-1,0,0,1,-2
116953606576,-9,1,-3,-2,-2,-1,-2,-2
116953606576,-5,-18,-2,-1,-2,-2,-3,-2
116953608206,4,-1,-2,0,0,-1,-2,1
116953608206,-6,-7,-2,-2,0,-2,-2,-2
116953628992,2,5,4,2,0,1,-1,0
116953628992,3,16,-1,-3,-3,-2,-1,1
116953630656,-6,-1,2,-1,-1,1,0,1
116953630656,1,-1,-1,-1,-2,-3,-2,0
116953643345,-2,5,-4,-3,-4,-1,0,-1
116953643345,-10,0,-6,-4,-2,-2,-2,-2
116953650190,2,4,1,0,-1,-2,-3,-1
116953650190,11,7,-1,1,-1,0,-1,-3
116953665572,-1,6,1,-3,2,-1,0,0
116953665572,1,-8,-1,-1,-1,1,-1,1
116953674228,-16,-15,-7,-2,-2,-1,-1,-5
116953674228,0,-2,-1,1,-2,0,1,0
116953688991,-3,14,0,2,-2,-1,-2,0
116953688991,2,-7,0,-1,0,1,0,-1
116953690641,-3,2,0,0,-2,-2,-3,-2
116953690641,-18,-7,-4,-4,-1,-4,-3,-3
116953702648,-2,-3,-5,-2,0,0,2,0
116953702648,-2,5,-2,-3,-1,-1,0,-1
116953711676,2,3,0,-1,-1,0,1,2
116953711676,8,4,2,-1,-1,-2,0,0
116953734022,-12,3,0,0,-1,-2,0,-5
116953734022,-11,-2,1,2,1,-1,0,0
116953735601,10,6,-2,-1,-3,0,-2,0
116953735601,-3,-10,-2,1,-2,1,-1,-2
116953748982,-6,-9,-4,-3,-2,-1,-3,-3
116953748982,-1,-1,-1,-1,0,-2,-1,-2
116953750593,7,-11,1,-1,-1,0,-1,-1
116953750593,-10,1,0,-4,-1,-2,-1,-4
116953762659,-3,-21,-3,0,0,-1,-2,0
116953762659,-7,-12,-4,-2,-1,-3,-3,-1
116953771673,3,4,3,2,-1,-2,0,0
116953771673,0,-2,-2,1,-1,0,-2,-2
116953786489,10,-6,-4,-1,-2,-2,-2,-2
116953786489,-3,7,2,1,1,-2,-1,-1
116953788157,0,-4,-4,-4,0,0,0,-1
116953788157,-2,6,-1,0,-1,0,-2,-1
116953808995,3,10,1,0,-2,-2,-2,-2
116953808995,6,-2,-3,-2,-4,-1,-1,5
116953810582,-6,0,0,-2,1,0,-1,-2
116953810582,-3,3,-1,-2,1,0,1,-1
116953822681,1,2,-1,-2,-1,-1,0,1
116953822681,7,7,-3,-3,-2,-2,0,-4
116953831603,-19,-36,-4,-2,-2,-2,-3,-2
116953831603,7,2,0,0,-1,-2,-1,0
116953846485,1,0,2,0,-1,0,-2,-1
116953846485,1,-6,-2,-3,-1,-1,0,-1
116953848085,-1,7,0,0,0,-2,0,-3
116953848085,-4,-2,-2,-1,-1,-2,-2,-5
116953869014,13,-1,-1,-3,-4,-1,-2,1
116953869014,1,7,4,-1,-1,-1,1,0
116953870592,1,4,-3,0,-2,0,-1,1
116953870592,1,-4,-3,-3,-3,-2,-2,2
116953882643,3,3,-3,-2,-1,-2,1,0
116953882643,-11,-6,-1,-1,-1,0,0,-2
116953891603,13,3,-1,0,-2,0,-3,-5
116953891603,2,-4,-1,1,1,2,-1,4
116953906562,-2,2,-1,-3,-1,-2,-2,-1
116953906562,-2,-6,-1,-1,-2,-1,0,0
116953908160,0,21,2,0,-1,-1,-1,0
116953908160,-3,-2,-1,-1,-2,0,0,-3
116953936486,-8,1,2,-1,0,-2,-1,-1
116953936486,2,5,0,0,2,0,0,-2
116953938153,9,3,-2,0,-2,-2,-1,0
116953938153,-5,-25,0,-1,-1,-1,1,-2
116953951494,-3,-6,-2,2,-1,-1,0,0
116953951494,-7,-2,0,-2,-3,-2,-3,-3
116953953070,0,-5,-1,-2,-2,-1,-1,0
116953953070,5,8,-1,-5,-1,-2,-2,-2
116953966468,-3,-10,0,-1,-1,1,0,-7
116953966468,17,0,-2,2,1,0,0,7
116953968045,-6,1,-1,-1,1,0,2,-1
116953968045,2,3,0,-1,-2,-1,0,-1
116953989043,-2,4,-2,0,-1,-1,1,-1
116953989043,-4,0,0,-2,-3,-1,-3,-3
116953990679,-5,2,-3,-2,-1,-1,-1,0
116953990679,13,-4,-4,-3,0,-3,0,3
116954002666,-6,-6,-4,-1,-3,-2,-1,2
116954002666,8,0,3,1,0,1,0,0
116954011610,-9,2,1,1,0,-1,-1,-1
116954011610,-7,1,-1,0,-1,-2,-2,-4
116954026490,4,11,0,0,1,-1,-2,0
116954026490,-1,-18,-6,-1,0,-1,0,-1
116954028114,-1,-6,2,1,-3,-2,0,-2
116954028114,4,13,1,0,0,-1,0,0
116954049016,-3,3,-1,0,-1,0,-2,0
116954049016,-5,1,2,-1,-1,0,0,-3
116954050654,18,8,-2,-4,0,0,1,-3
116954050654,-6,-6,-3,0,-2,0,-2,5
116954062638,-8,-9,-4,-2,-2,-1,-1,-2
116954062638,-5,2,-1,-1,-1,-2,0,-3
116954071632,-4,-7,-3,-2,-2,-1,-1,0
116954071632,-32,-18,-2,-2,0,-2,-2,-3
116954086511,1,1,-2,0,0,-3,-2,-2
116954086511,-3,-2,-3,-3,0,-2,-2,-2
116954088189,-4,-4,1,1,-2,-2,1,0
116954088189,15,41,2,0,-1,-2,2,-1
116954108956,-4,-11,-1,1,-1,0,-3,2
116954108956,-6,-5,0,-2,-1,-1,-3,-1
116954110599,6,2,0,-2,1,0,-3,1
116954110599,-2,3,-1,-3,-2,-1,-2,-3
116954122654,6,1,-2,0,-1,0,-1,-8
116954122654,5,6,-3,1,0,0,-1,2
116954139156,1,-4,-2,-1,0,1,-1,1
116954139156,9,-4,-1,1,0,1,-1,-2
116954146470,-2,3,1,-3,-3,-1,2,4
116954146470,-4,-11,-7,-4,-4,-2,-2,-4
116954148082,-15,-13,-1,-3,0,0,-3,-4
116954148082,-2,-9,-2,-2,-1,0,-1,-2
116954169006,-6,4,1,-1,-2,-3,-1,-2
116954169006,2,5,2,1,0,-2,1,-1
116954170628,-1,1,-2,-3,-3,-2,-3,2
116954170628,0,-5,-2,-2,-1,-1,-3,-1
116954191461,-6,1,-3,0,0,0,-1,-1
116954191461,-3,-6,-2,0,-1,-1,-1,-1
116954193164,-1,2,-1,0,0,-2,-1,-4
116954193164,-2,-6,0,-2,1,-2,0,0
116954206512,1,1,-3,-3,-2,-1,-2,-1
116954206512,9,8,2,0,0,-1,1,0
116954208168,-3,-18,-1,0,0,-2,1,0
116954208168,-5,-6,-3,-1,-3,-1,-2,-2
116954228999,7,2,2,1,1,-1,2,0
116954228999,1,-5,-1,-1,-1,-1,-1,1
116954230644,3,3,-3,1,-2,-1,-2,-2
116954230644,-5,14,-2,-1,-2,-2,-2,-1
116954251530,-8,-17,-2,-2,0,0,-3,-1
116954251530,2,4,-2,-2,-2,-1,-3,-2
116954253171,1,5,0,-1,-1,0,-1,-1
116954253171,-9,-8,-4,-2,-3,-2,-1,-1
116954266534,17,3,1,-1,-1,-1,-1,-8
116954266534,-6,4,1,-1,-1,0,0,-3
116954268166,-3,-17,-1,-3,-2,-1,-2,-1
116954268166,-1,-5,-2,-2,0,0,1,1
116954289008,-1,1,-1,-2,-1,-2,1,0
116954289008,-8,-7,-3,-2,-2,-2,-2,-1
116954290687,10,14,1,-1,0,-1,0,1
116954290687,-6,1,1,0,-1,1,-1,-2
116954311535,-2,-4,-2,-3,-1,0,-1,2
116954311535,-3,-2,-1,1,-1,-1,-3,-2
116954313148,0,20,1,0,-2,-2,-2,-4
116954313148,9,-3,2,1,0,0,-1,3
116954325845,-3,7,0,1,1,-2,0,0
116954325845,-6,-2,-1,-2,-1,-1,-2,-3
116954332645,-2,0,-2,-2,-4,-2,0,-1
116954332645,-1,-7,0,-1,-1,-1,-1,-2
116954348958,-17,-4,-3,-2,-1,1,-1,-1
116954348958,16,6,-1,-2,-1,0,0,1
116954350628,3,-4,-2,-2,0,-1,-1,2
116954350628,0,1,1,0,-1,-2,-2,-1
116954371475,3,-1,1,-1,0,0,-2,4
116954371475,2,7,2,0,0,-1,-1,-3
116954373160,-1,-20,-2,-1,1,-1,-1,0
116954373160,-1,-3,1,1,0,-1,-1,-3
116954385873,-13,-1,-4,-2,-2,-4,-2,-2
116954385873,-6,0,0,1,1,-1,-2,-1
116954392654,7,4,-5,-2,-2,-1,-1,0
116954392654,-4,-1,1,0,-1,0,-1,-10
116954409057,1,0,1,0,-1,0,1,-1
116954409057,-3,-3,-5,-2,-2,-2,1,-1
116954410625,-8,2,1,-1,0,-1,-1,-1
116954410625,-12,-27,-6,-2,-2,-2,-3,-4
116954431445,1,7,-2,-1,-2,0,-1,-1
116954431445,-6,-6,-1,-2,-2,-1,-2,-1
116954433179,-10,-4,-4,-2,-3,-3,-3,-4
116954433179,16,19,3,-1,1,-1,-1,4
116954445862,10,-3,0,-1,-3,1,1,1
116954445862,-12,-1,2,-2,-1,1,0,1
116954452634,-9,-5,0,0,-1,-1,2,-2
116954452634,11,0,-3,1,-2,-1,-1,1
116954469033,12,4,1,1,0,-3,-1,1
116954469033,6,-3,-3,1,0,-1,-2,-2
116954470620,-1,11,-4,-2,-1,0,-3,-4
116954470620,-1,-2,1,-3,-1,-2,-2,6
116954491544,-5,-3,-6,-5,-3,-2,-1,-4
116954491544,-2,2,-1,-1,-2,-1,-1,-1
116954493171,1,-1,1,0,-1,0,-1,-1
116954493171,-7,11,0,2,0,0,-1,-1
116954505807,-1,-4,-2,-1,0,-1,-2,1
116954505807,-1,-2,-3,-3,-3,-3,-3,-1
116954512617,-2,0,1,0,-2,-1,-1,0
116954512617,-2,1,-3,-1,-1,0,-1,-3
116954528977,4,0,0,-1,0,-2,-1,-1
116954528977,9,-1,0,-1,0,-1,-1,-2
116954530602,-1,1,0,-2,0,-1,1,-4
116954530602,-4,-4,-1,0,-1,-2,0,-3
116954551508,-2,2,-3,-5,-1,-1,-1,-2
116954551508,-3,-10,-5,-1,-1,-1,1,3
116954553181,-3,-1,-1,1,-2,0,-3,-1
116954553181,-7,-1,-1,-3,-3,1,-1,-1
116954565857,11,-4,2,0,-1,-2,-2,0
116954565857,-5,2,0,-3,-1,-2,-2,-5
116954580189,-2,1,-2,-1,-1,1,1,6
116954580189,2,-4,-2,-4,-2,-3,0,-1
116954588988,-8,0,-1,0,-2,-1,-3,-1
116954588988,-6,1,-4,-3,0,-1,-1,-3
116954590642,5,-5,-1,1,-1,0,1,-2
116954590642,8,2,1,0,-2,-2,-2,-1
116954611555,-10,4,1,2,0,-2,-1,-3
116954611555,4,9,0,0,0,1,0,2
116954613208,-10,-6,-1,-3,-1,-2,-3,-2
116954613208,0,16,-1,-1,0,1,0,-2
116954625847,-6,-10,-4,-1,-2,1,0,-4
116954625847,-3,-2,0,-1,-1,-2,-3,-2
116954632650,4,3,-3,-1,0,-2,0,-1
116954632650,-2,2,-1,1,0,-1,-1,1
116954648996,18,6,2,1,1,-1,0,1
116954648996,-4,-6,-1,-4,-1,0,0,-1
116954650622,-2,-1,1,-1,-2,-2,-2,-2
116954650622,-2,-10,-1,-3,-2,-1,-3,-3
116954671506,-5,-7,-4,-1,-3,-1,0,-6
116954671506,-8,-7,-1,0,-1,-1,-1,3
116954673176,2,2,1,-2,2,1,-1,-1
116954673176,0,-4,-2,0,-1,-1,-2,-2
116954685202,-18,-5,-3,-2,2,-3,1,-1
116954685202,-1,2,0,-1,-4,-2,-1,-2
116954694174,-15,-9,-5,-3,-2,-3,-1,-3
116954694174,2,-15,-1,-3,0,0,-1,-5
116954709061,3,-2,-1,-1,-1,-1,1,1
116954709061,8,3,1,1,0,-2,-1,-1
116954710620,-4,-8,-4,-1,-2,-2,-1,0
116954710620,5,-1,-2,-1,0,-1,0,-1
116954731476,-11,7,-1,-3,-2,-4,-2,-2
116954731476,-1,-1,-1,0,1,-1,0,-1
116954733178,14,6,1,-1,-1,0,-2,-3
116954733178,-6,-4,-1,-2,-1,-1,0,0
116954745210,-1,-4,-4,-2,-1,-1,-2,-1
116954745210,9,5,-2,-2,-1,-1,-2,-2
116954754165,-7,-9,-1,-2,-2,-1,1,5
116954754165,-3,5,-1,-2,-2,-2,-4,0
116954768973,-8,8,1,-2,-1,1,-3,-1
116954768973,-5,-13,-2,2,0,1,-1,-2
116954770587,-3,4,-1,-1,-1,0,1,-3
116954770587,4,0,-3,-2,-2,0,-1,-1
116954791516,-1,0,2,1,1,-1,0,0
116954791516,-2,-4,-3,-3,-3,-1,-3,-4
116954793168,0,-3,-3,-1,-2,-2,-1,7
116954793168,-13,-6,-2,2,0,-1,1,0
116954805203,5,-3,0,-3,-2,-1,-1,-1
116954805203,-2,-1,-4,-2,-5,-2,0,1
116954814159,-1,-12,-2,-1,0,-2,-2,-4
116954814159,3,-1,0,-3,-1,0,1,0
116954828967,1,-3,-2,-2,-2,-2,-1,1
116954828967,-5,-2,-1,-2,1,-1,1,-2
116954830584,8,6,1,-3,0,-1,-1,-9
116954830584,-6,-27,-4,-1,0,-1,0,1
116954851508,-11,2,-1,-2,-1,0,-1,-3
116954851508,9,10,4,1,0,0,-1,3
116954853151,-5,-2,-1,-1,-3,-2,-3,-4
116954853151,9,-9,-3,-2,-2,-2,1,0
116954865174,-4,-3,-1,1,1,0,-2,-1
116954865174,10,8,-2,-1,0,-1,-1,-1
116954874181,4,5,-2,0,0,0,0,1
116954874181,-2,5,2,0,-1,-3,-3,-2
116954889003,2,-5,0,-1,-3,-2,-1,0
116954889003,-3,-2,-2,-3,0,-1,-1,-1
116954890597,-1,5,-1,-1,-1,0,0,-1
116954890597,-8,0,-5,-3,-3,-2,-1,-7
116954911546,5,-13,-2,1,-2,-1,1,9
116954911546,-4,0,-1,-1,-1,-1,-2,-1
116954913169,-3,-1,-3,-2,-1,-1,1,0
116954913169,7,-1,0,0,-1,0,-2,-4
116954925213,-15,2,-3,-3,-2,0,-1,0
116954925213,-11,-30,-3,-2,-2,-2,-1,-3
116954934194,-2,-2,0,0,-2,-1,-1,1
116954934194,0,9,3,0,0,-1,0,1
116954948965,4,-1,0,-3,-1,-1,-3,-5
116954948965,0,4,-2,0,-1,0,-2,0
116954950631,1,1,-2,-1,-1,-1,-2,-3
116954950631,-5,1,0,-2,-1,-1,-1,2
116954971484,-2,0,-2,0,-1,-2,1,-4
116954971484,-2,-1,-2,2,-1,-2,-1,1
116954973136,-2,-2,-1,0,-1,0,-1,-1
116954973136,8,7,-1,-1,-2,0,-2,3
116954985203,-9,-11,-4,-3,-2,-1,0,-2
116954985203,-2,4,-1,-3,-2,0,0,-2
116954994173,3,7,-1,-2,0,0,-2,-2
116954994173,1,-20,1,-1,0,-2,-1,2
