89020605525 1:12 2:-1 3:1 5:-3 7:1 8:7

89020605525 3:2 4:-1 6:-1 7:1 8:-5

89020606466 1:1 2:-2 3:-4 4:1 5:-1 6:-3 8:-4

89020606466 1:-4 2:-1 4:-1 5:-1 7:4

89020608246 1:-10 2:-3 3:1 4:-2 6:1 7:-1 8:-2

89020608246 1:8 2:2 3:-3 5:-1 6:-1 7:-7 8:6

89020609794 1:-7 2:-3 3:-3 4:-4 5:-2 6:-3 7:2 8:-10

89020609794 1:3 2:1 3:3 4:-1 5:-2 6:-4 7:-1 8:2

89020615544 1:7 3:-1 4:2 5:2 6:-2 7:-4 8:-3

89020615544 1:-7 2:-2 3:-4 4:-2 5:-3 6:-2 8:-5

89020633391 1:-2 2:2 3:2 7:-3 8:-1

89020633391 2:-1 3:-1 4:-1 5:-1 6:1 8:-1

89020637027 1:3 3:-3 5:-1 6:-1 8:-4

89020637027 1:1 2:-1 3:-1 5:-3 7:-1 8:-1

89020648298 1:1 2:-1 3:2 6:1 7:-3 8:4

89020648298 1:-8 2:-1 3:-2 4:-1 5:-2 6:-4 7:-2 8:-12

89020651869 1:4 2:-3 4:-1 5:-2 7:-1 8:2

89020651869 2:-1 3:1 4:-3 5:2 7:2 8:8

89020675440 1:-19 2:-1 3:-4 4:-1 5:-1 7:-4 8:-28

89020675440 1:2 3:-2 5:-1 6:-2 7:-4

89020715116 1:24 3:-4 5:2 6:-2 7:-3 8:-3

89020715116 1:-6 2:1 3:1 4:-1 5:1 6:-1 7:3 8:4

89020715917 1:-1 2:-1 3:2 4:-1 5:-1 6:1 8:1

89020715917 1:-3 2:-1 4:1 5:1 6:-3 7:3 8:-1

89020716719 1:3 2:1 3:-4 4:-2 5:-2 6:-3 7:-6 8:-3

89020716719 1:-1 2:-2 4:-3 5:-2 6:-1 7:3 8:3

89020719104 1:-3 2:-1 3:-2 4:-1 5:-1 6:1 7:1 8:-3

89020719104 1:4 2:-2 3:-5 4:-2 5:-2 6:-4 7:-4

89020727365 1:-7 3:3 4:3 5:-2 7:-1 8:-2

89020727365 1:-3 3:2 5:-2 7:4 8:-5

89020734155 1:-15 2:-1 3:-3 4:-1 5:-1 6:-2 7:-2 8:-6

89020734155 1:12 2:-1 3:-2 4:-4 5:-4 6:1 7:-1 8:5

89020749856 1:-9 2:-4 3:2 7:-2 8:1

89020749856 1:-2 2:-2 3:-4 4:-1 5:-1 6:-1 7:-1 8:-2

89020756613 2:-1 4:-2 5:-1 6:-2 8:-3

89020756613 1:4 2:-2 4:-2 5:-2 7:1 8:-1

89020765591 1:-5 2:-1 3:-1 4:-3 5:-3 7:-5 8:-5

89020765591 1:-13 2:-2 3:-1 6:-3 7:-4 8:-3

89020787987 1:4 3:-2 4:-1 5:-2 6:-3 7:-5 8:-6

89020787987 1:-7 2:-3 3:-3 5:-2 7:-2 8:-2

89020789605 1:-3 3:-2 4:-3 5:-2 6:-4 7:4 8:1

89020789605 1:10 2:-1 5:-2 6:-1 7:-4 8:-1

89020801683 1:-2 2:1 3:-1 6:-2 7:-3

89020801683 1:8 2:-2 3:-3 4:-2 6:-1 7:-5 8:-4

89020810606 1:-35 2:-4 3:-1 6:1 7:2

89020810606 1:1 2:-1 3:1 5:-1 6:-1 7:-2 8:-1

89020825589 1:11 2:-1 4:-3 6:-4 7:3 8:13

89020825589 1:-20 2:-2 3:-2 6:-2 7:-7 8:-29

89020827144 1:-7 2:-2 4:-2 5:-1 7:-1 8:-5

89020827144 1:11 2:3 3:-1 8:2

89020848074 1:-5 2:-1 3:-1 4:-1 7:-3 8:-3

89020848074 1:-2 2:-1 4:1 6:1 7:7 8:8

89020849641 1:8 2:2 3:1 4:-2 5:-1 6:-3 7:-8 8:-6

89020849641 1:-8 3:-3 4:-1 5:-2 6:-2 7:-3 8:-4

89020861713 1:9 2:-1 3:-1 4:1 5:-1 6:-2 7:-1 8:2

89020861713 1:-4 2:-2 3:2 4:-2 5:-1 7:-3 8:3

89020870699 1:-5 2:-3 3:-2 4:-2 6:1 7:7 8:5

89020870699 1:15 3:-3 4:-2 5:-2 6:-1 8:2

89020885755 1:-1 2:-1 3:-1 4:-1 5:1 6:-2 7:-3 8:1

89020885755 1:-3 2:-2 4:-1 5:-1 6:-2 7:-1 8:3

89020887187 1:-3 2:-1 3:-1 4:2 6:-2 7:1 8:2

89020887187 1:-1 2:-1 4:-1 6:-1

89020908238 1:-3 2:-1 3:-1 4:-1 5:-1 7:2 8:-2

89020908238 1:-1 2:1 3:-4 4:-2 6:-1 8:-2

89020909759 1:6 2:1 4:-1 5:-2 7:3 8:1

89020909759 1:-6 2:-1 3:-2 5:-2 6:-1 7:-3 8:-2

89020921851 1:-3 2:-3 3:-2 4:-2 5:-3 6:-2 7:1 8:-2

89020921851 1:18 2:-1 3:-3 4:-1 5:-2 6:-2 7:-2 8:-1

89020930657 1:7 2:-2 3:-4 4:-2 5:-2 6:-3 7:-4 8:20

89020930657 1:-3 2:-1 3:-2 4:-2 5:-2 6:-1 7:-4 8:-5

89020945477 1:11 2:-1 4:-1 5:-1 6:-1 7:1 8:12

89020945477 1:-4 2:1 3:1 4:-1 5:-3 6:-2 8:-21

89020947180 4:-2 5:1 6:-1 7:1 8:-2

89020947180 1:6 2:1 3:-1 5:-1 6:-1 7:-1 8:-2

89020968175 1:-2 2:-1 3:-2 4:-2 6:-2 8:8

89020968175 1:1 2:-2 4:-1 6:-1 8:12

89020969664 1:8 2:2 3:-1 4:1 6:1 7:-1 8:-4

89020969664 1:-4 2:-1 3:1 4:-1 5:-1 7:-3 8:-2

89020981681 1:1 2:-2 3:-2 5:-2 6:1 8:-6

89020981681 1:-5 2:1 3:-1 5:1 6:-2 7:-2 8:6

89020990765 1:-2 2:-1 3:-1 4:-1 5:-2 8:-2

89020990765 1:-7 2:-1 3:2 4:-1 5:-3 6:-2 7:-2 8:5

89021005752 1:2 2:1 3:-2 4:-2 7:-3 8:-8

89021005752 1:-6 2:1 4:-3 5:1 6:-1 7:2 8:1

89021007155 1:1 2:-2 4:-2 5:-2 6:-2 7:-9 8:-7

89021007155 1:-5 2:-4 3:-2 4:-1 5:1 7:1 8:-3

89021028195 1:-6 2:-2 3:-1 4:1 5:-1 6:-2 7:-3 8:-5

89021028195 1:-1 3:1 4:-1 5:-1 6:1 8:4

89021029649 1:-3 2:-2 3:-3 4:-1 6:1 7:-1 8:-7

89021029649 1:1 2:-3 3:-4 4:-2 5:-1 6:-1 7:2

89021041866 1:-3 2:-2 3:-1 4:-1 5:-1 6:-2 7:-10 8:-6

89021041866 1:9 2:-1 3:-2 4:1 5:-1 7:10 8:3

89021050638 1:-17 2:-2 4:-1 5:-2 6:-1 7:-2 8:-4

89021050638 1:-10 2:-5 3:-4 4:-2 5:-2 6:-1 7:-1

89021065571 1:-6 2:-2 3:1 4:1 5:-4 6:1 7:3 8:14

89021065571 1:4 2:3 3:2 4:2 5:-1 7:3 8:5

89021067202 1:15 2:3 3:1 5:-2 6:-3 7:-10 8:2

89021067202 1:-1 2:-3 3:-2 4:-2 5:1 7:13 8:3

89021088275 1:-5 2:-2 3:-1 4:-3 5:-1 8:1

89021088275 1:-10 2:-1 3:-1 4:-1 5:-2 6:-1 7:-3 8:-2

89021089682 1:4 2:-2 3:-5 4:-2 5:-1 6:-2 8:-4

89021089682 1:-3 2:1 3:1 5:-2 6:1 7:-4 8:2

89021101698 1:-1 2:1 3:-1 6:-1 7:1 8:-12

89021101698 1:-3 2:-1 4:-1 5:-2 6:-1 7:-5 8:-1

89021110669 1:-5 2:-2 4:-3 5:-2 6:-1 7:2 8:-4

89021110669 1:1 2:-4 3:-2 4:-2 6:-1 7:-4 8:-5

89021125688 1:-6 2:-2 3:-1 4:-1 5:-1 6:-2 7:3 8:-7

89021125688 1:-4 2:-3 3:-2 4:-1 5:-1 6:-1 7:-5 8:-5

89021127102 1:-1 3:-1 4:1 7:2 8:6

89021127102 2:-1 4:-1 6:1 7:-1 8:-2

89021147351 1:1 2:-3 3:-2 4:-1 5:-1 6:-3 7:-1

89021147351 1:8 2:-3 3:-3 4:-3 5:-4 6:-2 7:-7 8:8

89021155642 1:-4 2:-2 3:1 7:6 8:-1

89021155642 1:-1 2:1 3:-1 4:-1 5:-2 6:-2 7:-5 8:-3

89021161861 1:-1 3:-1 5:-2 6:-1 7:-1 8:-2

89021161861 1:-24 2:-2 3:-2 4:-2 5:-2 6:-1 7:-3 8:-2

89021170710 1:-2 2:-1 3:-3 5:-1 6:-2 7:3 8:1

89021170710 1:13 2:2 3:-1 4:-1 5:-1 6:-1 7:-3

89021185749 1:-7 2:-2 4:-3 7:-2 8:-2

89021185749 1:-1 3:-2 4:-1 5:1 7:-3 8:-2

89021187200 1:-2 2:-1 3:-1 6:-1 7:-1 8:-3

89021187200 1:-10 2:1 3:-2 4:-2 5:-2 6:-3 7:-5 8:-2

89021208179 1:13 3:-2 4:-1 7:1 8:11

89021208179 1:1 4:-1 5:-2 6:-1 7:-3 8:-2

89021209752 1:3 2:-3 3:1 4:-1 5:-2 6:-1 7:-2 8:1

89021209752 1:1 2:-1 3:-1 4:1 7:-1 8:-1

89021221721 1:-4 2:-2 3:-3 4:-1 6:-1 7:-3 8:-5

89021221721 2:-1 3:-2 4:-1 5:-1 6:-1 7:-4 8:-5

89021230751 1:-4 2:-1 4:-2 5:-2 6:-2 7:7 8:5

89021230751 1:-6 2:-3 3:-2 5:-3 6:-2 7:-1 8:-3

89021245666 1:4 2:2 3:1 5:-1 7:-2 8:-1

89021245666 1:9 3:-2 7:1 8:-1

89021247117 1:-1 3:-1 5:-2 6:3 7:-1 8:7

89021247117 1:-1 2:-2 3:-2 5:1 6:-2 8:-2

89021268228 1:-1 2:-2 5:-3 6:-1 7:-1 8:-3

89021268228 1:7 2:-3 3:-1 4:-1 6:-2 7:-1 8:11

89021269592 1:-21 2:-3 3:-1 4:-1 5:-2 6:-1 8:-25

89021269592 1:-2 2:1 5:-1 7:-4 8:-9

89021281691 1:4 2:1 4:1 5:1 7:-6 8:1

89021281691 1:2 2:-1 3:-3 4:-2 6:-2 7:-5 8:4

89021290598 1:10 4:-1 6:-3 7:9 8:5

89021290598 1:20 2:-1 3:-1 4:-2 8:1

89021305712 1:-33 2:-1 3:1 5:1 7:-6 8:-8

89021305712 1:13 2:1 3:-1 4:1 5:-1 6:-1 7:4 8:6

89021307120 1:2 2:1 3:-1 4:-1 6:-1 7:-7 8:-2

89021307120 1:-2 2:-2 3:-2 4:-1 5:-2 6:-2 7:-1

89021328230 1:17 2:-1 3:-2 4:-2 5:-1 7:1 8:3

89021328230 1:-12 2:-2 3:1 5:-2 6:-1 7:1 8:-7

89021329652 1:1 2:-2 3:-2 6:-1 7:-1 8:2

89021329652 1:-7 2:-1 3:-1 5:1 6:-2 7:-3 8:-1

89021341882 1:-4 2:-2 3:-4 4:-2 5:-1 6:-2 7:-3 8:-4

89021341882 1:-11 2:-2 4:-2 5:-1 6:-3 7:2 8:-7

89021350666 1:10 2:1 3:-1 4:-2 5:-1 7:-9 8:-6

89021350666 1:-4 2:-1 3:-1 4:1 5:-1 7:4 8:1

89021365478 1:1 2:-1 4:-1 5:-1 6:-2 8:-3

89021365478 1:-1 2:-2 3:-2 4:1 5:-1 6:-3 7:1 8:-4

89021367145 1:-1 2:-1 3:-1 4:-1 6:-1 7:-6 8:5

89021367145 1:-2 2:-1 3:-1 4:-1 5:-1 6:1 7:-2

89021388260 1:-4 2:-2 3:-2 4:-2 5:-2 6:-1 8:5

89021388260 1:-2 2:1 3:2 5:-1 7:3 8:-8

89021389670 1:2 2:-2 3:-1 4:-3 5:-2 6:-2 7:-5 8:-1

89021389670 1:-4 2:-3 3:-1 5:-1 6:-1 7:-3

89021401707 1:4 3:-2 4:-2 6:-1 7:-6 8:-1

89021401707 1:-3 3:-1 4:-2 5:-3 6:-1 7:7 8:-2

89021411454 1:-6 2:-2 5:-1 7:-3 8:2

89021411454 1:1 2:-3 3:-6 4:-3 5:-3 6:-2 7:-2

89021433097 1:3 3:-1 4:-2 5:-2 6:-2 7:1 8:-3

89021433097 1:2 2:-2 3:-3 4:-2 5:-2 6:-3 7:-5 8:-5

89021434667 1:-35 2:-3 3:1 4:-2 5:-2 6:-2 7:-3 8:-3

89021434667 2:1 3:-1 4:-2 5:-2 7:3

89021448211 2:-2 5:-2 6:-1 7:-2 8:-3

89021448211 1:-1 2:-1 3:-2 4:-2 5:-2 6:2 7:2

89021449650 1:11 2:-2 3:-2 4:-1 5:-1 6:-1 7:1

89021449650 1:-8 2:-2 4:-1 5:-1 6:-1 7:-1 8:-4

89021470626 1:-4 2:-3 4:-2 5:-1 6:-2 8:1

89021470626 1:-1 5:1 6:1 7:-4 8:-2

89021472111 1:1 2:-2 3:-5 4:-8 5:-2 6:-2 7:-2

89021472111 1:-8 2:-1 3:1 4:-2 5:-2 6:-1 7:-7 8:-9

89021485746 1:12 2:1 3:-5 4:-1 5:-1 6:-2 7:2

89021485746 1:-6 2:-5 3:6 4:1 5:-6 6:-4 7:-6 8:4

89021487119 1:17 2:2 3:11 4:13 5:1 6:-1 7:-8 8:6

89021487119 1:-11 2:-1 3:-5 4:14 5:1 6:2 7:15 8:8

89021508196 1:-1 2:-1 3:-8 4:-8 5:-3 6:-3 7:-4 8:-14

89021508196 1:-5 2:-7 3:-23 4:-37 5:-5 6:-3 7:-4 8:2

89021509632 1:-12 2:-2 3:3 5:-2 6:-3 7:2 8:-23

89021509632 1:9 2:2 3:10 4:16 5:1 7:2 8:3

89021530508 1:-27 2:-5 3:4 4:9 5:-3 6:-1 7:-3 8:8

89021530508 1:1 2:2 3:5 4:8 5:3 8:-2

89021532081 1:3 2:-4 3:-19 4:-24 5:-7 6:-2 7:-2 8:-1

89021532081 1:-2 2:1 3:2 4:-16 5:-1 6:-1 7:-4 8:-1

89021544811 1:3 3:3 4:13 5:2 6:-1 7:5 8:-5

89021544811 1:-15 2:-1 3:-2 4:2 5:1 6:-1 7:-6 8:-4

89021551706 1:4 2:2 3:3 4:5 5:1 6:-2 7:6 8:1

89021551706 1:14 3:-2 4:1 5:-1 6:-3 7:-7 8:3

89021567966 1:-3 2:-2 3:-6 4:-13 5:-2 6:-1 7:1 8:1

89021567966 1:3 3:5 4:8 5:-2 7:2 8:-1

89021569544 1:3 2:-1 4:-2 8:4

89021569544 1:-1 2:-4 3:-3 4:-7 5:-2 6:-2 7:-2 8:2

89021590470 1:1 2:1 3:2 4:1 5:1 6:-1 7:-2 8:-4

89021590470 1:-2 2:-2 3:-2 7:-2 8:-3

89021592067 1:-5 2:3 3:-1 4:8 6:1 8:-3

89021592067 1:-6 2:-1 3:-6 4:-5 5:-2 6:-2 7:-5 8:1

89021605480 1:13 2:-1 3:2 4:-3 5:-1 7:4 8:16

89021605480 2:4 3:4 4:6 6:-1 8:-12

89021607061 1:2 2:-2 3:-11 4:-7 5:-2 6:-2 7:-1 8:3

89021607061 1:-24 3:3 4:1 5:-2 6:-1 8:-4

89021628025 1:30 2:2 3:-4 4:-2 5:-2 6:1 7:-3 8:3

89021628025 1:32 3:1 5:-1 7:3 8:24

89021629577 1:-18 2:1 3:6 4:4 5:-1 6:1 7:2 8:3

89021629577 1:-9 2:-6 3:-16 4:-9 5:-1 6:-4 7:-1 8:-5

89021650548 1:-12 2:-5 3:1 4:2 5:-2 6:-2 7:-2 8:-6

89021650548 1:5 3:-6 4:-5 5:-1 6:-1 8:-2

89021652105 1:8 2:1 3:3 4:1 6:-2 7:-4 8:-1

89021652105 1:2 2:1 3:1 4:3 5:2 7:1

89021664827 1:-11 2:-3 3:3 4:9 6:-2 8:-5

89021664827 1:-14 2:-3 3:5 4:-6 5:-1 6:-2 7:-6 8:-22

89021671608 1:1 2:-3 3:-11 4:-2 8:4

89021671608 1:5 2:-1 3:3 4:-3 5:-2 7:-1 8:-4

89021686632 1:-2 3:1 4:4 5:-1 7:-1 8:-6

89021686632 1:-7 3:1 4:3 5:1 6:-2 7:-1 8:1

89021695559 1:3 2:1 3:1 5:-1 6:-1 7:-2 8:-2

89021695559 1:9 2:1 3:-2 4:2 5:-1 6:-1 7:-1 8:-4

89021710953 1:-4 2:-3 3:-2 4:-8 5:-3 6:1 7:1

89021710953 1:-10 2:-5 3:-6 4:-4 5:-6 6:-5 7:-14 8:-9

89021712539 1:5 2:2 3:3 5:1 7:9 8:9

89021712539 1:5 2:2 3:12 4:1 6:5 7:5 8:1

89021732963 1:-6 3:2 4:-6 5:-2 6:-5 7:-9 8:-2

89021732963 1:-2 2:-4 3:-27 4:-6 5:-8 6:-8 7:-6 8:-2

89021734547 1:1 2:-2 3:5 4:3 5:-4 6:-7 7:-4 8:-8

89021734547 1:-2 3:1 4:-5 5:6 6:-14 8:-2

89021746638 1:1 4:-4 5:-16 6:4 7:4 8:1

89021746638 2:1 3:4 5:10 6:21 8:2

89021755642 2:-2 3:-5 4:-3 5:-15 6:-5 7:-5 8:-1

89021755642 1:2 2:-1 3:-4 4:5 5:2 6:23 7:-4 8:-1

89021770458 1:-5 2:-6 3:-9 4:-7 5:43 6:-39 7:-10 8:-5

89021770458 1:-1 2:-1 3:1 4:3 5:-51 6:-19 7:-2 8:4

89021772025 1:2 3:2 4:7 5:39 6:82 7:23 8:2

89021772025 1:3 2:2 3:7 4:7 5:78 6:38 7:8 8:7

89021792988 1:2 2:2 3:3 4:17 5:-18 6:5 7:-8

89021792988 1:-5 3:10 4:1 5:-25 6:-48 8:1

89021794645 1:-4 2:-5 3:-7 4:-13 5:-81 6:-76 7:-22 8:-4

89021794645 1:-1 2:-6 3:-16 4:-35 5:-36 6:-37 7:-11 8:-7

89021806577 1:-2 2:-1 3:-10 4:-19 5:13 6:18 7:5 8:3

89021806577 1:-2 2:1 3:-3 4:2 5:43 6:22 7:-2 8:-2

89021815603 1:-3 2:-3 3:3 4:1 5:-13 7:3 8:-3

89021815603 1:-3 2:-4 3:-4 4:12 5:-8 6:-11 7:-9 8:-2

89021830476 1:-1 2:-1 3:-2 4:-17 5:-11 6:1 7:5 8:-4

89021830476 3:2 4:11 5:18 6:23 7:4 8:2

89021832125 1:-3 2:-3 3:-1 4:-3 5:17 6:-5 7:2

89021832125 3:1 4:1 5:-8 6:-7 7:-4 8:-4

89021853011 1:-1 2:-1 4:7 5:-9 6:-6 7:4 8:-2

89021853011 1:2 2:-2 4:-7 5:-16 6:7 7:5 8:4

89021854565 1:3 2:-1 3:-1 4:11 5:15 6:7 7:-8 8:-7

89021854565 1:2 2:1 3:-8 4:6 5:30 6:6 8:4

89021866737 1:-1 2:1 3:2 4:4 5:-12 6:1 7:-6

89021866737 1:4 2:5 3:18 4:24 5:12 6:-1 7:2 8:2

89021875627 1:-4 2:-6 3:-7 4:-32 5:-8 6:-20 7:-4 8:-2

89021875627 1:6 2:-2 3:-23 4:-5 5:-46 6:-20 7:1

89021890109 1:-11 2:-3 3:3 4:11 5:4 6:28 7:13

89021890109 1:11 2:2 3:-1 4:-38 5:34 6:-2 7:3 8:2

89021896909 1:-5 2:-3 3:8 4:35 5:-23 6:-16 7:-3

89021896909 1:-1 2:-4 3:13 4:6 5:-13 6:1 7:-1 8:-3

89021913239 1:-2 2:-3 3:-22 4:-44 6:-15 7:-11 8:-2

89021913239 1:8 2:4 3:5 4:16 5:-6 6:15 7:-8 8:-3

89021914645 1:6 2:9 3:1 4:6 5:63 6:52 7:30 8:12

89021914645 1:-4 2:-1 3:23 4:-9 5:6 6:10 7:-2 8:-5

89021926846 1:-6 2:-3 3:22 4:12 5:-25 6:-17 7:7 8:9

89021926846 1:2 2:-1 3:-19 4:-8 5:-28 6:-40 7:-15 8:-3

89021935671 1:-4 2:-5 3:-12 4:-34 5:-13 6:-21 7:-16 8:-10

89021935671 1:-7 2:-4 3:-13 4:15 5:-14 6:-5 7:-1 8:-1

89021949843 1:9 2:2 3:2 4:16 5:4 6:-6 7:-1 8:-1

89021949843 1:-4 2:2 3:21 4:8 5:10 6:36 7:11 8:3

89021956715 1:1 2:-1 3:-3 4:21 5:37 6:6 7:-10 8:7

89021956715 1:3 2:-5 3:-34 4:-47 5:-20 6:-5 7:8 8:-12

89021973083 1:7 2:-1 3:2 4:12 5:4 6:8 7:-10 8:-2

89021973083 1:-11 2:-5 3:-3 4:13 5:-17 6:-5 7:1 8:1

89021974647 1:2 2:7 3:21 4:18 5:20 6:15 7:17 8:5

89021974647 1:-20 2:-6 3:25 4:60 5:8 6:-9 7:-15 8:-2

89021995733 1:10 2:-1 3:-31 4:-29 5:-18 6:-16 7:14 8:4

89021995733 1:-23 2:-3 3:-4 4:21 5:-7 6:-12 7:-21 8:-29

89021997123 1:-8 2:-12 3:-24 4:-89 5:-26 6:-11 7:-8 8:-1

89021997123 1:8 2:4 3:24 4:34 5:-1 6:-9 7:-1 8:-1

89022009961 1:-18 2:-2 3:10 4:35 5:3 6:5 7:-4 8:-7

89022009961 1:12 2:7 3:6 4:-2 5:17 6:14 7:13 8:16

89022016798 1:7 2:-8 3:13 4:50 5:16 6:24 7:1 8:-7

89022016798 1:-7 2:-1 3:-15 4:-82 5:-1 6:3 7:-7 8:-4

89022033067 1:-7 2:-3 3:7 4:-10 5:-17 6:-14 7:-11

89022033067 1:-1 2:-2 3:2 4:-11 5:-2 6:-16 7:19 8:2

89022034636 1:-15 2:5 3:-6 4:-4 5:-9 6:-12 7:-26 8:-3

89022034636 1:26 2:-4 3:-5 4:5 5:3 6:6 7:-16 8:-11

89022063250 1:3 2:-1 3:-3 4:11 5:-7 6:-10 7:1 8:1

89022063250 2:-2 3:-6 4:-23 5:2 6:-7 8:4

89022064718 1:7 2:2 3:-4 4:7 5:-4 6:3 7:6 8:-7

89022064718 1:-5 3:5 4:14 5:5 6:12 7:4 8:3

89022069880 1:6 2:7 3:17 4:-10 5:11 6:11 8:6

89022069880 1:-3 2:-10 3:-29 4:10 5:-15 6:-25 7:-6 8:-6

89022076834 1:-3 2:-3 3:-9 4:36 5:-13 6:6 7:-5 8:-2

89022076834 1:2 2:2 3:-13 4:-7 5:16 6:16 7:9 8:12

89022093213 1:1 2:1 3:-2 4:-1 5:38 6:21 7:5 8:-5

89022093213 1:-3 2:-2 3:23 4:12 5:-4 6:-1 7:-2 8:2

89022094619 1:-5 2:-2 3:10 4:31 5:-29 6:-37 7:-10 8:-5

89022094619 1:-28 2:-3 3:6 4:9 5:-22 6:-18 8:-6

89022115734 1:12 2:2 3:-36 4:1 5:3 6:13 7:4 8:-11

89022115734 1:-7 2:-6 3:-23 5:8 6:13 7:-1 8:-5

89022117187 2:1 3:21 4:-19 5:1 6:-4 7:1 8:1

89022117187 1:1 2:1 3:6 4:-9 5:-17 6:-18 7:-3 8:-3

89022130081 1:-8 2:-5 3:3 4:-4 5:-4 6:-4 7:-2 8:-5

89022130081 1:5 2:1 3:3 4:7 5:20 6:22 7:5 8:8

89022136895 1:9 2:4 3:-11 4:22 5:9 6:-2 7:-3 8:-10

89022136895 1:4 2:-2 3:17 4:30 5:5 6:1 7:6 8:-1

89022153289 1:-17 2:-20 3:-78 4:-69 5:-29 6:-19 7:-14 8:-7

89022153289 1:-4 2:-5 3:-8 4:17 5:-12 6:-6 7:-2 8:-4

89022154687 1:-13 2:3 3:9 4:4 5:9 6:4 7:-1 8:-1

89022154687 1:-18 2:3 3:15 4:16 5:9 6:10 7:12 8:3

89022175688 1:20 2:6 3:21 4:23 5:5 7:-5 8:-6

89022175688 1:20 2:-5 3:-5 4:-20 5:-6 6:-5 7:-3 8:-1

89022177114 1:-7 2:-3 3:-11 4:-36 5:-8 6:-9 7:-1 8:5

89022177114 1:14 2:2 3:1 4:28 5:7 6:3 7:-2 8:-9

89022190082 1:-7 2:-5 3:4 4:7 5:-2 6:2 7:14 8:2

89022190082 1:14 2:4 3:-2 4:-23 5:-2 6:-4 7:-14 8:4

89022196884 1:-1 2:-3 4:-15 5:-1 6:-4 7:-2 8:-8

89022196884 3:-17 4:-2 5:-6 6:-1 7:-3 8:-2

89022213223 1:4 3:5 4:24 6:-3 7:-1 8:11

89022213223 1:-13 3:6 5:4 6:3 7:2 8:-28

89022214680 1:11 3:-1 4:-7 5:-5 6:-2 7:-3 8:29

89022214680 1:-12 2:-2 3:-15 4:-21 5:-3 6:-1 8:-23

89022235538 1:-1 2:2 3:32 4:10 5:6 6:2 7:-2 8:9

89022235538 1:17 2:-1 3:-37 4:-8 5:-4 6:-2 7:-7 8:4

89022237180 1:-21 2:-10 3:-8 4:-4 5:-6 6:-1 7:1 8:-3

89022237180 1:-9 2:-5 3:-15 4:-11 5:-3 6:-2 7:-4 8:1

89022250417 1:-1 2:22 3:62 4:58 5:10 6:6 7:9 8:7

89022250417 1:9 2:14 3:3 4:-93 5:-6 6:-4 7:-15 8:-19

89022265679 1:-6 2:-27 3:-66 4:-23 5:-8 7:5 8:18

89022265679 1:-12 2:-13 3:-28 4:-11 5:-1 6:-4 7:-1 8:24

89022273197 1:7 2:-6 3:-10 4:3 5:-3 6:4 7:-14 8:-39

89022273197 1:-37 2:17 3:46 4:51 5:6 6:-4 7:8 8:19

89022274740 1:-10 2:8 3:34 4:-13 5:-8 6:-5 7:2 8:-8

89022274740 1:3 2:-5 3:-6 4:-23 5:-6 6:-7 7:-15 8:-5

89022295542 1:-29 2:-4 3:-17 4:-8 6:1 7:1

89022295542 1:23 2:-5 3:12 4:5 5:-5 6:-2 7:-1 8:2

89022297115 1:20 2:4 3:6 4:12 5:5 6:-5 7:-11 8:-7

89022297115 1:-4 2:1 4:-4 5:7 6:9 7:9 8:9

89022309114 1:1 2:-8 3:11 4:-4 5:2 6:-1 7:-1 8:-6

89022309114 1:-6 2:-10 3:-8 4:1 5:-7 6:-2 7:-3 8:4

89022318120 1:-9 2:-2 3:-10 4:-9 5:-4 6:-5 7:8 8:-3

89022318120 1:26 2:11 3:10 4:11 5:7 6:2 7:3 8:6

89022333152 1:9 2:13 3:27 4:7 5:10 6:8 7:-2 8:15

89022333152 1:-18 2:-21 3:-51 4:-24 5:-15 6:-8 7:4 8:12

89022340625 1:-3 2:-7 3:-32 4:-48 5:-4 6:1 7:-7 8:-22

89022340625 1:-25 3:13 4:8 5:-5 6:-3 8:-7

89022355532 1:7 2:-6 3:-2 4:-21 5:-4 6:-7 7:4 8:10

89022355532 1:14 2:14 3:32 4:28 5:19 6:14 7:6 8:10

89022357124 1:17 3:-25 4:48 5:-3 6:-4 7:-3 8:-2

89022357124 1:12 2:-4 3:-10 4:-75 5:-7 7:-1 8:20

89022369147 1:-25 2:-6 3:-18 4:-13 5:-4 6:-1 7:-13 8:-40

89022369147 1:-13 2:5 3:11 4:-20 5:1 6:4 7:-1 8:8

89022378115 1:32 2:10 3:19 4:46 5:8 6:-1 7:3 8:-6

89022378115 1:-2 2:6 3:21 4:11 5:-2 6:1 7:1 8:-7

89022392930 1:9 2:-4 3:-27 4:24 5:-3 6:-2 7:-6 8:19

89022392930 1:4 2:-4 3:-6 4:-26 5:-8 6:-11 7:-1 8:-2

89022394532 1:-40 2:4 3:17 4:-9 5:10 6:6 7:6 8:1

89022394532 1:7 2:-3 3:-8 4:22 5:1 6:-1 7:-1 8:-5

89022415513 1:18 2:4 3:42 4:9 5:-3 6:-4 7:-4 8:10

89022415513 1:-36 2:-23 3:-48 4:-4 5:-11 6:-3 7:-6 8:-26

89022417093 1:12 2:2 3:15 4:-11 5:-10 6:-5 7:-1 8:7

89022417093 1:11 2:9 3:16 4:33 5:28 6:12 7:14 8:9

89022429258 1:-10 2:-2 3:-20 4:-2 7:5 8:9

89022429258 1:-11 3:25 4:38 6:4 7:7 8:-7

89022438137 1:17 2:4 3:16 4:-7 5:-5 6:-2 7:-4 8:2

89022438137 1:5 2:-6 3:-3 4:11 5:-12 6:-7 7:-9 8:-10

89022452943 1:-1 2:-2 3:-23 4:-48 5:-1 6:-4 7:8 8:16

89022452943 1:6 2:2 3:20 4:44 5:9 6:9 7:-8

89022454580 1:-5 2:2 3:1 4:6 5:7 6:7 7:7

89022454580 1:20 2:3 3:-3 4:-4 5:-4 6:-4 7:-4 8:2

89022475609 1:-16 2:-1 3:-8 4:-15 5:-3 6:-4 8:-3

89022475609 1:2 2:-6 3:-12 4:10 5:-5 6:-11 7:-10 8:-5

89022477161 1:-2 2:10 3:3 4:-14 5:2 6:4 7:4 8:4

89022477161 1:-8 2:-2 3:65 4:4 5:-1 7:1 8:-7

89022489139 1:7 2:-24 3:-85 4:52 5:-2 6:4 8:-5

89022489139 1:-10 2:3 3:25 4:-70 5:-3 6:-1 7:5 8:-4

89022498170 1:7 2:-2 3:4 4:5 5:3 6:2 8:18

89022498170 1:-3 2:8 4:4 5:-7 6:-6 7:-1 8:-1

89022513260 1:-2 2:5 3:24 4:19 5:3 6:-5 7:-7 8:-6

89022513260 1:7 2:6 3:11 4:22 5:7 6:4 7:4 8:3

89022514853 2:-8 3:-24 4:13 5:-6 6:-1 7:-1

89022514853 1:-7 2:-17 3:-18 4:-13 5:-11 6:-10 7:-7 8:-6

89022535341 1:-1 2:3 3:1 4:-21 6:1 7:3 8:-5

89022535341 1:12 2:1 3:-12 4:7 5:-1 7:3 8:9

89022541623 1:4 2:3 3:18 4:-11 5:3 6:-2 7:-3 8:4

89022541623 1:-11 2:-8 3:-20 4:21 5:-4 6:-3 7:-3 8:-7

89022549132 1:-26 2:1 4:-49 5:-9 6:-3 7:-4 8:-5

89022549132 1:-3 2:-1 3:4 4:10 5:1 6:-3 7:-1 8:-1

89022564278 1:-3 2:-10 3:-12 4:3 5:1 7:-1 8:-11

89022564278 1:-3 2:-12 3:-7 4:-11 5:-2 6:-1 7:-1 8:3

89022573198 1:15 2:15 3:11 4:-2 5:-1 6:-2 7:-3 8:3

89022573198 1:-4 2:9 3:-12 4:11 6:-2 7:-4 8:-4

89022574721 1:-21 2:-12 3:4 4:-12 5:-4 6:-2 7:2 8:-4

89022574721 1:9 2:-3 3:-33 4:-8 5:-4 6:-3 7:1 8:1

89022595553 1:-11 2:-32 3:9 4:-7 7:-1 8:-9

89022595553 1:11 2:14 3:-14 4:-5 5:-2 6:-1 8:1

89022597339 1:-5 2:-22 3:26 4:7 5:4 6:2 7:-3 8:-10

89022597339 1:-3 2:16 3:-13 4:7 5:-4 6:-4 8:2

89022609360 1:21 2:-5 3:1 4:-18 5:-3 6:-2 7:-3 8:10

89022609360 1:-4 2:-13 3:-1 4:-1 5:-2 7:-1 8:1

89022618133 1:-5 2:-21 3:-5 4:2 5:-2 6:-4 7:-3 8:-6

89022618133 1:4 2:5 3:-1 4:-7 6:2 7:-2 8:5

89022633042 1:-4 2:6 3:5 4:-1 5:-1 6:1 8:1

89022633042 1:6 2:-2 3:-2 4:-1 6:1 8:2

89022634611 2:10 3:-8 4:-2 5:-2 6:-1 7:1 8:-10

89022634611 1:-3 2:12 3:17 4:-2 5:3 6:1 7:-4 8:5

89022655691 1:4 2:19 3:-7 4:5 5:-2 6:-3 7:-3 8:-6

89022655691 1:-1 2:5 3:5 4:-2 5:-1 6:-1 7:-3 8:-4

89022657187 1:16 2:6 3:-2 4:1 5:-3 6:-4 7:5 8:1

89022657187 1:-18 2:-16 3:-8 4:4 5:-3 6:-2 7:3 8:-5

89022678224 1:9 2:20 3:9 4:4 5:2 6:-2 7:-3 8:-1

89022678224 1:-10 2:-12 3:-4 5:3 6:4 7:3 8:-4

89022679713 1:3 2:6 3:-4 4:-4 5:-2 6:-2 7:-4 8:2

89022679713 1:9 3:-1 4:2 5:-3 6:-2 7:-1 8:-2

89022693202 1:-5 2:-10 3:4 4:1 6:2 8:-5

89022693202 1:-2 2:-4 3:-5 4:-4 6:-2 7:2 8:-1

89022694815 1:-2 2:6 3:-1 4:6 5:-2 7:-2

89022694815 1:5 2:12 3:5 4:-3 5:-2 6:-3 7:-1

89022715525 1:-5 2:-3 3:-4 4:-2 6:-1 7:-2 8:-6

89022715525 1:2 2:-4 3:1 4:-3 6:-1 7:-1 8:-1

89022717058 1:-2 2:9 3:1 4:-2 5:-1 6:-1 7:-3 8:-2

89022717058 1:-1 2:-5 3:-1 4:-2 6:2 7:1 8:-4

89022729187 2:-4 3:3 4:4 5:2 7:2 8:-1

89022729187 1:4 3:1 4:1 5:-4 6:-1 7:-1 8:-3

89022738152 1:-10 2:4 3:-1 4:-1 5:-2 6:-1 7:-4 8:-2

89022738152 1:3 2:-1 3:-4 4:-5 6:4 7:5 8:2

89022753671 2:-1 3:5 4:2 5:1 6:-3 7:-7 8:-3

89022753671 3:-2 4:-5 5:-3 7:1 8:-1

89022755106 1:-3 2:1 3:-3 5:1 6:-1 7:-3 8:-1

89022755106 1:-6 2:-6 3:-5 4:-7 5:1 6:1 7:-1 8:-15

89022775698 1:-4 2:-4 3:2 4:-3 5:-5 6:-1 7:1

89022775698 1:-2 2:-3 3:-4 4:-2 5:-6 6:-6 7:-5 8:-1

89022777256 1:4 3:-4 4:-1 5:4 6:4 7:-2 8:1

89022777256 1:1 2:-4 3:1 5:3 6:3 7:7 8:5

89022789355 1:-1 2:-4 5:-3 6:-2 7:-3 8:-2

89022789355 1:-2 2:-4 3:-2 4:-3 5:-4 6:-2 7:-3 8:-3

89022798129 1:-2 2:1 3:-1 4:-4 5:-7 6:-7 7:-2 8:-4

89022798129 1:-3 2:-6 3:-1 4:-2 5:-1 6:-4 7:-6 8:-2

89022812420 1:-3 2:-5 3:-2 4:1 6:-1 8:-5

89022812420 1:-2 2:-4 3:-3 4:-2 6:-2 7:-3 8:1

89022819194 1:2 2:2 4:-2 5:-1 6:1 7:-3 8:2

89022819194 2:-1 3:-2 4:-3 5:-1 6:-2 7:-1

89022835479 2:-3 3:-3 4:-3 5:-2 6:-3 7:-1 8:1

89022835479 2:3 5:-2 7:-5 8:1

89022837116 1:-4 2:-6 3:-7 4:-3 5:-3 7:21 8:-6

89022837116 2:3 3:1 4:3 5:4 6:-2 7:-18 8:-3

89022849099 1:2 2:1 3:-3 4:-3 5:-7 6:-6 7:-3 8:-4

89022849099 1:-3 2:-5 3:-3 4:-3 5:-2 6:-4 7:2 8:1

89022858204 1:-1 2:1 3:-1 4:-1 5:2 6:10 7:2 8:-2

89022858204 1:-3 3:-1 4:1 5:3 6:5 7:5 8:1

89022872407 1:-11 2:-5 3:-1 4:-5 5:-14 6:-17 7:-9 8:-11

89022872407 1:4 2:2 3:1 4:4 5:-3 6:5 7:5 8:3

89022879151 1:3 2:3 3:1 4:5 5:32 6:27 7:6 8:2

89022879151 1:-2 2:-5 3:2 4:4 5:5 6:16 7:7 8:2

89022895472 1:1 3:2 4:1 5:-7 6:-15 7:-17 8:4

89022895472 1:-5 2:-5 3:-6 4:-7 5:-15 6:-25 7:-6 8:-2

89022897054 1:-5 2:-1 3:-1 4:-7 5:-17 6:-20 7:-31 8:-10

89022897054 1:4 2:-2 3:-4 4:-4 5:-2 7:13 8:3

89022918054 1:-4 2:-2 3:-3 4:-1 5:4 6:4

89022918054 1:-9 2:-3 3:-3 4:-2 6:5 7:8 8:-2

89022919642 1:27 2:6 3:1 4:-3 5:-12 6:-25 7:-12 8:5

89022919642 1:-16 2:-7 3:-11 4:-33 5:-70 6:-116 7:-37 8:-13

89022932349 1:6 2:-2 3:-3 4:-5 5:-81 6:-24 7:19 8:5

89022932349 1:-1 2:1 3:-1 4:16 5:88 6:94 7:32 8:4

89022939156 1:-12 2:-4 3:7 4:36 5:94 6:94 7:24 8:1

89022939156 1:15 2:4 3:2 4:-23 5:-80 6:-64 7:-37 8:2

89022955518 1:1 2:-5 3:-8 4:-28 5:-96 6:-72 7:-17

89022955518 1:6 2:3 3:4 4:20 5:54 6:57 7:23 8:3

89022957177 1:-4 2:2 3:5 4:53 5:93 6:103 7:48 8:4

89022957177 1:-1 2:5 3:17 4:50 5:-36 6:-39 7:7 8:5

89022978038 1:-4 3:9 4:2 5:-81 6:-108 7:-18 8:4

89022978038 1:2 2:-3 3:-7 4:-47 5:-128 6:-128 7:-38 8:-4

89022979643 1:-4 2:-4 3:-16 4:-58 5:-94 6:-85 7:-25 8:-9

89022979643 1:-23 2:-24 3:-24 4:-22 5:42 6:22 7:-8 8:-12

89022992482 1:-3 3:-7 4:-8 5:59 6:52 8:-6

89022992482 1:-16 2:-4 3:-3 4:4 5:27 6:30 7:8 8:-14

89022999156 1:14 2:2 3:5 4:-3 5:-4 6:-21 7:-2 8:20

89022999156 1:-3 2:5 3:-2 5:15 6:38 7:4 8:-25

89023015514 1:4 2:1 3:3 4:16 5:55 6:52 7:10 8:7

89023015514 2:-3 3:2 4:7 5:17 6:4 7:-7 8:-1

89023017128 1:-13 2:-4 3:-2 4:-7 5:-46 6:-46 7:-17 8:-5

89023017128 1:5 3:6 4:9 5:10 6:23 7:12 8:8

89023038006 1:1 3:-5 4:6 5:41 6:43 7:9 8:-1

89023038006 2:2 3:-3 4:10 5:-4 6:-19 7:-5 8:-6

89023039643 1:-1 2:1 3:12 4:-14 5:-39 6:-31 7:-8 8:-4

89023039643 1:4 2:-2 3:-39 4:-16 5:1 6:15 7:6 8:6

89023052468 1:-5 2:1 3:6 4:10 5:29 6:16 7:7 8:-7

89023052468 1:-12 2:-5 3:-14 4:6 5:-13 6:-17 7:-10 8:-2

89023059310 1:17 2:7 3:16 4:1 5:-16 6:-11 7:-2 8:1

89023059310 1:-1 2:1 3:8 4:5 5:13 6:10 7:5 8:3

89023075681 1:-7 2:-6 3:-26 4:-20 5:-5 6:-5 7:-2 8:-13

89023075681 1:10 2:2 3:1 4:-8 5:-10 6:-6 7:-14

89023077128 1:9 3:-1 4:5 5:7 6:-2 7:-3 8:26

89023077128 1:4 2:4 3:15 4:11 5:6 6:7 8:-8

89023098018 1:1 3:10 5:2 6:-3 7:4 8:2

89023098018 1:-10 2:-7 3:-8 4:-7 5:-13 6:-6 7:-7 8:-9

89023099644 1:-16 2:-5 3:-5 4:1 5:-10 6:-5 7:-5 8:-9

89023099644 1:5 2:2 3:11 4:-2 5:15 6:11 7:-3 8:6

89023112582 1:2 2:-2 3:-3 4:8 5:5 6:6 7:8 8:1

89023112582 1:9 2:-3 3:19 4:-6 5:-2 7:12 8:2

89023119311 1:-13 2:-4 3:-19 4:-1 5:-15 6:-15 7:3 8:-10

89023119311 1:8 2:9 3:4 4:-8 5:-1 6:2 7:4 8:19

89023135537 1:-3 3:8 4:3 5:9 6:9 7:-9 8:-13

89023135537 1:5 2:2 3:-3 4:2 5:-1 6:-8 7:-6 8:3

89023137134 1:-13 2:-1 3:1 4:-7 5:-11 6:-4 7:-7 8:-7

89023137134 1:-10 2:-8 3:-5 4:2 5:1 6:11 7:-3 8:-10

89023158197 1:31 2:7 3:-1 4:8 5:8 6:10 7:10 8:12

89023158197 1:35 2:5 3:8 4:-6 5:-4 6:-12 7:50 8:18

89023159862 1:-53 2:-15 3:-15 4:-4 5:-11 6:-13 7:-4 8:-6

89023159862 2:19 3:-24 4:-6 5:4 6:1 7:-12 8:-12

89023173098 1:-1 2:1 3:22 4:7 6:-4 7:-5 8:1

89023173098 1:-8 2:-10 3:-16 4:-11 5:-4 6:6 7:-13 8:-13

89023180734 1:3 2:-1 3:-2 4:-3 5:-5 6:-4 7:1 8:9

89023180734 1:2 2:1 3:7 4:5 5:2 6:3 7:9 8:3

89023195505 2:3 3:14 4:9 5:6 6:-2 7:-7 8:15

89023195505 1:5 2:4 3:5 4:17 5:-1 6:-4 7:-6 8:12

89023197341 1:-5 2:-11 3:-40 4:-71 5:-13 6:-3 7:-23 8:-19

89023197341 1:6 2:2 3:11 4:4 7:-5 8:14

89023217933 1:-11 2:-7 3:-13 4:-6 6:7 7:9 8:-8

89023217933 1:-16 2:-7 3:10 4:-4 5:-4 6:-11 7:1 8:-1

89023219490 1:14 2:4 3:7 4:16 5:-3 6:-1 7:3 8:-5

89023219490 1:-6 2:-10 3:-1 4:-1 5:-2 6:-1 7:6 8:-9

89023231611 1:-18 2:-6 3:-7 4:-7 5:2 6:4 7:-4 8:8

89023231611 1:5 2:13 3:4 4:8 5:3 6:2 7:-7 8:-37

89023240635 1:-28 2:-1 3:8 4:11 5:-1 6:-2 7:1 8:4

89023240635 1:5 2:-14 3:-27 4:-21 5:-9 6:-8 7:2 8:-1

89023255559 1:-3 2:-4 3:-3 4:4 5:1 6:-1 7:4 8:-6

89023255559 1:-12 2:-2 3:-10 4:-6 6:-3 7:-11 8:6

89023257117 1:22 3:4 4:4 5:-2 6:-5 7:5 8:-1

89023257117 1:-18 2:-5 3:5 5:-2 6:-1 7:2 8:2

89023278197 1:8 2:5 3:-1 4:-1 5:1 6:1 7:-2 8:4

89023278197 1:-7 2:-3 3:-9 4:-10 5:-5 6:-2 7:-7 8:-5

89023279710 1:19 2:8 3:4 4:2 5:-2 6:-2 7:-4 8:8

89023279710 1:-4 2:-1 3:10 4:6 5:1 6:2 7:5 8:3

89023291930 1:-8 2:-12 3:-7 4:-1 5:-2 6:1 8:-8

89023291930 1:5 2:1 3:4 4:1 6:-1 7:-8 8:1

89023300546 1:5 2:4 3:12 4:14 6:-1 7:19 8:9

89023300546 1:-3 2:-2 3:1 4:4 5:-3 6:1 7:4 8:-4

89023315566 1:7 2:-1 3:-9 4:-8 5:-1 6:-2 7:-10 8:5

89023315566 1:-2 2:-2 3:7 4:1 5:-1 7:-5 8:4

89023317104 1:10 2:-3 3:-13 4:-1 5:-1 6:-2 7:-10 8:-5

89023317104 1:-6 2:-9 4:6 5:2 7:5 8:4

89023338129 1:9 2:2 3:-6 4:-5 6:-2 7:-3 8:1

89023338129 1:-23 2:-3 3:-2 4:-5 5:-6 6:-6 7:-11 8:-39

89023339677 1:3 2:4 3:11 4:11 5:3 6:3 8:-2

89023339677 1:-8 2:-4 3:5 4:15 5:-2 6:-3 7:-1 8:-1

89023360707 1:2 2:-1 3:-24 4:-60 5:-7 6:-4 7:-1 8:2

89023360707 2:3 3:4 4:2 5:3 6:2 7:1 8:6

89023362274 1:12 2:-5 3:-4 4:-7 5:-3 6:-3 7:2 8:-16

89023362274 1:-10 2:2 3:8 4:1 5:2 6:1 7:-18 8:-12

89023375585 1:-5 2:-1 3:8 4:17 5:2 6:-2 7:9 8:5

89023375585 1:6 3:-3 4:1 5:-2 6:-2 7:-5 8:12

89023377125 1:-24 2:-5 3:1 4:-6 5:-3 6:-2 7:13 8:-2

89023377125 1:11 2:1 3:-3 4:-2 6:-1 7:-3

89023397999 1:15 2:5 3:6 4:10 5:-1 6:1 7:-2 8:-10

89023397999 1:8 2:-2 3:-3 4:-6 5:-1 6:-3 7:-9 8:1

89023399587 1:8 3:2 4:10 5:2 6:3 7:-8 8:1

89023399587 1:3 2:2 3:-1 4:-8 5:-3 6:-3 7:2 8:-1

89023411648 1:-10 2:-3 3:-1 4:4 5:-1 6:1 8:2

89023411648 2:-4 3:-1 5:-1 6:-1 7:1 8:5

89023420664 1:9 3:-3 4:-3 5:-1 6:-1 7:-7 8:-1

89023420664 1:7 2:1 3:-4 4:-6 5:1 7:7 8:4

89023435525 1:-14 2:-3 3:5 4:5 6:1 7:-3 8:-5

89023435525 1:8 2:13 3:4 4:5 5:2 6:1 7:2 8:9

89023437095 1:11 2:-2 3:-5 4:-5 5:-2 6:-3 7:2 8:4

89023437095 1:-3 2:-1 3:1 4:-3 5:-3 6:3 7:3 8:-1

89023458059 1:-12 2:1 3:5 4:8 5:1 7:-10 8:-8

89023458059 1:-9 2:-2 3:-1 4:-1 5:1 6:-2 7:4 8:3

89023459751 1:-9 2:-3 3:-3 4:-3 5:-2 7:-7 8:-3

89023459751 1:14 2:2 3:-1 4:-3 5:-1 6:-3 7:-4 8:-8

89023471652 1:-1 2:-2 3:4 4:7 5:1 6:1 7:-6 8:-6

89023471652 1:-8 2:-8 3:-8 4:-8 5:-5 6:-6 7:11 8:12

89023480573 1:24 2:1 4:-1 5:-1 6:-1 7:-1 8:-6

89023480573 1:-14 2:-2 3:-4 5:-2 6:2 7:4 8:13

89023495499 1:-1 3:1 4:2 5:-2 6:-2 7:-3 8:-14

89023495499 1:2 2:-2 4:2 6:-3 7:-13 8:1

89023497139 1:-3 2:-1 4:1 5:2 6:-1 7:5

89023497139 1:7 3:-2 4:-2 6:-2 7:-1 8:-1

89023517994 1:-10 2:-5 3:-5 4:-1 5:-2 6:-1 7:1 8:-13

89023517994 1:3 3:3 4:2 5:1 6:3 7:-2 8:5

89023519589 1:-13 2:-3 3:-5 4:-7 5:-4 6:-5

89023519589 1:-23 2:-4 4:-2 6:-3 7:-12 8:-22

89023531705 1:28 2:2 3:-2 4:-3 5:-3 6:-1 7:10 8:16

89023531705 1:-7 2:-4 3:-3 5:2 7:-4 8:-7

89023540728 1:1 2:2 3:6 4:4 7:-1 8:2

89023540728 1:-9 2:-2 3:-2 4:-2 5:-2 6:2 7:5 8:-3

89023555703 1:6 2:1 4:-1 5:-1 6:-8 7:7 8:13

89023555703 1:-6 2:-2 3:-3 4:-3 5:-2 6:-1 7:-7 8:-7

89023557225 1:-38 2:-3 3:-2 4:1 5:-2 6:-4 7:-2 8:-8

89023557225 1:6 2:1 4:-2 5:-1 6:-2 7:-2 8:-4

89023578000 1:-14 2:-3 3:-4 4:-1 5:-1 6:1 7:-4 8:-19

89023578000 1:7 2:-2 3:-1 4:-3 5:-1 7:2 8:6

89023579807 1:-1 3:1 5:1 6:1 7:-4 8:-2

89023579807 1:2 2:-5 3:-4 4:-2 5:-1 7:3 8:3

89023591625 1:-9 2:-1 3:1 5:-1 6:-3 7:-5 8:2

89023591625 1:4 2:-1 3:-4 4:-1 5:-2 6:-1 7:4 8:4

89023600657 1:-3 2:-3 3:-1 7:-2 8:-3

89023600657 1:5 2:1 3:-2 4:-1 7:3 8:4

89023615594 1:4 2:3 3:1 5:-1 6:-2 7:-2 8:10

89023615594 1:1 2:1 3:-1 4:-1 5:-2 7:2 8:-7

89023617124 1:13 3:3 4:3 5:-1 6:1 7:4 8:16

89023617124 1:-12 3:-8 4:-10 5:-2 6:-3 7:-7 8:-16

89023638092 1:-2 2:-3 3:-1 4:-2 6:-2 8:5

89023638092 1:9 2:2 4:-2 5:-1 6:-3 7:-8 8:-3

89023639642 1:-46 2:-4 3:-5 4:-1 5:-2 7:9 8:6

89023639642 1:16 2:2 3:6 4:2 5:1 6:-3 7:-9 8:-4

89023651808 1:-1 2:-2 3:-4 4:-1 5:-1 6:4 7:6 8:-1

89023651808 1:-4 2:-2 4:1 5:1 7:-8 8:-3

89023660666 1:9 2:1 4:-2 6:-3 7:-6 8:-9

89023660666 1:-1 2:-2 3:-1 4:-1 5:-1 7:3 8:8

89023675750 1:-20 2:-1 3:-3 4:-1 5:-1 6:-1 7:-6 8:-8

89023675750 1:9 2:-1 3:-2 4:-1 5:-1 6:2 7:4 8:4

89023677188 1:20 2:2 3:-7 4:-2 5:-1 6:-1 7:-5 8:-6

89023677188 1:-15 2:-3 3:-2 6:1 7:1 8:2

89023698197 1:10 2:1 3:2 4:-1 7:-2 8:-2

89023698197 1:-12 2:-3 3:-3 4:-2 5:-3 6:-1 7:-1 8:-2

89023699644 1:5 2:-3 3:-5 4:-4 5:-2 6:-1 7:-6 8:-17

89023699644 1:10 2:3 3:3 4:3 5:1 6:-4 7:-3 8:4

89023711880 1:-3 2:-4 3:-2 4:-1 6:2 7:-4 8:-4

89023711880 1:-2 2:-2 3:-2 4:-2 5:-2 6:-2 7:3 8:2

89023720667 1:-45 2:-5 3:-3 4:-3 5:-2 6:-1 7:-1 8:-4

89023720667 1:6 5:-2 6:-1 7:3 8:2

89023735505 3:-2 5:-2 7:-8 8:-3

89023735505 1:-11 2:-2 3:1 4:-1 7:6 8:1

89023737074 1:-4 2:-2 3:1 4:2 5:-1 6:1 7:-7 8:-5

89023737074 1:40 2:2 3:-5 4:-3 7:17 8:35

89023757884 1:-9 2:2 3:2 6:-5 7:-10 8:-3

89023757884 1:3 3:-2 4:-2 6:-2 8:-1

89023764258 1:6 2:2 3:-1 5:-1 6:-1 8:-1

89023764258 1:-8 2:-3 4:-2 5:-3 6:-1 7:-9 8:-2

89023771861 2:-3 3:-2 4:-1 5:-2 6:1 7:13 8:1

89023771861 1:1 2:-1 3:-1 5:-1 6:-3 7:-3 8:-1

89023780677 1:9 2:-1 3:1 4:-1 5:-2 8:4

89023780677 1:-12 2:-2 3:-3 4:-2 5:-1 6:-2 7:-6 8:-8

89023795705 1:5 3:-2 6:-1 7:-3 8:1

89023795705 1:-11 2:-4 3:-5 4:-4 5:-4 6:-3 8:-5

89023797125 1:-4 2:-2 3:-5 4:-4 5:-2 6:-2 7:5 8:-4

89023797125 2:-2 3:2 4:2 5:-1 6:-2 7:-6 8:-8

89023818017 1:-4 2:-1 3:-1 4:-8 5:1 6:-1

89023818017 1:1 2:-1 3:-4 5:-1

89023819584 1:6 2:-1 3:-1 4:-1 5:1 7:-1 8:2

89023819584 1:-5 2:-1 4:1 5:-1 6:-1 8:-4

89023831746 1:2 2:-2 3:-1 4:1 5:-2 6:-2 7:1 8:-2

89023831746 1:-4 2:-1 4:-1 7:-1 8:-1

89023840649 1:7 2:1 3:1 4:-3 5:-3 6:-2 7:-4 8:2

89023840649 1:-7 2:-5 3:-4 4:-3 5:-2 6:2 8:-5

89023855049 1:-24 2:-4 3:1 4:-1 5:-2 7:-4 8:-4

89023855049 1:7 2:-1 3:-2 4:-4 5:-3 6:-4 7:1 8:5

89023861684 1:1 2:1 3:4 4:2 6:-2 7:-3 8:-2

89023861684 1:1 3:-1 4:-2 6:-1 7:-1

89023878055 1:-5 2:-2 3:-4 4:-1 5:-1 6:-1 8:-2

89023878055 1:-3 2:-3 4:-2 5:-2 7:-1 8:-4

89023879681 1:5 2:-2 3:-1 7:-2

89023879681 1:-6 2:1 4:-1 6:-2 7:-2 8:-3

89023900660 1:11 3:-3 4:-2 6:-1 7:-1 8:-3

89023900660 1:-3 2:2 3:2 4:2 6:-2 7:-4 8:-3

89023902112 1:7 5:-2 8:4

89023902112 1:-2 2:-1 3:-2 4:-1 5:-3 6:-1 7:-5 8:-3

89023916366 1:4 3:1 5:-3 6:-1 7:6 8:3

89023916366 1:1 2:1 4:-1 5:-3 6:2 7:5 8:1

89023921698 1:-14 2:-3 3:-2 6:-3 7:-8 8:-4

89023921698 1:6 2:1 3:-2 5:1 7:5

89023938039 1:2 3:1 4:2 5:-1 6:-3 7:-9 8:1

89023938039 1:-1 2:-1 3:-2 4:-2 6:1 7:8 8:1

89023939615 1:1 2:-2 3:-2 5:-4 8:-3

89023939615 1:-5 4:-1 5:-2 7:-2 8:-3

89023960725 1:2 2:-1 4:-2 6:-2 7:-3 8:2

89023960725 1:-4 3:-2 4:-1 7:-2 8:-5

89023962146 1:-9 2:-2 3:-2 4:-2 5:1 6:-1 7:-3

89023962146 1:21 2:2 4:-2 5:-2 6:-4 7:2 8:-7

89023975700 1:-2 3:2 4:1 7:-1 8:1

89023975700 1:-2 2:-2 6:-3 7:-5 8:-4

89023977174 1:4 3:-1 4:2 5:-1 6:-1 8:-1

89023977174 1:-11 2:-3 3:-2 4:-1 5:-2 7:-1 8:-1

89023998208 1:8 2:3 3:-1 4:-2 5:-1 6:1 7:-4 8:-5

89023998208 1:-53 2:-5 4:-2 5:-1 6:-1 7:4 8:-3

89023999669 1:16 2:3 3:2 4:-2 5:1 6:-4 7:4 8:4

89023999669 1:1 2:-2 3:2 4:2 5:-2 7:-1 8:-1

89024020693 1:4 3:-4 4:-2 5:-2 6:-1 7:3 8:2

89024020693 1:9 2:-2 3:-1 4:1 6:3 7:-6 8:-5

89024022105 1:-2 2:2 3:5 4:-1 5:-1 7:-1 8:-2

89024022105 1:-10 2:-4 3:-5 4:-4 5:-1 6:-2 8:1

89024034898 2:-2 5:-3 7:-1 8:-2

89024034898 1:8 2:-2 3:-2 4:-1 6:-1 7:-5 8:-3

89024041954 1:-1 2:-3 3:-3 5:-1 6:1 7:6 8:-2

89024041954 1:6 2:1 3:-1 4:1 6:-3 7:-4 8:4

89024058172 1:-6 2:-1 3:-2 4:-1 6:-1 7:-2 8:-3

89024058172 1:-1 2:2 3:-1 4:-2 5:-1 6:-2 8:-4

89024059557 1:13 2:-3 3:-3 4:-2 7:-4 8:11

89024059557 1:-13 2:-4 3:-2 4:-1 5:-1 7:-1 8:-2

89024080550 2:-1 3:-2 5:-3 6:-1 7:5 8:4

89024080550 1:2 3:1 4:-1 5:-3 6:-1 7:-4

89024082125 1:-7 2:-2 3:-1 4:-2 5:-3 6:-3 8:-6

89024082125 1:1 2:-2 3:-2 4:-1 5:-2 7:-1 8:-1

89024095090 1:-2 3:1 6:3 7:4 8:-3

89024095090 1:-18 2:-5 3:-3 4:-3 5:-4 6:-3 7:-2 8:8

89024101640 1:-11 2:2 3:1 5:-1 6:-7 7:-15 8:-5

89024101640 1:5 3:-1 4:-3 5:-1 6:-2 7:6

89024118168 1:-6 2:-2 3:-2 4:-1 6:-2 7:10 8:-6

89024118168 1:10 3:1 4:1 6:2 7:-5 8:-1

89024119668 1:1 2:-2 3:-5 4:-2 5:-2 7:-2 8:1

89024119668 1:-11 2:-1 3:1 4:-1 5:-1 6:-1 7:-3 8:-2

89024140523 1:7 2:-1 3:-1 4:-2 6:-2 7:-7 8:-4

89024140523 1:-6 2:-1 4:-2 5:-2 6:-4 7:1 8:-3

89024142155 1:8 4:-1 5:-2 6:3 7:4 8:1

89024142155 1:9 3:-1 4:-1 6:1 7:-3 8:-1

89024154330 1:-3 2:-2 3:-1 4:-2 5:-2 6:-1 7:-3 8:-4

89024154330 2:-1 3:-1 4:1 5:-1 6:-1 8:-2

89024163828 1:-4 2:-2 3:-3 4:-2 5:-1 6:1 7:-4 8:-3

89024163828 1:-6 2:-2 3:-2 4:-1 6:-1 7:-1 8:5

89024177568 1:-2 2:-2 3:-1 4:-1 6:-1

89024177568 1:5 2:2 4:-2 5:-2 6:-2 7:-2 8:-2

89024178040 1:8 2:-1 3:-1 4:1 5:-1 6:1 7:1 8:-1

89024178040 1:-6 2:-3 3:-4 4:-3 5:-2 6:-3 7:-5 8:4

89024208006 1:5 2:-4 3:-5 4:-4 5:-3 6:-6 7:-6 8:2

89024208006 1:3 3:5 4:1 6:-1 7:1 8:-3

89024208941 1:2 2:-3 3:-4 4:-1 5:-2 6:1 8:1

89024208941 1:-2 3:-1 4:-4 5:-2 6:-1 7:4 8:-7

89024223079 1:-2 2:-1 3:-2 5:-1 7:-1 8:-1

89024223079 1:6 2:-1 3:-1 4:-1 6:-1 7:-4 8:2

89024223821 1:-8 2:-1 4:-2 5:-1 6:-3 7:-1 8:-5

89024223821 1:5 5:-2 7:-2

89024237368 1:-5 3:1 6:1 7:2

89024237368 3:-1 4:-2 6:-2 8:2

89024238162 1:3 2:-1 3:4 4:-1 5:1 8:3

89024238162 1:-5 2:-1 3:-2 4:-1 5:-2 6:-2 7:2 8:-4

89024259871 1:3 2:-1 5:-1 6:-1 7:4 8:4

89024259871 1:-5 2:-2 3:-4 4:-1 5:-2 6:-1 7:-5 8:-4

89024260593 1:-5 2:-1 3:-2 4:-3 5:-2 6:-1 7:3 8:-3

89024260593 1:-4 2:1 5:-3 7:-5 8:-4

89024274344 1:-4 2:-3 3:-2 4:-2 5:-1 8:1

89024274344 1:10 3:-2 4:-2 5:-1 6:-1 7:5

89024282582 2:-1 3:-1 6:-2 7:-4 8:-4

89024282582 1:-13 2:-3 3:-3 4:-1 5:-2 6:2 8:3

89024297449 1:15 3:-4 4:-3 5:-3 6:-3 7:-7 8:11

89024297449 1:13 2:-1 3:-4 4:-3 5:-3 6:-2 7:-1 8:2

89024298177 1:-7 3:-1 6:-2 7:5 8:5

89024298177 1:-2 3:-1 4:-1 5:-1 6:-1 7:-3 8:-8

89024319974 1:-10 2:-4 3:-1 4:-2 5:-1 6:-1 7:-1 8:-8

89024319974 1:4 2:-1 3:-1 4:1 5:-1 6:-2 7:-1

89024320659 1:-4 2:-1 3:-2 4:-2 5:-1 6:-1 7:-2 8:-4

89024320659 1:5 2:-1 4:1 5:2 6:-1 7:1 8:3

89024334241 1:-4 2:-5 3:-6 5:-1 7:-1 8:-6

89024334241 1:10 3:-3 4:-2 5:-2 7:-6 8:5

89024342422 1:-23 2:-3 3:-2 4:-1 5:-1 6:-1 7:-3 8:-8

89024342422 1:5 2:2 3:2 5:1 6:-2 7:-2

89024357365 1:-3 2:1 3:1 5:-2 7:1 8:1

89024357365 1:-10 2:-3 3:-1 4:-1 5:-1 6:-2 7:-2 8:-4

89024357990 1:3 3:-4 4:-2 5:-3 6:-1 7:1 8:1

89024357990 1:1 2:-1 4:-2 5:-2 6:-1 7:-1 8:-1

89024379892 1:-6 2:1 3:2 4:1 5:1 7:-5 8:-5

89024379892 2:-1 3:-3 4:-1 5:-1 7:1 8:1

89024380589 1:-8 2:-3 5:-1 8:-5

89024380589 1:11 4:-1 5:1 6:2 7:-2 8:-1

89024394332 1:-20 2:5 3:2 4:1 5:1 6:-2 7:-2

89024394332 1:-3 2:1 5:-2 6:-1 7:8 8:-1

89024402345 1:6 2:-2 3:-4 4:-2 6:-2 7:-3

89024402345 1:-13 2:-4 3:-4 5:-2 7:-4 8:-2

89024417442 1:3 2:-4 3:-2 4:-1 6:-1 7:-2 8:-1

89024417442 1:-2 2:-2 3:-1 4:-1 5:-1 7:-6 8:-1

89024418074 2:-1 3:-2 4:1 7:-1 8:1

89024418074 1:1 2:-2 3:-1 4:-2 5:-2 6:-3 7:-1 8:-1

89024439862 1:8 2:1 4:-3 5:-2 7:-4 8:-1

89024439862 1:-18 2:-3 4:-1 6:-1 7:5 8:-5

89024440649 1:18 2:1 3:-1 4:-1 5:-1 6:-1 7:-5 8:1

89024440649 1:4 3:-1 4:-1 5:-3 6:-1 8:-1

89024454178 1:-2 2:-2 4:-1 5:-1 6:-3 8:-1

89024454178 1:-2 2:-1 4:1 5:-1 6:-1 7:-2 8:6

89024462435 1:-5 2:-1 3:-1 4:-2 5:-4 6:1 7:1 8:-3

89024462435 1:-2 2:1 4:-1 5:-2 6:-3 7:-1 8:1

89024485522 1:-1 2:1 3:-1 4:-2 5:-1 7:-2

89024485522 1:3 2:-2 3:-4 4:-2 5:-2 6:-1 7:-1 8:-2

89024486302 1:5 2:-2 4:-1 6:-2 7:-11 8:-6

89024486302 1:-27 2:-6 3:-4 4:-3 5:-2 6:-6 7:3 8:-20

89024499992 1:-17 2:-3 3:-1 4:-1 5:-1 6:-2 7:-2 8:-4

89024499992 1:6 4:-2 5:1 6:-1 7:-5

89024500588 2:-1 4:-1 6:-1 8:-2

89024500588 1:-2 3:-2 4:-1 6:1 7:-2 8:3

89024514444 1:5 3:-1 4:-3 5:-2 6:-1 7:3

89024514444 1:-4 2:-2 4:1 6:1 7:-6 8:-6

89024522585 1:-8 2:-2 3:-2 4:-1 6:-1 7:1 8:7

89024522585 1:22 3:-3 4:-2 5:-4 6:-1 7:-3 8:3

89024537431 1:1 4:1 5:1 6:-3 7:-1 8:1

89024537431 1:7 2:-1 4:-3 5:-2 6:-1 8:-1

89024538159 1:1 4:1 5:-2 7:1 8:-1

89024538159 1:-3 4:1 5:2 6:-1 7:-1 8:2

89024559774 1:1 3:-4 4:-1 5:-2 6:2 7:-1 8:-2

89024559774 1:-4 3:-3 4:-2 6:-1 7:-2 8:-5

89024560574 1:-6 2:-1 3:2 4:-3 5:-2 6:-1 7:2 8:-1

89024560574 1:-1 2:-1 3:-2 4:-1 6:-1 7:1

89024574327 1:1 2:-1 3:-2 4:-3 5:-2 7:-10 8:-3

89024574327 1:-1 2:-4 3:-2 4:-2 5:-2 6:-5 7:10 8:10

89024582399 1:3 4:-2 5:-1

89024582399 1:-5 2:-1 3:1 5:-2 6:-1 7:-1 8:3

89024597430 1:-13 2:-3 3:-3 4:-2 5:-1 6:-2 7:-11 8:-8

89024597430 1:-1 3:1 4:-2 5:-1 6:-1 7:-5 8:-6

89024598064 1:1 2:-1 3:-2 4:-2 5:-1 6:-3 7:-1 8:-4

89024598064 2:1 3:-2 4:1 8:5

89024620004 1:3 2:-2 4:-1 6:-1 7:2 8:-3

89024620004 1:1 2:-2 3:-4 4:-4 5:-2 6:-1 7:-2 8:-4

89024620581 1:-7 2:-1 3:-1 5:1 7:1 8:1

89024620581 1:5 2:1 3:1 4:-1 5:-1 7:-2 8:-6

89024634327 1:6 2:-1 4:-2 5:-1 6:-1 7:3 8:4

89024634327 1:-9 2:-1 3:-2 4:-1 5:-1 6:-1 7:-3 8:-2

89024642561 1:9 2:2 4:1 5:-2 6:-3 7:-1

89024642561 1:-2 2:-1 4:-2 6:-2 7:-1 8:1

89024657557 1:2 3:1 4:2 5:-1 7:4 8:1

89024657557 1:-6 2:-1 7:-8 8:-5

89024658008 1:-2 2:-6 3:-8 4:-3 5:-3 6:-3 7:9 8:7

89024658008 1:8 2:3 3:2 4:1 5:-1 6:-1 7:-3 8:4

89024679762 1:3 2:-3 3:-1 6:-1 7:-1 8:1

89024679762 1:-34 2:-4 5:-2 7:1 8:-4

89024680553 1:1 2:1 4:-1 5:-2 6:-1 7:-6 8:1

89024680553 1:-4 2:-3 3:-3 4:-4 5:-1 7:-2 8:-3

89024694323 1:3 2:-1 3:-1 4:-3 5:-2 7:4

89024694323 1:13 2:1 3:-2 5:-1 7:-3 8:3

89024702547 1:-4 2:-1 3:-2 5:1 7:-1 8:-3

89024702547 1:-12 2:-4 3:-2 4:1 5:-2 6:-4 7:-2 8:-4

89024717455 1:10 2:2 3:-4 4:-1 5:-1 6:-2 7:-4 8:2

89024717455 1:4 2:1 3:1 4:1 6:-2 7:-3 8:-6

89024718038 1:-3 2:-1 3:-1 5:-1 8:-2

89024718038 1:7 2:-1 3:-1 4:-1 5:-3 6:-1 7:-2

89024740044 1:-6 2:-2 3:-3 4:-1 5:-2 6:-3 7:-1 8:-1

89024740044 1:5 2:-2 3:-2 4:-1 5:-1 6:-2 7:1 8:-1

89024740663 1:1 2:-1 3:-1 4:-1 5:-1 6:-1 7:-1

89024740663 1:-5 2:-2 5:-2 6:1 7:-2 8:-2

89024754184 1:-16 2:-4 3:-1 5:-2 6:-1 7:1 8:-8

89024754184 1:-2 2:-1 3:-3 4:-3 5:-2 6:-2 7:-3 8:9

89024762375 1:1 2:-1 3:2 5:1 8:12

89024762375 1:-3 2:-3 3:-2 4:-3 6:-3 7:1 8:-2

89024777303 1:-1 5:-1 6:-1 7:-8 8:-4

89024777303 1:6 2:-2 3:-3 5:-1 6:2 7:4

89024778116 1:-2 2:-2 3:-1 5:-1 6:-2 7:-1 8:-3

89024778116 1:-1 2:-1 3:-2 4:-2 5:-1 6:-1 7:-2 8:-3

89024799822 1:5 3:-1 4:-1 7:-1 8:1

89024799822 1:-36 2:-1 4:-2 5:-1 6:-1 7:1 8:-2

89024800719 1:-2 2:-4 3:-1 4:-2 5:-1 6:-1 7:-2 8:-7

89024800719 1:9 2:2 3:-1 4:-1 6:-3 7:1 8:7

89024823218 1:9 2:1 3:-1 4:-1 5:-2 6:-1 8:-4

89024823218 1:11 4:-1 5:-2 6:-1 8:-6

89024823770 1:-1 2:-1 3:-2 4:-2 5:-2 6:-1 7:-1 8:-2

89024823770 1:-12 2:-3 3:-2 4:-1 5:-2 6:-1 7:-4 8:-3

89024837576 1:12 3:-1 4:-3 6:-1 7:2 8:1

89024837576 1:11 4:-1 5:-2 6:-1 7:-3 8:6

89024838076 1:-5 3:-1 4:-2 5:-1 6:-2 7:1 8:-4

89024838076 2:-1 4:-2 5:-1 6:5 7:-1 8:-11

89024859810 1:5 2:-1 3:-1 5:-1 6:-3 7:11 8:14

89024859810 1:9 2:4 3:3 4:3 5:1 6:-2 7:-6 8:-13

89024860536 2:1 3:-1 4:-1 5:-1 6:-2 7:-5 8:-4

89024860536 1:-4 2:-1 3:-1 6:-1 7:3 8:-2

89024883042 1:-8 2:-1 3:2 4:-1 5:1 7:-3 8:-4

89024883042 1:1 2:-2 3:-5 4:-3 5:-1 7:-3 8:-2

89024883798 2:-2 3:1 5:-3

89024883798 1:3 2:-2 3:-1 4:-2 5:-1 7:-4 8:1

89024897403 1:-5 2:-2 3:-3 4:-1 6:-1 7:-2 8:-3

89024897403 1:-8 2:-3 3:-2 4:1 5:-1 6:-1 7:2 8:1

89024898144 1:-9 2:-1 4:-3 5:-1 7:-3 8:-3

89024898144 1:9 2:-2 3:-3 4:-1 5:-2 6:-1 7:2 8:19

89024920037 3:-1 5:-2 6:-2 7:-3 8:-9

89024920037 1:-5 2:-2 4:-1 5:-2 7:2 8:-1

89024920671 1:-1 2:-1 3:-2 4:1 5:-3 6:-1 7:-1 8:-4

89024920671 1:1 2:-2 3:-1 4:-1 6:-2 7:-7 8:-2

89024942940 1:-4 2:-1 3:-1 4:-1 5:-1 6:1 7:-2 8:1

89024942940 1:9 2:-2 3:-3 4:-2 5:-2 6:-1 7:2 8:-1

89024943735 1:5 2:-1 3:-1 4:-1 5:-1 6:-5 7:-8 8:4

89024943735 1:-8 2:-2 3:-3 4:-3 5:-1 6:-2 7:11 8:7

89024957338 1:-1 2:-1 5:-2 6:-1 7:-9 8:-17

89024957338 1:-1 2:-1 3:-1 4:-1 5:-1 7:5 8:-2

89024958056 1:-1 2:-2 3:-1 4:-1 5:-1 6:1 7:1 8:2

89024958056 1:-6 2:-2 3:-2 4:1 5:-1 7:1 8:-9

89024979827 1:-4 2:-4 3:-2 4:-3 7:-4

89024979827 1:-6 2:-2 4:-3 5:-1 6:-2 7:-1

89024980787 1:-2 2:-3 3:-2 4:-2 5:-1 6:-2 7:1 8:-8

89024980787 1:13 2:2 3:-1 4:-1 6:-2 7:-2 8:-3

89025002958 1:-6 2:-1 3:1 4:-2 5:-1 7:-2 8:2

89025002958 1:3 2:-2 3:-1 4:-1 6:-2 7:-3 8:-2

89025003827 1:-7 2:-1 3:-4 4:-2 5:-1 7:1 8:-1

89025003827 1:-5 6:-1 7:-5 8:-6

89025017341 1:1 2:-2 4:-1 5:-1 6:-1 7:2 8:3

89025017341 3:-1 5:-2 6:-2 7:-1 8:-3

89025018082 3:1 4:-2 5:1 7:-2 8:-3

89025018082 1:-37 2:-5 3:-3 4:-2 5:-3 7:2 8:-8

89025040047 1:39 2:6 4:-1 5:-4 6:-8 7:3 8:19

89025040047 1:-15 2:-2 3:-1 4:-1 5:1 6:-2 7:-11 8:-10

89025040655 1:2 4:-1 5:1 7:8 8:4

89025040655 1:10 2:1 5:-1 7:-7 8:-7

89025062982 1:-13 2:-1 3:-3 5:-1 6:1 7:3 8:-2

89025062982 1:-1 3:-2 6:-1 7:-3 8:-2

89025063754 1:8 2:-1 5:-3 7:-5 8:-1

89025063754 1:1 3:-1 4:-2 7:4 8:7

89025077334 1:14 2:1 3:1 5:-2 6:-1 7:-4 8:5

89025077334 1:9 2:1 3:1 4:-1 5:-2 6:-2 7:1 8:3

89025078220 1:-17 2:-7 3:-5 4:-1 6:-1 8:-2

89025078220 1:19 2:3 4:-2 5:-3 6:-3 7:1 8:3

89025099850 1:-14 2:-3 3:-1 4:-2 7:3 8:4

89025099850 1:32 2:2 4:-1 5:-1 7:-2 8:3

89025100566 1:-9 5:1 6:-1 7:-1

89025100566 1:-2 2:-3 3:-2 4:-1 7:-4 8:-3

89025123044 1:-5 2:-1 3:-1 6:1 7:3 8:-8

89025123044 1:-12 2:-2 3:-5 4:-3 5:-1 6:-3 7:-4 8:-4

89025123869 1:23 2:3 3:-2 4:-2 5:-2 6:-2 7:-2 8:17

89025123869 1:11 2:-4 4:-3 8:7

89025137436 1:-15 3:-1 5:-3 6:-2 7:-4 8:-8

89025137436 1:-15 2:-1 6:1 7:4 8:1

89025138054 1:-5 2:-1 3:-2 4:-1 5:-3 7:-4 8:-6

89025138054 1:-12 2:-1 3:-1 4:-2 5:-1 6:-2 7:-4 8:-4

89025159979 2:-2 3:-1 4:-3 5:-1 7:-1

89025159979 1:-3 2:-2 3:-2 4:-2 5:-2 6:-2 7:-3 8:-1

89025160612 1:-4 3:1 4:1 6:-3 7:1 8:-3

89025160612 1:5 2:-3 3:-3 4:-1 5:-2 7:4 8:-2

89025183072 1:-13 2:-5 3:-1 4:-3 5:1 6:-1 7:-6 8:-3

89025183072 1:19 2:-3 3:-4 4:-4 5:-4 6:-3 7:-7 8:-13

89025183858 1:-31 2:-2 3:3 4:1 7:2

89025183858 1:-3 2:-1 3:-1 5:-1 6:-1 7:2 8:-1

89025197584 1:-1 2:-1 3:-4 5:-2 7:-3 8:-2

89025197584 1:-6 2:-1 3:-1 4:-1 5:-1 7:4 8:5

89025198168 1:10 3:-2 4:-2 5:-1 6:-2 7:-3 8:-5

89025198168 1:-2 2:-1 3:1 5:-1 6:-1 7:-5 8:-5

89025219847 1:-13 2:-4 3:-2 4:-1 5:-1 6:-2 8:-2

89025219847 1:2 2:-1 3:-2 4:-2 5:-2 6:-2 7:-1 8:2

89025220624 2:-2 4:-1 5:1 7:-5 8:-1

89025220624 1:-23 2:-2 3:-2 4:-1 5:-3 6:-3 7:-1 8:-25

89025245047 1:10 5:-2 6:1 7:-7 8:-5

89025245047 1:-6 2:1 3:-1 4:-2 5:1 7:7 8:7

89025245074 1:5 3:-1 5:-1 6:-2 7:-2 8:-3

89025245074 1:-3 2:-1 3:1 5:-1 6:-2 7:-1 8:-2

89025257332 1:-3 2:-1 3:-2 5:-1 6:-1 7:4

89025257332 1:-1 2:-3 3:-2 4:-1 5:1 6:-1 7:-2 8:-4

89025257979 1:-6 2:-1 3:-3 4:-2 5:-1 6:-1 7:-2 8:-3

89025257979 1:5 2:-4 3:-3 4:-2 5:-1 6:-2 7:-6 8:2

89025279754 1:-22 2:-3 3:-4 4:-2 5:-3 6:-3 7:2 8:-5

89025279754 1:-4 2:1 3:1 4:1 6:1 7:2 8:7

89025280521 1:7 2:-2 3:-4 4:-2 5:-1 7:-1

89025280521 1:-6 2:2 5:-1 6:2 7:-2 8:-1

89025302895 1:7 2:-1 3:1 5:-1 6:-2 7:-3 8:3

89025302895 1:-8 2:-2 7:1 8:-8

89025303657 1:-3 3:-1 4:-1 5:-2 6:1 7:-2 8:-4

89025303657 1:11 2:-1 3:-2 5:-1 6:-2 7:-2 8:4

89025317302 1:-2 3:-1 4:-1 5:1 7:3 8:-1

89025317302 1:-1 2:-3 6:-3 7:-4 8:-2

89025318080 1:-28 2:-5 3:1 4:-1 5:-1 6:-1 7:3 8:-11

89025318080 1:58 2:7 3:1 4:2 7:4 8:27

89025340069 1:-21 2:-3 4:-4 5:-1 6:-2 7:-1 8:-24

89025340069 1:-2 2:-2 3:-2 5:-3 7:-4 8:1

89025340665 1:2 2:1 3:-2 5:-1 6:-2 7:1

89025340665 1:-18 2:-2 3:-1 6:-1 7:-5 8:-5

89025363207 1:3 2:-4 3:-4 4:-2 5:2 7:1 8:5

89025363207 1:11 2:2 3:1 4:-2 5:-2 7:1 8:3

89025363767 1:2 2:-2 4:-2 5:-2 6:-3 7:-4 8:-4

89025363767 1:-8 2:-2 3:1 4:-2 5:-1 6:-1 7:1 8:3

89025376604 1:7 2:3 3:1 4:-2 5:-1 6:-2 8:4

89025376604 1:-12 3:-1 4:-1 6:-3 7:-1 8:-5

89025384961 1:5 3:-2 4:-1 6:-2 7:-1 8:4

89025384961 1:-7 2:-3 3:-1 4:-1 6:-2 7:-4 8:-8

89025399855 1:-5 4:1 6:1 7:2 8:4

89025399855 1:3 2:-1 4:-1 5:-1 6:-1 7:-6 8:-1

89025400555 1:1 2:-2 3:-2 4:-2 5:-3 6:-1 7:3 8:-6

89025400555 1:-7 3:-1 4:-1 5:-1 6:-1 7:-3 8:-1

89025422746 1:8 3:2 4:1 5:1 7:-2 8:-1

89025422746 1:-9 2:-4 3:-6 4:-3 5:-2 7:7 8:-4

89025423589 1:24 2:4 3:2 5:-2 6:-4 7:-7 8:-1

89025423589 1:-10 2:-1 4:-1 5:-2 7:1 8:-4

89025436650 1:5 2:-1 3:-2 5:-1 6:-1 7:-3 8:3

89025436650 1:-7 2:-2 3:-2 4:-1 5:-2 6:2 7:-1 8:-3

89025445139 1:-11 2:-3 3:1 6:1 7:2

89025445139 1:-3 2:-2 3:-2 4:-2 6:-1 7:-1 8:-1

89025459874 1:1 2:-1 4:-2 5:-1 6:-2 7:-1 8:-2

89025459874 1:2 2:-2 3:-1 4:-1 5:-1 6:-3 7:-2 8:2

89025460797 1:4 3:-1 4:1 6:-1 7:1

89025460797 1:40 2:1 5:-1 6:-1 8:10

89025483244 1:7 2:6 3:5 4:2 5:3 6:1 7:-1 8:1

89025483244 1:3 2:-2 3:-2 4:-1 5:-3 7:2 8:3

89025483771 1:4 2:2 3:-2 4:-2 5:-2 7:-3 8:1

89025483771 1:-5 2:-2 3:-2 4:-2 6:-2 7:4 8:-1

89025496899 1:-6 2:-4 3:-4 4:-2 5:-4 7:-3

89025496899 1:3 2:1 3:1 4:-1 5:-1 6:-1 7:-3 8:2

89025504896 1:1 3:-2 4:-1 5:1 6:2 7:-1 8:-2

89025504896 1:-14 3:1 4:-1 5:-1 6:-3 7:-5 8:-5

89025519990 2:-3 3:-3 4:-2 5:1 6:1 7:2 8:-1

89025519990 1:-19 2:-3 3:-2 4:-2 5:-1 6:-2 7:-2 8:2

89025520549 1:3 2:-3 3:-3 4:-3 5:-1 7:-1 8:-5

89025520549 1:-11 2:-2 5:1 6:-1 7:-6 8:-6

89025543033 2:-1 3:-1 5:-3 6:-1 7:-2 8:1

89025543033 1:4 4:1 5:-1

89025543815 1:-5 2:-2 3:-2 5:-1 6:-1 7:-1

89025543815 1:-8 2:-2 3:-1 4:-2 5:-1 6:1 7:-1 8:-3

89025556824 1:-1 3:-2 4:-1 5:-2 6:-3 8:-2

89025556824 1:-5 4:2 8:-5

89025564867 1:-25 2:-4 3:-3 4:-2 5:-1 6:-1 8:6

89025564867 1:5 2:-1 3:-1 4:-1 5:-1 8:-4

89025595656 1:3 2:-4 3:-2 4:-1 5:-3 6:-3 7:2 8:1

89025595656 2:2 3:1 4:-1 5:1 6:-2 7:-11 8:-5

89025596481 1:2 2:-1 3:-1 5:-2 6:-2 7:2 8:3

89025596481 1:-8 2:-1 3:-2 5:-1 6:-2 7:-1 8:-1

89025603064 1:-3 4:-2 7:-11 8:-5

89025603064 1:4 2:-1 3:-1 5:-1 6:-2 7:12

89025603836 1:2 2:-3 3:-2 4:-1 5:-1 6:-2 7:-2 8:-6

89025603836 1:-5 3:-2 4:-3 5:-1 6:-1 7:-3 8:-1

89025616829 1:1 2:-1 4:-2 5:-1 7:-3 8:-3

89025616829 1:8 2:-2 3:-1 4:-2 5:-2 6:-2 7:-8 8:-2

89025624846 1:-10 2:-1 3:-1 4:-3 5:-1 6:-3 7:8 8:10

89025624846 1:4 2:-1 3:-2 5:-1 7:1 8:6

89025639797 1:-5 2:-2 5:-2 6:-1 7:-1 8:1

89025639797 3:-1 4:-1 5:-1 7:-1 8:2

89025640627 1:6 2:-2 3:-3 4:-3 5:-2 7:-2 8:-6

89025640627 1:-6 2:-1 3:-1 4:1 5:-1 6:-3 7:-2 8:-5

89025663144 1:-3 4:-2 5:-1 6:-3 7:2 8:-1

89025663144 1:1 2:-1 3:-2 5:-1 7:-1 8:4

89025663831 1:10 2:-1 7:-2 8:16

89025663831 1:-2 2:1 3:-1 4:-2 5:-2 6:2 7:-1 8:-10

89025676874 1:3 2:-2 3:-3 4:1 5:-3 6:2 7:5 8:2

89025676874 2:-3 3:-3 4:-1 5:-1 6:-3 7:-3 8:-5

89025685033 1:-4 3:1 6:-1 7:-3 8:1

89025685033 1:-9 2:-2 3:-2 4:-1 5:-1 6:-2 7:-1 8:-5

89025700028 1:8 3:1 4:-1 5:-3 6:-3 7:1 8:5

89025700028 1:-1 2:-1 3:1 4:-2 5:-2 6:-1 7:-2

89025700698 1:7 2:-1 3:-2 4:-2 5:-3 6:-1 8:-8

89025700698 1:-2 2:-2 3:-1 4:-2 5:-2 6:-1 7:1 8:-3

