timestamp,emg1,emg2,emg3,emg4,emg5,emg6,emg7,emg8
85909204148,-1,-3,-3,1,-2,-1,-1,-2
85909204148,1,-1,-2,-1,-2,-1,0,-1
85909204954,1,-1,-2,0,-2,0,-1,-1
85909204954,1,-1,0,-2,1,0,-2,3
85909226696,5,-2,-1,-3,1,-1,-1,-1
85909226696,11,7,2,3,1,0,-2,-2
85909227490,2,0,-1,-2,-4,-2,-3,2
85909227490,-3,-3,-3,-1,-1,-1,-1,-1
85909249791,3,2,-1,0,3,-3,0,0
85909249791,-1,-1,-1,-2,-2,-2,-2,-1
85909250567,8,-2,0,1,-1,-2,0,0
85909250567,-7,-7,-1,-3,-1,-3,-1,-2
85909272344,-4,-14,-1,-2,0,-2,-2,2
85909272344,-5,0,-1,1,1,0,1,0
85909273129,1,1,0,-1,-2,0,-1,-3
85909273129,2,0,-2,1,1,0,-1,-2
85909294832,-14,-3,-1,-1,-4,-2,0,-1
85909294832,-3,1,2,-2,-3,-3,-2,-4
85909295596,1,2,-1,-1,1,-3,-1,-1
85909295596,1,3,0,-1,-1,-1,-2,-3
85909309810,-5,-4,-2,-2,-2,-2,-2,0
85909309810,-4,-2,-3,-1,-2,0,-1,-1
85909310566,-4,0,-1,-2,-1,-2,-3,1
85909310566,10,-1,0,1,-2,-2,0,-1
85909324132,1,2,0,1,0,0,-1,-1
85909324132,1,-4,-2,0,-2,0,-3,3
85909324932,-1,-4,-2,-2,0,-4,-2,-1
85909324932,-8,-7,-4,-2,-2,-2,-2,0
85909346736,11,8,-2,0,-3,-1,0,-1
85909346736,7,11,2,1,1,1,0,-1
85909347472,2,2,0,-6,-3,-2,0,1
85909347472,-5,1,-2,1,-1,-3,-4,-2
85909369876,-5,-3,-2,1,-1,0,0,-1
85909369876,10,-1,0,0,2,-1,-1,-5
85909370618,-6,-3,-1,-1,-2,-2,0,-2
85909370618,7,6,-2,-1,0,-2,1,0
85909384077,0,3,1,-3,-1,-3,-3,0
85909384077,-3,-4,-3,-3,-3,-1,-1,-1
85909384893,-5,-9,-1,1,1,1,-2,-3
85909384893,-1,-2,-1,-2,-1,0,1,-2
85909406680,0,-6,-3,-4,-3,-2,0,-1
85909406680,-2,1,0,-1,-2,-1,-3,-3
85909407361,-5,-16,-2,-1,-3,-1,0,0
85909407361,-5,0,-1,-1,-2,1,-2,0
85909430010,-1,-2,-3,1,1,-1,0,-1
85909430010,-2,-5,-2,-3,-4,-2,-1,-1
85909430612,1,6,1,-2,-1,0,-1,-1
85909430612,2,-3,-3,1,0,1,-1,0
85909444372,1,-1,-1,-1,0,-1,-1,-2
85909444372,-2,-3,-2,-1,0,-3,1,-1
85909444980,9,3,1,-3,-3,0,0,-2
85909444980,-3,0,-1,-3,-1,1,-2,0
85909466623,-3,1,-2,1,-1,0,0,-1
85909466623,-6,-11,0,-1,-1,-2,0,0
85909467408,-1,2,-3,0,-3,0,-1,-1
85909467408,14,2,2,-1,-3,-2,-2,-1
85909497316,-6,1,0,-2,-2,0,-2,-3
85909497316,3,-2,-2,0,-1,-1,-3,-1
85909498125,-4,-2,-2,0,-1,-1,-1,-2
85909498125,-1,-2,-2,-1,-1,-1,0,-3
85909504129,-5,-1,-3,0,0,1,-1,-1
85909504129,4,10,0,1,1,-1,-2,-1
85909504908,-1,1,-1,-4,-1,-1,-2,2
85909504908,-9,-3,-2,-1,-2,-3,-2,-4
85909526712,3,0,1,-1,1,-1,1,-1
85909526712,-3,-1,-3,-3,-3,-1,-1,-1
85909527404,-4,-5,-2,1,-1,-2,0,-3
85909527404,5,-1,0,-1,-2,-1,-2,-1
85909549798,-2,-2,1,-4,-1,-1,0,0
85909549798,-11,-5,-2,-2,1,-2,-3,-2
85909550599,7,2,1,0,1,-1,0,0
85909550599,5,-1,-1,-1,-2,-2,1,-1
85909563898,-2,1,1,1,0,0,-1,0
85909563898,4,-12,-4,-4,-2,-1,2,0
85909571715,-5,2,-1,0,0,1,-2,1
85909571715,-14,-2,-2,0,-1,-1,1,-1
85909586674,-8,-5,-3,-2,-3,-2,-2,0
85909586674,0,2,1,0,1,-2,0,2
85909587479,-1,1,-2,1,1,-3,-1,-4
85909587479,7,0,-1,-3,-1,-1,1,1
85909609962,-5,1,-3,-1,-1,-1,-3,-2
85909609962,-8,-1,-1,0,-3,-2,1,0
85909610707,-3,0,-1,0,0,-2,-2,-2
85909610707,-4,0,-1,-6,-5,0,-1,0
85909624364,4,-2,1,3,2,0,1,-1
85909624364,2,2,-4,-3,-3,-2,-3,0
85909624949,-1,-1,-1,2,-1,-1,0,-1
85909624949,-2,-1,1,2,0,-3,-5,-2
85909646880,1,-1,-6,-9,-1,-1,1,0
85909646880,0,0,4,-1,-2,2,-1,-1
85909647543,-5,-2,-5,1,-3,-1,-2,-2
85909647543,-3,-3,0,0,-1,-1,-1,0
85909669935,4,-1,-3,-2,-3,1,-1,-2
85909669935,-2,-1,-1,5,-4,-8,-1,-1
85909670694,-1,0,0,-8,3,2,0,1
85909670694,1,-1,-2,0,1,0,-4,-2
85909692596,0,0,4,6,-2,-5,-1,-1
85909692596,0,-2,-1,-4,-3,6,3,-1
85909693182,-2,-5,-7,-22,-8,-7,-1,-3
85909693182,-2,-1,-4,-7,1,0,1,3
85909706647,-3,0,3,13,-3,2,-1,-3
85909706647,-1,-2,-1,0,1,-2,-2,1
85909707506,0,0,3,-3,1,3,0,-1
85909707506,-2,0,2,-10,0,-1,1,-1
85909729317,-2,-5,-7,-7,-3,-4,-2,-2
85909729317,-1,2,0,8,6,2,2,0
85909730030,0,0,1,5,0,8,-2,1
85909730030,-1,1,0,9,8,-7,-5,0
85909744390,2,-1,2,-6,-1,10,1,2
85909744390,2,0,-3,-2,-4,-18,-7,0
85909744968,1,-4,-3,-2,-7,-2,1,-2
85909744968,3,2,1,8,1,-1,1,1
85909766857,2,2,-8,-8,-4,0,0,4
85909766857,-3,-4,-1,-8,1,10,6,2
85909767430,10,2,4,7,2,8,-1,13
85909767430,-43,-11,-3,3,-13,-17,-10,-46
85909789443,29,2,0,3,8,10,-2,14
85909789443,-27,-7,-2,-9,3,-15,1,-26
85909790032,1,11,-1,-4,-9,6,-2,1
85909790032,15,-3,1,-5,-8,6,0,6
85909803722,-4,-3,-2,0,-5,-6,-4,-4
85909803722,-1,0,-1,5,-1,4,0,9
85909811905,-7,-4,-5,2,8,-10,5,5
85909811905,-1,2,3,-5,-14,-11,-10,-9
85909827002,11,0,0,4,13,1,3,8
85909827002,11,3,-1,4,0,6,5,12
85909827512,-1,-8,-5,1,-4,13,1,-10
85909827512,14,3,-4,0,0,2,7,24
85909849251,-8,0,1,-1,-2,-24,-6,-21
85909849251,32,14,3,0,0,21,1,17
85909850025,-62,-11,-2,0,1,-20,-8,-51
85909850025,10,-2,-2,-1,1,22,1,13
85909863756,6,0,-3,-6,-1,-31,-4,-7
85909863756,-10,1,-2,0,9,23,0,6
85909871895,45,3,1,-1,-9,-6,-3,29
85909871895,-49,-3,-1,-2,3,5,2,-36
85909886681,-1,2,4,0,-13,-18,-16,-10
85909886681,14,-5,-9,-7,2,2,12,5
85909887453,7,3,2,0,-7,20,-3,20
85909887453,-18,-3,0,4,11,-27,10,8
85909909173,33,5,2,-7,2,26,13,22
85909909173,-56,-10,0,0,-5,-16,-17,-43
85909909933,31,8,3,2,-10,-12,-4,8
85909909933,59,-1,-2,-7,8,20,16,55
85909923506,-100,-8,-4,-1,-1,6,-17,-80
85909923506,-6,-9,-1,-1,-8,-26,-19,-17
85909931645,-8,-5,1,-3,2,2,2,-11
85909931645,19,2,-4,3,-2,-11,-11,7
85909946620,28,7,-4,-5,3,24,11,18
85909946620,11,9,3,2,-3,3,7,11
85909947480,-8,0,-1,0,-4,-33,-11,-9
85909947480,4,2,-10,-6,-5,3,9,1
85909969193,10,1,5,12,11,28,-15,14
85909969193,-12,-12,1,-2,-10,-37,1,-5
85909969935,8,1,-2,6,17,25,17,36
85909969935,-16,-2,3,1,-9,6,-4,-42
85909983516,-10,-4,-8,0,-4,-27,-2,11
85909983516,24,2,-4,3,9,24,-5,-13
85909991665,-48,-11,-3,-6,-4,-12,6,-31
85909991665,-22,-9,-2,-9,-10,3,-9,2
85910006634,-7,-16,1,2,-7,-20,7,8
85910006634,13,-1,-3,-4,-10,-11,-12,0
85910007456,90,5,-4,0,0,-25,6,56
85910007456,-97,-12,-2,6,0,25,-12,-74
85910029177,29,4,4,0,14,17,11,23
85910029177,-6,-8,-1,-5,3,16,7,13
85910029968,7,-2,9,1,-15,-18,-20,3
85910029968,20,6,-3,1,-2,-9,0,21
85910043448,-2,-1,-1,-5,4,3,1,-5
85910043448,-7,-2,-5,1,-4,0,1,-2
85910051696,-26,-4,-8,-5,-2,2,-2,-24
85910051696,20,0,-1,-4,-3,-19,4,10
85910066651,-16,-3,-4,-2,-9,0,-15,-10
85910066651,12,2,0,-3,12,22,15,13
85910067404,-17,4,2,2,11,-19,-9,-22
85910067404,0,1,-1,-1,0,-11,-6,-2
85910089185,20,5,4,1,-3,12,13,16
85910089185,-1,11,2,1,-10,-10,-18,7
85910089987,-27,-10,-9,-8,-6,17,11,-30
85910089987,38,2,9,6,13,29,1,43
85910112346,-34,-10,-14,-17,-18,-46,-15,-39
85910112346,8,8,7,10,17,-11,2,19
85910113123,0,-1,1,-4,-3,21,1,3
85910113123,-2,-3,-3,-2,-7,-12,-7,-12
85910126714,1,-1,-6,3,-2,3,10,12
85910126714,-1,-3,-3,-2,-13,-10,-1,-5
85910127450,2,-2,-7,-9,-4,-39,-22,-2
85910127450,10,-5,-2,0,15,43,8,1
85910149149,4,-4,0,0,-3,1,12,11
85910149149,-4,-4,3,-2,-6,-8,-1,-5
85910149928,4,4,4,12,9,31,-4,-5
85910149928,-4,1,-9,-5,-15,-48,-12,1
85910172366,-4,-1,1,-3,14,36,1,-1
85910172366,7,1,-2,-6,-13,-18,-5,-1
85910173143,-7,-1,-4,2,5,4,14,6
85910173143,-1,3,-2,-6,-12,-4,-4,-3
85910186630,0,-13,-1,6,-8,-38,-4,22
85910186630,-21,0,-2,-4,21,50,3,-28
85910187409,5,-3,-3,1,-11,6,-2,9
85910187409,-1,-3,4,9,5,-14,-8,-9
85910209115,5,0,-5,-15,-4,-1,-4,-1
85910209115,-13,-3,-11,-6,-11,-21,-7,-19
85910209897,2,-3,-2,-1,5,-11,2,12
85910209897,6,7,9,13,20,30,14,15
85910232336,16,0,-2,-7,-14,-3,-10,1
85910232336,-15,-6,0,2,-4,-10,-4,-7
85910233108,4,-3,-7,-1,0,0,0,32
85910233108,1,-1,-4,-3,2,-5,-2,-33
85910246646,-7,2,3,-5,-11,1,-1,2
85910246646,8,1,-1,-3,2,-6,-5,-3
85910247453,-4,3,11,10,0,13,1,-4
85910247453,-3,-4,-10,-22,-12,-17,-2,8
85910269118,-2,-1,-7,-1,0,-2,-3,-13
85910269118,9,0,0,-4,-11,7,6,23
85910269938,-11,-9,1,6,14,-1,-8,-38
85910269938,1,-1,0,-6,-11,-4,7,11
85910292427,3,1,6,-4,-18,-8,-7,-14
85910292427,7,-4,3,-2,9,14,8,41
85910293130,36,10,1,-11,-7,2,10,34
85910293130,-63,-6,5,2,2,-6,-14,-69
85910306633,4,-3,-1,2,1,3,9,27
85910306633,-14,-5,0,-2,-9,-8,-5,-3
85910307403,-14,-6,3,-4,2,-3,0,-5
85910307403,27,2,1,2,1,4,2,26
85910330436,-3,7,-2,4,7,0,-7,-7
85910330436,-14,-15,1,0,-1,-3,-3,-29
85910331208,-6,-5,-1,0,-1,2,2,-5
85910331208,4,-3,1,1,-5,-3,-3,8
85910352355,-6,-1,7,2,4,3,2,-8
85910352355,8,6,-3,5,10,-5,-1,4
85910353142,0,2,-1,-6,-15,10,0,-10
85910353142,8,-4,-6,-2,3,-5,0,8
85910366610,-2,-3,5,7,8,5,5,5
85910366610,10,3,-9,0,12,-1,2,16
85910367417,-23,-1,-2,-5,-13,-2,-8,-19
85910367417,6,-2,-3,0,4,2,4,13
85910389194,-18,-8,-9,1,7,0,-3,-8
85910389194,4,-3,5,14,12,13,8,-10
85910389954,-8,-6,-4,5,0,-9,-4,9
85910389954,11,2,-5,-13,-6,-7,-21,-51
85910412310,16,7,-1,6,-1,-1,2,6
85910412310,0,-6,5,1,-4,-1,-1,24
85910413106,13,7,-15,-12,1,1,6,-15
85910413106,2,1,-2,-3,-3,-1,3,25
85910426684,-10,1,0,2,5,0,1,-15
85910426684,19,7,5,-1,-10,-4,3,-12
85910427466,-8,-8,-2,-2,3,-2,-4,3
85910427466,4,7,10,10,3,1,1,37
85910449277,5,-5,4,1,-2,1,10,-16
85910449277,2,1,-1,-19,-8,-4,-7,9
85910450019,-25,7,4,5,2,-4,-2,0
85910450019,13,-8,-6,-17,-8,-4,-8,1
85910472429,-50,-8,-5,0,-2,-1,-2,0
85910472429,40,12,3,-4,-7,-2,0,2
85910473182,-27,-8,-4,-2,-1,-6,-5,-12
85910473182,-10,-10,-8,3,-7,15,-10,-3
85910486714,-14,5,-1,-9,-1,-32,-1,-16
85910486714,11,8,2,8,6,12,3,7
85910487433,-6,-1,-10,-6,-5,-11,1,-24
85910487433,15,11,8,3,9,18,5,1
85910509203,6,-11,-3,1,-7,-4,-19,7
85910509203,-27,0,-6,-6,-16,-31,-35,-27
85910509905,6,-3,6,24,31,49,28,47
85910509905,27,-1,-4,-14,-15,-8,37,17
85910532567,-22,4,11,3,1,10,7,46
85910532567,-18,-12,-12,-16,-21,6,-19,-32
85910533131,-1,-9,0,-1,3,-46,-75,-25
85910533131,0,13,5,16,16,45,80,34
85910546751,19,-4,-18,-19,-13,-58,-60,-14
85910546751,18,-4,-4,15,14,2,28,10
85910547553,-8,-4,-1,-6,-1,9,2,10
85910547553,-5,2,5,-1,4,8,-7,-7
85910569338,21,7,18,5,-3,24,-2,-9
85910569338,2,-3,8,-6,2,-6,-16,-3
85910570002,20,2,7,3,-19,-8,12,-8
85910570002,-24,-8,-3,-19,-10,-23,-22,-2
85910592599,9,-4,-7,11,-1,3,10,-4
85910592599,4,2,-1,0,-5,4,-6,17
85910593170,-27,-1,-8,-15,11,12,29,-15
85910593170,-1,0,7,18,4,-24,-25,-21
85910606702,0,-1,-7,-14,0,12,7,3
85910606702,2,5,8,11,2,2,23,26
85910607449,-23,0,5,4,-6,-8,-9,-39
85910607449,-3,-5,-6,-5,-3,-10,-21,0
85910629333,0,5,8,14,11,4,2,-15
85910629333,-19,-1,-8,-5,2,1,8,9
85910629966,30,2,1,-9,-14,4,9,16
85910629966,8,-3,-1,13,4,-10,-18,7
85910652405,0,3,6,3,2,10,17,2
85910652405,-16,-4,-7,-2,-3,-6,-1,-11
85910653153,-17,-7,-17,-15,-2,-5,-16,-4
85910653153,-3,-4,-3,3,-15,-9,6,1
85910666889,5,-1,-9,-16,-1,5,2,10
85910666889,-11,-4,4,13,-1,2,4,1
85910667526,11,0,-8,-8,-1,-12,-6,-3
85910667526,-3,1,4,6,8,10,-2,-11
85910689224,-3,6,-7,-8,-2,1,9,9
85910689224,-9,-8,-3,-8,-1,-8,-7,-12
85910689976,-2,3,10,17,0,-5,2,3
85910689976,-11,3,-1,1,12,5,0,-14
85910712409,18,1,3,-11,-12,-3,-4,6
85910712409,-12,-3,-2,3,14,12,12,-11
85910713208,29,-1,1,-6,-9,-5,-2,15
85910713208,-1,0,-3,-7,-10,-9,-10,2
85910725969,-4,-1,0,8,6,2,6,0
85910725969,3,-4,-3,-4,2,3,-1,-5
85910734273,10,1,-5,-10,-4,5,8,22
85910734273,-30,-15,-2,-1,1,-8,-19,-67
85910749174,5,-6,-6,0,0,-1,-1,-1
85910749174,-1,2,1,-2,-7,-5,-1,7
85910750046,4,0,-6,-1,-1,-1,-6,-2
85910750046,21,2,-2,-9,-5,-1,6,26
85910772399,-19,0,-2,1,2,-1,-3,4
85910772399,-5,-3,-3,5,0,-9,-8,-18
85910773150,-3,-1,0,-15,-10,5,0,-8
85910773150,6,1,5,0,-3,-3,1,16
85910786065,-3,-3,11,4,7,1,0,-6
85910786065,1,2,3,-3,-3,0,-3,2
85910794265,3,0,10,1,-2,-2,1,8
85910794265,-1,1,-3,-1,-1,-4,6,9
85910809194,-19,-1,1,3,-1,5,1,-23
85910809194,0,-2,-10,-17,2,1,3,2
85910809990,2,2,7,12,10,0,-1,-7
85910809990,-4,1,-4,3,4,5,1,-2
85910832543,16,-4,-7,-3,-1,-3,-8,19
85910832543,7,7,8,-15,-12,-3,-1,0
85910833121,-2,-5,-6,3,-5,-4,-4,-6
85910833121,2,3,-1,3,7,-1,2,4
85910846086,11,3,-2,3,-4,-5,-4,7
85910846086,3,-9,-14,-8,-3,5,3,-2
85910854193,-12,-7,-4,-8,-8,-1,0,-9
85910854193,1,1,5,8,7,1,4,20
85910869201,0,-9,-3,4,2,6,5,-4
85910869201,8,5,1,5,-4,-5,-7,10
85910870043,8,12,-5,-1,3,5,5,7
85910870043,-22,-6,2,1,-6,-8,-4,-4
85910892489,16,9,-8,-7,-1,-2,-4,-10
85910892489,-5,4,-1,3,0,-3,-2,-23
85910893210,-31,-9,-2,1,-1,-6,-21,-37
85910893210,35,8,-1,-5,-4,2,9,-1
85910906066,-2,3,-4,-1,0,4,16,19
85910906066,-24,-17,-5,3,-6,-7,-17,-40
85910914206,69,10,-2,-10,1,3,38,103
85910914206,-71,-15,2,0,-3,-7,-34,-98
85910929397,2,-6,1,-9,-6,-1,5,24
85910929397,8,-4,6,-1,-9,-14,-10,-9
85910930003,-11,6,13,12,17,16,0,-9
85910930003,5,-6,-11,-16,-11,-6,-27,-6
85910952366,0,3,1,-1,-9,18,39,19
85910952366,-19,1,3,1,-3,-34,-31,-17
85910953147,20,-3,-5,2,-2,-6,6,67
85910953147,-1,6,3,1,7,10,11,-21
85910966222,-17,3,-3,4,2,-5,-31,-50
85910966222,5,0,-6,-6,-3,21,14,37
85910975088,-1,10,13,12,4,4,-36,-46
85910975088,1,-14,-13,-8,5,-1,54,47
85910988676,20,-4,5,-6,-9,36,4,-15
85910988676,-4,9,3,5,9,-30,12,1
85910997536,-18,1,-4,3,-8,-22,-58,-72
85910997536,12,6,-5,2,-6,16,38,77
85911012312,-1,-4,-21,-7,6,-28,-2,-12
85911012312,-3,-2,-4,4,0,38,22,6
85911013945,-20,-8,-1,1,-1,-21,-13,-35
85911013945,21,2,7,-4,-4,-14,-16,19
85911026172,-11,-7,14,-4,-7,-12,-9,9
85911026172,2,-1,5,-11,-7,12,-5,-10
85911035061,-6,-3,-6,-8,1,3,27,13
85911035061,-2,-1,-1,6,9,2,-17,-8
85911048645,8,-3,-2,4,0,1,6,10
85911048645,-9,-4,-1,0,1,-3,-8,-5
85911057539,-2,-4,0,2,-2,4,9,4
85911057539,2,0,-4,-1,-5,-6,-1,-2
85911072408,-16,-3,0,0,7,-3,-20,-13
85911072408,10,-1,-1,0,0,-3,4,10
85911073981,-6,-3,-3,-2,-1,0,12,6
85911073981,1,0,-1,1,-1,-2,-12,-8
85911094874,0,-1,1,0,-4,-7,0,2
85911094874,1,4,1,1,-1,0,-2,4
85911096485,5,-2,-4,-5,-1,4,12,5
85911096485,-11,-1,3,-1,-1,-2,-9,-8
85911108503,-3,1,-5,-5,-5,-3,-10,-2
85911108503,1,1,-3,-1,0,0,5,6
85911117492,-20,-5,-1,1,-3,0,-5,-23
85911117492,6,-2,-4,-1,-6,-6,-4,7
85911132362,1,2,-1,2,2,-2,0,5
85911132362,-7,-7,-2,-2,0,0,-2,-6
85911133936,-7,-4,0,-3,-4,2,8,4
85911133936,11,-2,-2,-4,-4,1,-4,2
85911154868,-2,-1,3,6,1,-11,-6,-4
85911154868,-1,-6,-8,-7,-3,8,-2,3
85911156485,12,1,0,-1,0,1,3,1
85911156485,-2,0,-2,-1,-5,-10,-4,-9
85911168520,-6,-4,2,2,-2,-9,3,3
85911168520,1,0,4,2,8,5,-8,1
85911177507,0,-4,-2,-1,-1,14,8,6
85911177507,-2,1,1,-5,-3,2,3,1
85911192439,-5,-3,-2,-4,-5,-3,-5,-7
85911192439,-2,-1,-2,-1,-7,-16,0,-3
85911193956,-1,0,-2,-1,-1,7,-4,-1
85911193956,-2,-2,-3,-2,0,-8,-7,0
85911214895,-1,0,1,9,3,4,0,-4
85911214895,-7,-4,-1,2,-1,-4,0,3
85911216469,-22,-18,-3,-8,0,6,-5,-2
85911216469,-3,2,-4,5,-10,-20,-2,-2
85911237368,0,-2,-3,-11,-2,-8,1,-1
85911237368,-1,0,1,11,4,11,2,-2
85911238969,3,2,-3,-5,-2,0,2,-1
85911238969,-3,0,0,-24,-1,3,-1,6
85911252379,-7,-6,-1,0,2,0,-3,-5
85911252379,4,0,1,5,-5,-10,-5,0
85911253950,0,4,3,8,-4,-3,-3,-2
85911253950,-2,-2,-2,4,1,16,-2,-13
85911274852,6,3,-1,1,-1,-14,-1,12
85911274852,2,-1,-2,-8,0,1,3,-1
85911276407,1,-2,-4,2,0,-9,-3,0
85911276407,-4,-3,-1,-2,-1,12,-2,-1
85911288539,-1,-2,-3,-3,0,-2,0,-6
85911288539,-2,-3,-2,0,-2,15,-1,-1
85911297498,0,3,0,-4,-4,-26,2,2
85911297498,0,-3,0,20,3,2,-1,1
85911312626,-2,-1,1,17,-5,6,-2,-5
85911312626,1,-2,-7,4,-4,-1,-2,3
85911314019,1,1,6,54,4,3,-2,-1
85911314019,0,0,-7,-77,-5,-2,-2,-2
85911334980,-3,-2,1,15,-2,-8,0,-1
85911334980,-3,-7,1,10,0,4,-5,-3
85911336437,2,-2,-6,13,-1,-20,-3,-1
85911336437,0,1,4,28,7,10,1,1
85911348701,-5,-2,-2,-39,-4,-7,-11,-4
85911348701,6,-2,-16,-64,-9,6,13,-4
85911357498,-1,1,4,26,0,11,0,3
85911357498,-3,-2,2,28,-1,-15,-4,0
85911372502,3,1,-4,4,2,4,0,0
85911372502,-1,1,5,5,1,-5,-3,-4
85911374040,1,7,-2,14,-2,-10,-4,1
85911374040,23,5,3,-4,-2,0,4,0
85911394949,-9,1,3,-8,4,9,0,-1
85911394949,-2,-1,0,38,4,-2,1,-1
85911396502,-1,-5,-9,-56,-13,6,-1,0
85911396502,-13,-2,-3,18,-3,-14,-6,-2
85911408648,-1,-2,-3,-11,3,12,3,-3
85911408648,3,4,6,56,4,-6,-1,3
85911417534,2,1,-3,-40,-2,-5,2,-3
85911417534,-8,-8,-9,-42,-12,-6,-5,1
85911440080,2,1,3,23,3,7,2,-1
85911440080,-2,1,3,3,5,6,-1,-3
85911441514,-1,0,4,-14,-4,-12,0,-2
85911441514,-4,-3,2,29,2,15,1,0
85911455068,1,-1,-2,-12,-4,-15,-2,-2
85911455068,1,1,1,-12,0,-2,-3,3
85911456459,2,-1,1,-7,1,9,4,0
85911456459,-2,2,0,-19,2,5,2,0
85911468564,-1,-3,-4,5,-5,1,-3,-4
85911468564,-2,-4,0,-18,-2,-8,0,-2
85911477493,0,-2,2,24,4,4,-1,-1
85911477493,-6,-6,-7,-24,-12,-11,-5,-3
85911492349,-2,-3,-2,-24,-3,5,0,1
85911492349,-10,-3,-2,3,-4,-14,-2,-2
85911494047,-3,4,-1,-7,-3,6,0,-1
85911494047,7,1,2,13,3,-1,2,0
85911515003,-3,5,3,21,4,0,-1,-1
85911515003,11,-3,-11,-72,-16,-3,0,1
85911516500,-3,-3,3,60,10,-2,-1,-2
85911516500,-11,-5,-11,-96,-9,1,-1,-3
85911528707,7,0,-2,11,-5,-1,-1,-3
85911528707,-3,0,2,34,3,-5,-2,-1
85911537475,0,-3,-2,-18,-3,5,-1,-1
85911537475,3,-3,2,41,9,2,0,-1
85911552302,-3,-4,-7,62,-2,0,0,-2
85911552302,-2,1,4,-4,-5,-3,-3,-1
85911553963,-2,-7,-14,-65,-14,-7,-6,-3
85911553963,-1,4,5,53,6,1,0,-1
85911574797,6,1,-11,-67,-12,-4,-4,-4
85911574797,4,2,2,-14,6,2,2,2
85911576465,-9,-12,2,38,7,2,-1,0
85911576465,-3,7,0,-1,-8,-8,-4,0
85911588518,4,1,0,3,1,-1,-1,1
85911588518,-1,-1,-3,-26,-3,4,-1,-1
85911597482,-7,-4,0,0,-2,-2,-3,-4
85911597482,6,2,3,37,3,0,-1,4
85911612399,-6,-6,-1,-18,0,-1,-2,2
85911612399,-8,0,1,36,4,-4,-4,1
85911613978,1,2,5,-28,-6,0,-2,3
85911613978,-3,-5,-2,24,-1,-4,-2,-3
85911635008,-23,-4,1,8,2,-1,-3,0
85911635008,-10,-1,1,5,-1,-6,-3,0
85911636419,11,3,-1,-28,-4,-2,-1,1
85911636419,-6,-6,3,4,-1,-2,-2,0
85911648735,0,-16,-1,-1,0,1,0,2
85911648735,-29,-15,-6,-13,-3,-4,-5,-5
85911657423,3,5,3,28,2,0,0,2
85911657423,-10,-3,3,-11,0,-1,-1,-5
85911672531,-4,-1,2,-8,0,-1,1,1
85911672531,7,0,-3,-28,-2,-3,0,-5
85911673995,-5,-3,0,12,3,-3,-1,-9
85911673995,-12,-7,-1,-17,0,-1,0,-2
85911695003,18,6,-3,-40,-7,1,2,-3
85911695003,-11,1,0,6,0,1,-2,-1
85911696422,0,-7,-1,-1,-3,-4,0,-5
85911696422,5,4,-3,2,0,0,-2,-4
85911708575,1,4,2,15,1,-2,-3,-4
85911708575,2,5,1,-1,1,0,1,-2
85911717486,5,4,-1,6,1,2,-1,-3
85911717486,-2,-6,-3,12,-1,0,-2,0
85911732413,5,-1,1,5,2,1,-1,1
85911732413,11,0,-4,-22,-4,-1,0,1
85911733937,-12,4,-1,14,-1,0,-2,1
85911733937,3,-3,-2,-9,-2,-1,-2,0
85911754918,-7,-1,-5,-2,-3,-1,0,-2
85911754918,7,2,0,8,-2,1,0,-1
85911756455,2,-2,-4,-8,-1,0,0,3
85911756455,15,8,-3,-6,-2,0,0,4
85911768495,6,20,9,40,7,2,1,-2
85911768495,4,-3,-2,-24,-7,-1,-1,-2
85911777548,4,2,0,2,2,1,-2,0
85911777548,-7,-5,-2,9,0,-2,-3,5
85911791884,10,-1,-3,-9,-3,0,-2,-5
85911791884,-7,-2,2,44,2,0,0,-1
85911798516,0,0,0,-13,-1,0,0,2
85911798516,-2,2,-3,-12,-2,-1,1,-2
85911814876,-7,0,0,3,-1,0,-1,1
85911814876,7,2,-1,0,-1,-2,-1,1
85911816440,-24,-11,-5,-1,-2,-1,-1,-3
85911816440,21,-7,-3,5,2,-1,-1,-3
85911828750,-8,-6,-1,-8,-3,-3,-3,-4
85911828750,2,-2,-2,3,-2,0,1,0
85911837604,1,4,-4,-8,-3,-2,-1,-4
85911837604,-8,2,-1,-5,-1,-2,-2,0
85911851849,-7,-4,-3,15,1,0,-1,1
85911851849,4,-4,-2,-23,0,-1,-1,1
85911858699,19,-4,0,-2,-5,-2,-2,2
85911858699,-13,4,2,10,1,-2,-1,-6
85911875038,-16,-4,-5,-23,-6,-1,0,5
85911875038,-15,-1,-4,11,0,-3,-2,-5
85911876513,-23,0,-1,17,-2,-3,-3,0
85911876513,10,8,1,-12,-4,-1,-1,-3
85911888710,-10,-21,-2,6,-1,-2,-1,-1
85911888710,0,0,1,19,4,0,0,-1
85911897610,5,0,-5,-31,-7,-1,0,5
85911897610,3,-5,-3,14,2,-2,-2,-3
85911911781,3,3,3,7,3,1,0,-1
85911911781,-4,1,-3,-8,-3,-3,-2,1
85911918579,14,-5,2,11,0,1,-2,-3
85911918579,1,-2,0,-4,-4,0,-2,-2
85911934847,7,-3,-4,-12,-5,-2,1,1
85911934847,-2,5,3,11,1,-1,-2,-4
85911936478,23,11,0,2,1,-2,1,-1
85911936478,-16,-17,-5,-13,-3,-3,-1,-3
85911948593,-17,-11,-6,-7,-2,-3,-5,-8
85911948593,8,2,0,2,-1,-2,0,8
85911957506,-9,-7,-3,-2,2,0,-1,-2
85911957506,4,4,0,-8,-4,-2,-1,0
85911971977,6,-3,-1,0,-1,-1,-2,-1
85911971977,14,13,1,1,-1,0,-1,-2
85911978576,-10,0,0,-5,0,1,-2,1
85911978576,2,2,-2,0,-2,0,2,6
85911995076,-14,7,0,1,0,-1,1,0
85911995076,28,7,-1,-3,1,1,2,4
85911996535,-2,-2,-2,-1,-3,-3,-6,20
85911996535,6,0,1,-1,0,1,0,-15
85912017374,-3,-6,-2,-5,0,-1,-4,-2
85912017374,-14,-11,-1,-1,-3,-3,-1,-1
85912019005,-6,6,0,-1,-2,-3,-2,-14
85912019005,-25,-6,-4,-2,-3,-3,-2,2
85912031680,9,5,-1,-3,-2,1,1,2
85912031680,-6,-9,-1,2,0,0,-3,-9
85912038727,1,-1,-1,-2,0,-1,2,-1
85912038727,-4,4,1,0,1,-2,-1,2
85912055007,22,5,2,-1,0,-1,1,-1
85912055007,-7,-5,0,1,-1,-2,-2,-2
85912056513,2,11,0,0,1,0,0,-4
85912056513,2,0,-1,-3,0,1,-1,2
85912077386,-7,-5,-2,1,0,-1,-3,-11
85912077386,7,-2,-3,-3,0,0,0,7
85912078931,4,-4,-2,4,-1,-1,-2,-5
85912078931,12,-1,3,-1,0,-2,-1,-4
85912091827,-8,1,-1,1,-3,-2,-1,-2
85912091827,-2,5,-2,-4,-1,-1,0,-4
85912098542,-14,-10,0,-3,1,0,-1,0
85912098542,-5,-7,-1,0,-1,-2,-1,-1
85912114914,5,1,1,-3,-1,-1,0,3
85912114914,-6,-9,-3,-4,-1,-1,-1,-2
85912116486,-2,-10,0,0,-2,-2,2,-4
85912116486,-8,1,-2,0,1,-1,-2,-1
85912137371,-5,2,2,0,-2,-1,0,1
85912137371,-2,-4,-3,-1,0,-3,-1,-2
85912138966,5,1,0,-2,0,-1,1,0
85912138966,-6,-13,-4,-2,-2,-1,-4,-1
85912151854,3,0,-3,-2,0,-1,-2,-2
85912151854,-2,2,-2,-2,-2,-1,-2,0
85912158678,-4,-4,-1,5,0,2,-2,-7
85912158678,-7,-8,-4,-8,-2,-2,1,3
85912175047,7,-8,2,2,-1,-1,-1,-1
85912175047,-1,-4,2,2,-3,-1,0,-4
85912176482,-8,-8,-1,-4,-2,-1,-1,1
85912176482,17,-8,-2,2,0,0,-2,1
85912197434,-10,-2,-1,3,-1,0,1,0
85912197434,-3,2,-4,-6,-2,0,-1,-1
85912198976,6,1,0,0,0,-2,-1,0
85912198976,-3,6,1,1,-1,1,0,6
85912211922,3,1,-3,-2,-2,-4,-1,1
85912211922,-1,-2,1,4,0,-2,0,-4
85912218542,9,-4,-1,-4,0,-2,-2,-1
85912218542,3,6,0,0,-1,1,0,-2
85912242524,-5,2,-1,-3,1,0,-1,-1
85912242524,-11,-6,-5,-1,-4,1,-2,2
85912243989,6,14,2,0,-1,0,1,0
85912243989,7,3,4,-1,-2,-3,-1,-3
85912257581,1,0,-4,-2,-5,-2,-2,5
85912257581,-1,-7,-1,0,-1,-1,-1,-2
85912258958,14,-7,-4,-2,-1,0,-2,1
85912258958,-12,1,1,2,-1,0,-1,-2
85912271958,6,2,-1,-2,-1,-1,0,-1
85912271958,3,-1,-2,-3,-2,-4,-1,-1
85912278671,-4,2,0,-3,-3,-3,-1,0
85912278671,0,4,-1,-2,-3,-1,0,0
85912294937,-2,-7,-2,-2,0,0,0,-3
85912294937,-2,-1,-1,-1,-1,-1,2,0
85912296483,-14,-4,-2,-2,-1,-2,-1,-2
85912296483,5,-3,-2,-3,-3,-2,-3,-2
85912317459,-10,3,0,-2,-1,-3,-5,-3
85912317459,2,3,1,-3,0,-1,-2,-3
85912318964,0,-2,-1,0,0,1,1,1
85912318964,-9,-4,-2,-2,-1,-2,-1,-1
85912331687,17,6,2,3,2,1,1,-2
85912331687,-3,-13,-1,1,-1,0,-2,1
85912338545,-4,-4,-4,-1,-2,-1,-2,0
85912338545,-2,-3,-3,0,-1,-1,-1,-2
85912354964,-3,-3,-2,-2,0,-2,-2,0
85912354964,-5,5,0,0,1,1,-2,0
85912356535,-1,5,-1,-3,-3,-2,-3,0
85912356535,-6,-4,-2,-2,-2,-2,-1,-2
85912377597,6,-6,-3,-2,-3,-2,-2,-1
85912377597,1,1,0,-1,-2,-2,-2,-2
85912378962,-8,-2,-1,-4,-2,-1,-4,-1
85912378962,-6,0,-1,-1,0,1,-1,0
85912391858,5,13,2,-1,0,-1,0,-5
85912391858,-5,-1,-1,-2,0,-3,-1,-1
85912398702,0,-3,0,-2,-2,-1,1,1
85912398702,4,3,-3,-1,-1,-2,-2,-2
85912414922,-25,-4,-1,1,0,-2,3,-3
85912414922,-6,2,-2,0,0,1,-1,-5
85912416479,-2,5,-1,0,-2,-2,0,-3
85912416479,8,1,-1,1,0,2,-2,0
85912437325,-4,-5,-2,-5,0,-3,-4,-1
85912437325,5,10,1,-2,-1,-2,0,-1
85912443507,-6,1,-2,-2,-2,-1,-2,-3
85912443507,-1,0,1,-2,-2,-3,0,-3
85912451784,-3,-17,-2,-1,-1,-1,-1,-2
85912451784,1,-2,-1,-2,-1,-3,-1,0
85912466095,2,-5,-1,-2,0,0,0,0
85912466095,-10,-4,-3,-2,-2,-3,-1,-2
85912475136,-2,0,-1,-1,-2,1,0,2
85912475136,9,3,-1,-1,0,0,-1,-2
85912476491,-3,-7,-2,-1,-1,-3,0,-6
85912476491,0,0,0,-3,-2,-2,-1,0
85912497531,-2,1,-1,0,1,-1,0,-1
85912497531,-1,-9,-2,1,-2,-1,-1,-1
85912498996,5,11,-1,0,-1,1,-1,0
85912498996,3,2,-1,-1,-2,1,0,-2
85912511205,-1,-10,-2,-2,-1,-3,-1,0
85912511205,5,-2,-1,-1,0,-1,-2,-3
85912520053,-8,0,-3,0,-1,-2,-1,-2
85912520053,-7,-3,-4,1,0,-1,-1,-2
85912535513,2,-1,0,-1,-1,0,-2,-1
85912535513,-3,-2,-2,0,-2,-1,-2,0
85912536981,-1,-7,0,-1,0,-2,1,1
85912536981,4,7,0,-1,1,0,0,-1
85912557553,-1,-2,-1,0,-2,-1,-2,-3
85912557553,-4,-1,0,-1,-1,-1,-1,1
85912558990,-5,-3,-2,-1,-2,0,-1,0
85912558990,0,-4,-2,0,-2,-1,0,-1
85912571105,7,6,0,1,-1,0,1,-5
85912571105,-9,-5,-1,-2,-3,-1,1,3
85912580038,2,0,-2,-4,-2,-3,-1,-1
85912580038,-3,-1,0,0,-1,-1,-2,-2
85912595051,-3,-1,-1,-2,-2,-2,-4,-3
85912595051,7,2,1,1,-2,-1,0,1
85912596441,3,3,0,-2,-1,-1,-3,0
85912596441,7,16,1,0,0,-1,-1,-1
85912617560,-6,-5,-3,-3,-1,-2,0,2
85912617560,17,9,0,-1,-2,0,0,-1
85912618977,1,1,-3,-1,0,1,-2,-1
85912618977,-4,-1,0,-3,-2,-1,-2,-2
85912631070,0,-2,-2,0,0,-1,0,1
85912631070,-8,-4,-3,-1,-2,-4,-3,-2
85912639987,-2,-2,0,0,0,0,-1,-1
85912639987,5,-11,-4,-2,-1,-1,1,1
85912654890,-3,9,0,-2,-3,-2,-1,0
85912654890,-23,-15,-1,0,1,-1,-2,-4
85912656617,1,-6,-1,0,-2,-1,-1,-2
85912656617,-3,-8,-1,-1,-4,-2,-2,-2
85912677354,5,7,0,0,-1,-1,0,6
85912677354,0,-11,-2,-4,-2,-1,-1,-1
85912678996,2,-4,-2,0,1,-2,-1,-1
85912678996,-6,3,-2,-1,0,-3,-2,-3
85912691045,-8,-13,-1,-1,0,-1,-2,-3
85912691045,-7,1,-5,-2,-1,-2,0,-3
85912700019,-5,-4,0,-1,-1,-1,-1,-1
85912700019,8,11,1,-2,-1,0,-1,0
85912714870,1,4,1,1,-1,-1,-1,-2
85912714870,-15,-4,-1,-4,-2,-2,-2,-2
85912716394,-1,-4,1,-1,-2,-2,-2,-2
85912716394,8,6,-1,-1,0,-2,-2,-1
85912737328,-11,1,-4,-3,-2,-2,-2,-3
85912737328,1,-1,-1,-1,0,0,0,8
85912738911,-3,10,0,-1,0,2,-1,-3
85912738911,1,-1,2,0,-1,-1,1,-2
85912759833,-6,-4,-4,-2,-2,1,-2,-3
85912759833,1,3,-1,-1,-3,-2,0,1
85912761394,0,0,0,-3,0,-3,1,-2
85912761394,-4,-12,-1,0,-3,-1,-3,1
85912774791,-7,-2,-1,-1,-1,0,-1,-3
85912774791,25,8,2,2,0,0,-3,-2
85912776421,-1,1,1,0,-1,-2,-2,-1
85912776421,-12,-16,-2,1,0,-1,0,-3
85912797355,7,2,2,0,-1,-1,1,-1
85912797355,-1,3,1,0,-2,-3,-3,-1
85912798950,5,-6,-1,-2,-1,-3,-1,-1
85912798950,-8,-6,-2,-2,-2,-2,-4,-3
85912810942,-3,-15,-1,0,-1,-1,-3,0
85912810942,-6,-1,-2,-1,1,0,-2,-3
85912820024,0,-4,-1,-1,-1,1,-1,-2
85912820024,-4,-2,-3,-4,0,0,2,-1
85912834874,1,6,3,1,-1,1,0,-1
85912834874,-2,0,0,2,1,1,0,-4
85912836406,-5,-6,-1,1,-1,0,-1,-1
85912836406,23,4,0,-2,-1,0,1,0
85912857763,0,-2,-4,-2,0,-2,-2,6
85912857763,-12,-1,1,-1,-3,-1,0,-3
85912863492,-4,0,-1,1,-4,-1,0,-2
85912863492,-25,3,-4,0,0,-2,-2,-1
85912870954,-1,4,0,1,-1,0,1,-2
85912870954,6,0,-1,-1,-1,1,1,1
85912879964,3,-4,-3,-2,0,0,1,4
85912879964,-1,-6,-1,-1,-2,-1,0,-5
85912893865,2,2,-1,-3,1,-4,-1,-2
85912893865,1,2,-3,-2,-1,-1,-2,-3
85912902478,-1,-5,-1,1,-1,-2,1,0
85912902478,11,2,-2,-2,0,-2,-2,2
85912917350,2,0,-1,-1,-2,-1,0,-3
85912917350,0,-2,-1,0,-2,-3,-1,-2
85912918958,7,6,-3,-3,-4,-1,-3,3
85912918958,14,15,6,4,2,2,2,1
85912930953,-6,-5,-4,-1,-2,-2,-1,0
85912930953,-3,-6,-3,-3,-1,-1,-1,-2
85912939984,-3,-2,-3,-1,0,-1,-1,-2
85912939984,-17,-5,-2,-1,-4,-1,-2,-1
85912954824,-4,1,-1,-4,-2,-3,-3,-3
85912954824,4,2,-1,-1,0,0,-1,-6
85912956424,-1,2,-1,-1,-1,0,0,1
85912956424,-2,-3,-3,0,-2,-2,0,-1
85912977307,16,5,-2,0,-1,-1,-1,-1
85912977307,-7,-5,-2,-2,0,-2,-1,-1
85912978973,0,-3,2,0,0,-1,-1,1
85912978973,4,0,0,-1,-1,-1,-1,0
85912999867,-6,-2,-2,-4,-3,1,0,-3
85912999867,0,-1,0,-1,-3,-1,0,-2
85913001427,-2,0,-1,-3,0,0,-2,-3
85913001427,0,-3,1,0,1,1,-1,0
85913014855,-2,1,-3,-1,-1,-1,-2,-1
85913014855,-7,-18,-2,-1,-2,-1,-2,1
85913016470,-9,-3,-1,-2,-3,-2,-1,-3
85913016470,-16,-11,-4,-2,0,-1,-2,-2
85913037349,9,7,0,-1,-1,-1,-1,3
85913037349,-5,6,0,0,0,-1,0,0
85913039000,5,3,-3,0,-1,0,-2,0
85913039000,3,-15,-4,-2,-4,-2,-2,-5
85913059838,3,1,1,0,-1,-1,1,5
85913059838,3,4,0,-1,1,-1,0,0
85913061438,-1,-5,-1,0,0,-2,1,-5
85913061438,7,4,0,-2,-1,-1,-2,-11
85913074808,-3,-6,-3,0,0,0,0,6
85913074808,5,-2,-3,-1,-2,1,-1,2
85913076438,-3,1,1,0,-1,1,5,2
85913076438,0,1,0,-3,-3,-2,-3,-4
85913097289,-7,0,-1,1,-1,-1,-4,-9
85913097289,0,-1,0,0,-1,0,2,6
85913098946,-9,1,0,-1,-2,1,-5,-5
85913098946,-6,1,-1,-2,-1,-1,0,3
85913119902,-2,-20,0,0,0,0,-2,-1
85913119902,-2,2,0,-1,-1,-2,-3,-1
85913121385,5,7,-1,-1,0,-1,-2,-2
85913121385,-5,4,-1,-2,-1,0,-1,2
85913134243,-5,0,-1,-1,-3,-1,-2,-4
85913134243,2,0,-2,-2,0,-1,-1,-5
85913141056,0,4,0,-1,-2,-2,-1,1
85913141056,1,3,0,0,-1,-1,-3,-1
85913157601,0,2,-2,-3,0,0,0,-2
85913157601,4,2,-1,1,0,1,-2,-2
85913159061,-3,-2,-1,-1,-3,-3,-1,1
85913159061,20,7,0,1,2,0,3,1
85913179932,-4,1,-2,-1,-1,-4,2,11
85913179932,-2,-3,-2,-1,-3,-1,-1,-3
85913181520,-11,-4,-2,-4,-2,0,-4,-4
85913181520,-19,-22,-1,-3,-1,-2,-1,9
85913194203,-4,-5,-2,-1,0,-1,-2,-8
85913194203,1,1,-1,1,0,-1,-1,-2
85913201177,-6,-14,-2,-1,1,-1,-1,4
85913201177,2,2,0,-1,0,0,-1,-3
85913217433,-4,4,0,1,0,0,0,-5
85913217433,-5,3,0,-1,-1,-4,-2,0
85913218980,2,10,1,0,0,0,0,-4
85913218980,-9,-2,-2,-3,-2,-1,-4,-6
85913247372,9,3,0,-2,-1,-1,-2,-3
85913247372,0,3,-1,-2,-2,-1,0,-3
85913248989,-17,-4,-4,-2,-1,-2,-1,-6
85913248989,12,2,-4,-1,0,-3,0,2
85913254144,-17,-2,-1,-2,1,-2,0,7
85913254144,-10,-3,-1,-1,-3,-3,-3,-3
85913260947,3,-2,-2,-3,-2,-3,-4,1
85913260947,-2,9,-1,1,0,0,1,-2
85913277326,9,7,-1,-1,1,1,-1,-6
85913277326,-3,2,-1,-2,1,1,-1,2
85913278958,8,-3,1,-1,-1,-3,0,1
85913278958,-5,-6,-1,0,-2,-1,-1,-2
85913299897,1,-7,-2,-1,-1,0,-1,-2
85913299897,-6,1,-1,-2,-3,-1,0,-1
85913301514,3,-1,-2,0,-2,-1,0,-1
85913301514,4,-1,-2,0,0,-1,-2,0
85913314184,4,-3,-2,-2,-2,0,0,0
85913314184,-9,-6,-4,-3,-1,-3,-2,-5
85913321080,-4,-2,-2,-1,-2,-3,0,4
85913321080,-8,-3,-1,0,-1,-1,1,-2
85913337370,-9,9,0,-1,-2,-1,-1,0
85913337370,16,-4,3,1,1,-1,0,-1
85913338873,3,1,-1,-2,1,-1,-1,-1
85913338873,0,8,1,2,1,-1,-1,-1
85913359871,-1,-4,-1,-2,-1,-1,-1,-4
85913359871,-4,0,-2,-2,-1,0,-2,-1
85913361476,3,-3,0,-1,-1,-1,-3,-2
85913361476,1,-4,0,-2,-3,-3,0,1
85913382341,3,0,-2,-2,-4,-2,0,-5
85913382341,-2,-1,0,-1,-1,0,-1,1
85913383981,1,6,-1,1,0,1,1,-2
85913383981,-2,-2,-3,-3,-2,1,-2,-1
85913397531,-5,-6,-2,-1,0,0,-1,-4
85913397531,2,-2,-1,0,-3,-2,-1,-1
85913398996,-9,-3,-4,-2,-2,-1,-2,-4
85913398996,9,1,1,0,-1,-1,0,-1
85913419829,-12,-21,-3,-3,-5,-3,-3,-1
85913419829,0,1,1,-1,0,-2,0,4
85913421426,-8,-6,-2,1,-2,1,-3,-6
85913421426,-6,-7,-1,-2,-1,0,1,5
85913434489,6,14,1,-1,0,-2,-2,0
85913434489,-1,0,-3,-2,-2,-2,-2,-2
85913441015,-2,-6,0,-3,-1,-2,-2,-4
85913441015,-1,0,-2,-2,-2,-4,-2,-1
85913457556,0,2,-1,0,-4,-1,-3,-3
85913457556,-5,-3,-1,-2,-1,0,1,2
85913458984,12,3,-1,0,0,-1,1,1
85913458984,3,-7,0,0,-1,1,1,-1
85913479984,0,-4,-2,-2,0,-1,-2,-1
85913479984,-9,0,-1,-1,-2,-3,-2,-4
85913481383,4,11,1,0,1,-1,-1,1
85913481383,-2,-6,-3,-3,-1,-2,-3,-2
85913493476,10,6,-1,1,-1,-1,0,-2
85913493476,1,-1,0,-1,-2,0,0,-4
85913502474,-8,1,0,-2,-2,-2,0,8
85913502474,-11,-13,-5,-4,-3,-2,-2,2
85913517355,-1,0,1,1,1,-1,-3,-2
85913517355,2,0,0,-3,-4,-3,-2,0
85913519019,-2,-8,-2,-3,-2,-1,-2,-3
85913519019,6,3,-1,0,0,-2,1,-5
85913540123,-4,-3,-1,-1,0,-1,1,1
85913540123,4,1,0,0,-1,1,-1,-2
85913541510,-1,-1,-2,0,-1,0,0,3
85913541510,-5,3,1,-1,0,-1,-4,-4
85913553501,-4,0,-2,-1,-1,-1,-1,-1
85913553501,-7,-2,-6,-1,-1,-2,-2,-1
85913562520,4,-3,1,1,0,0,1,-2
85913562520,-1,1,-1,0,-5,-3,-1,-3
85913577523,10,3,1,-1,0,-1,0,-1
85913577523,4,-2,-1,-2,0,0,-2,-7
85913579026,2,-2,-2,-2,-2,-2,0,2
85913579026,-9,10,0,0,1,0,2,-1
85913599915,-7,-1,0,-2,-1,-2,-1,-3
85913599915,7,8,-1,0,-1,1,0,-2
85913601486,5,1,-1,-3,-1,-1,-1,-5
85913601486,1,5,-1,0,0,1,-1,-1
85913613519,2,-3,-1,-1,-1,-1,-1,-2
85913613519,-3,3,-1,-1,0,-1,0,8
85913622440,-7,-3,-3,-2,-2,-1,-3,-5
85913622440,0,-7,-2,-2,-2,-1,-3,1
85913637561,-5,-2,-1,-1,0,-1,-2,-1
85913637561,3,-11,-3,-1,-2,-3,-2,-3
85913639015,-1,-3,-2,-1,0,-2,0,-1
85913639015,0,-5,-1,-1,-2,0,-1,0
85913659966,1,-1,-2,0,-3,0,-2,0
85913659966,-2,-2,2,-2,0,0,0,1
85913661463,4,0,-1,-1,-4,-2,-1,1
85913661463,-2,6,0,-2,-2,-1,0,-3
85913673501,-2,0,-3,-2,-1,-3,-2,-1
85913673501,-8,-5,-5,-2,-1,-2,-3,-3
85913682448,-9,-19,-2,-3,-1,0,-1,-3
85913682448,-2,-2,-2,0,-1,-1,-1,-4
85913697281,1,1,-2,0,-1,-1,-2,1
85913697281,-22,-3,-3,-1,-2,-3,-1,-6
85913700264,-1,-15,-3,0,-1,-1,-2,-2
85913700264,-5,-5,-2,-1,-2,-3,-2,-2
85913719906,-21,-11,0,-1,-4,-2,2,-5
85913719906,-4,3,-2,-2,-1,-1,0,-1
85913721441,8,9,1,0,0,-1,-1,-2
85913721441,-7,-4,-2,-3,-2,-2,-2,-3
85913733462,1,-6,-1,-1,-1,-1,-1,-2
85913733462,6,2,-1,-2,-1,0,0,2
85913742436,0,3,0,0,0,-1,0,1
85913742436,2,-3,-2,-1,-1,0,-2,-2
85913757476,5,3,0,-3,-1,1,0,3
85913757476,0,-9,0,-2,-2,-1,0,-2
85913758946,-2,5,1,2,-1,-2,-2,-2
85913758946,4,0,-1,-1,-1,0,-1,-1
85913780070,-11,-13,-4,-1,-1,-1,-1,1
85913780070,3,-2,1,2,-1,1,-2,0
85913781462,-7,0,-5,-3,-3,-2,-1,-2
85913781462,0,-4,1,-2,1,0,0,2
85913793595,2,4,0,-1,-1,-3,-1,-2
85913793595,-14,-5,-3,-2,-2,-2,-1,-1
85913802523,21,16,2,0,0,0,0,0
85913802523,9,0,0,-1,0,-4,-2,-2
85913817527,-1,1,-3,-1,-1,0,-2,-1
85913817527,-10,-6,-3,1,-1,0,-1,-3
85913819008,-1,0,-2,-1,-4,0,-2,-1
85913819008,8,13,1,2,0,1,3,-1
85913839844,5,-4,-1,-3,0,-3,-2,-3
85913839844,8,-1,0,-1,-1,-3,-1,0
85913841418,-3,-12,-4,-1,-1,-1,-2,2
85913841418,-10,-5,-4,-1,-2,0,1,5
85913853749,-2,0,-2,1,-1,0,-1,-3
85913853749,5,4,0,2,1,0,-2,-3
85913862523,-7,-3,-1,-2,-2,-1,-1,-2
85913862523,-2,-8,-3,-2,-3,-3,-3,-1
85913877594,5,-1,-2,-3,0,-2,1,1
85913877594,4,-11,1,-2,-1,-2,0,-5
85913878964,-2,8,-3,-3,-1,-2,2,-4
85913878964,-9,-8,0,2,-1,-2,-2,-3
85913899854,-2,-1,0,-1,-2,-1,-1,0
85913899854,6,6,1,-2,-3,0,-1,1
85913901443,-10,-4,-1,-1,-4,-2,-3,-6
85913901443,10,-3,-1,-1,-1,-1,-1,4
85913922479,-4,1,-2,-1,0,-2,-2,-5
85913922479,4,3,1,-1,-1,-2,-2,0
85913923936,-4,5,0,-2,0,0,0,-3
85913923936,-4,-5,-3,-2,-2,-1,1,-2
85913937609,1,0,0,1,0,-1,-1,-6
85913937609,1,0,-1,-1,-1,-2,0,8
85913939054,14,1,0,0,-1,-1,-1,-1
85913939054,6,1,0,1,0,-2,0,-4
85913960333,2,0,-2,-1,0,3,-2,-2
85913960333,-1,-3,-1,-1,0,1,0,-5
85913961919,-6,-4,-1,-1,-1,-1,0,11
85913961919,-9,-1,-1,-2,-1,-2,-1,-5
