timestamp,emg1,emg2,emg3,emg4,emg5,emg6,emg7,emg8
117234526439,15,19,2,1,-1,-2,0,-3
117234526439,-13,-3,0,0,0,0,-2,9
117234527393,8,-6,-2,-2,-3,-1,-2,3
117234527393,1,-2,-3,-1,0,1,-1,-7
117234527916,-5,-5,-3,-2,0,-1,-2,-5
117234527916,-10,3,-1,-1,-1,1,-2,-6
117234528769,-1,1,1,-1,-2,-3,0,-14
117234528769,-2,-1,-2,-3,-3,-1,2,30
117234540823,2,1,-1,1,-2,0,1,-2
117234540823,19,-2,-2,-2,-2,-1,0,0
117234548070,-13,-2,2,-1,0,0,-1,-4
117234548070,-4,21,0,-1,-2,-2,-3,-11
117234555889,-6,-5,-4,-3,-1,0,-3,6
117234555889,11,6,-1,-2,-1,-2,-2,-2
117234569488,-2,3,-3,-1,-2,-2,1,0
117234569488,-3,0,-1,1,-1,-3,0,-3
117234580894,-1,-5,-2,-2,0,0,-1,-2
117234580894,-12,-2,-2,-1,0,-1,0,-4
117234584454,1,3,-1,-2,-1,0,-2,-2
117234584454,-2,-6,-1,-1,0,-3,-2,-13
117234600930,4,-5,-2,-1,-1,-1,1,13
117234600930,2,-2,1,-2,-1,0,-1,-2
117234615444,-3,-3,-1,-3,0,1,-1,-1
117234615444,-1,-7,-1,-1,-2,-1,-1,0
117234647638,-1,-1,-1,0,-1,-2,-1,-1
117234647638,-4,-4,-1,-2,-1,-1,-2,-7
117234648431,9,2,-1,-1,-2,-1,1,12
117234648431,-1,0,-1,-2,-2,0,-1,1
117234649257,-1,-2,1,-1,-1,-1,-2,0
117234649257,0,0,1,-1,-2,0,-2,0
117234651806,-4,-1,-1,-1,0,-4,-2,-6
117234651806,-2,-1,0,0,0,-1,-1,-2
117234667288,0,-1,-2,0,0,-2,-1,0
117234667288,-2,-2,-3,-4,-1,-1,-1,0
117234668178,-2,0,-4,0,-2,-1,0,-1
117234668178,0,-3,0,-1,0,-2,-1,-2
117234675709,-2,-1,-6,-5,-1,-1,0,-3
117234675709,1,0,2,3,-3,-1,-4,-1
117234689175,-2,-8,-3,-5,0,0,-1,-1
117234689175,-2,-1,-3,8,0,-4,-4,-2
117234706357,-2,0,-2,-6,-5,1,1,2
117234706357,-3,0,1,-5,1,-2,1,-4
117234707171,-1,0,6,1,2,3,2,-3
117234707171,-1,0,2,-9,-9,-9,-3,-3
117234719272,-1,-3,2,5,4,-4,-4,-4
117234719272,-1,-1,-7,-26,-8,3,-4,1
117234726669,-1,0,-2,-16,1,-5,-3,-3
117234726669,2,0,2,18,-1,8,6,0
117234735694,-3,-1,0,-11,-5,1,0,3
117234735694,0,-3,-5,18,6,-4,0,1
117234749394,-5,-3,-8,-7,-4,2,-2,-3
117234749394,1,0,-2,-40,-3,-6,-2,3
117234758208,-2,-3,-6,5,-1,-2,0,1
117234758208,0,-2,2,23,6,1,1,-1
117234764265,-2,-11,-4,-4,-9,-7,1,-2
117234764265,-6,-3,-6,13,0,3,-4,-8
117234780769,4,1,5,6,-3,-8,-7,-2
117234780769,6,1,-1,2,7,8,4,4
117234786709,-1,7,1,-6,-1,-3,4,-2
117234786709,8,22,-3,-7,-5,3,5,3
117234795710,-3,-9,1,3,0,3,1,-6
117234795710,-1,1,1,2,-5,-14,-7,7
117234809323,-2,-3,-1,6,-2,-3,-5,-2
117234809323,-6,-2,0,-2,1,1,-2,-6
117234818247,6,6,-2,-9,3,5,2,6
117234818247,-13,-1,-1,-4,-6,5,0,-5
117234824316,-12,5,0,2,-2,-13,-20,-14
117234824316,2,-5,-1,5,5,-2,4,13
117234840740,3,2,-3,4,-3,15,14,-1
117234840740,3,2,0,-7,0,-1,-6,-63
117234846840,28,6,4,8,2,-2,10,43
117234846840,-15,23,1,2,-1,-7,-7,-31
117234855729,-7,-8,0,-3,-2,-9,-7,14
117234855729,-2,0,-5,-9,-12,-15,0,-7
117234869251,-10,-4,0,2,3,16,8,20
117234869251,-9,-1,-2,-3,-1,-16,-9,-26
117234878193,11,0,1,-1,5,1,13,15
117234878193,-7,-1,-1,-6,-7,12,-9,10
117234884405,1,-2,0,9,-3,4,16,-8
117234884405,1,-11,1,3,0,-3,-11,9
117234908890,-14,3,-5,-5,-7,-3,-15,-22
117234908890,0,-6,-5,-4,-10,4,3,-28
117234909708,0,3,1,5,-13,-32,9,11
117234909708,17,-2,6,2,33,53,20,-1
117234915753,9,1,5,6,17,-4,-1,14
117234915753,-2,1,-2,-2,6,11,2,4
117234929452,7,-3,-3,-4,-4,-4,-7,-5
117234929452,-8,-9,-6,-5,-13,-8,-3,-33
117234938197,6,9,0,-2,9,4,-4,41
117234938197,0,-12,-2,-6,-17,-23,-7,-80
117234944404,-5,-4,-1,-1,-1,-36,-11,68
117234944404,-6,-18,-2,2,-13,-15,3,0
117234960712,6,5,-4,0,-3,14,9,36
117234960712,0,5,4,4,7,14,22,15
117234966768,5,0,-1,-1,2,19,-7,-47
117234966768,-6,-3,-2,0,-1,14,-2,-15
117234975740,1,-3,0,-8,-2,-32,-3,13
117234975740,1,0,-2,15,5,12,-2,34
117234989369,-11,-2,-1,-22,-3,2,1,-23
117234989369,-3,-2,-2,-4,-14,-16,-25,22
117234998173,-17,-6,-4,4,-1,-24,-12,-72
117234998173,0,3,0,-7,12,20,-13,5
117235011920,-4,-1,-2,6,-7,-20,21,33
117235011920,6,3,4,5,-7,-18,2,1
117235020752,-14,1,-3,-4,1,53,27,1
117235020752,10,2,6,18,10,-18,-4,2
117235026869,-1,2,4,-15,2,30,1,-21
117235026869,-12,-10,-8,8,2,-20,-5,1
117235035704,-10,-3,0,-2,-25,-33,-35,-25
117235035704,-11,6,-3,-16,5,9,-16,18
117235049411,5,-17,1,11,-7,5,4,-34
117235049411,7,-5,-10,-7,15,-1,12,19
117235058222,-20,-4,2,6,-4,10,-11,-32
117235058222,-11,-5,-7,-11,-19,-38,-11,3
117235071665,-4,0,-7,-1,-5,-20,-28,0
117235071665,5,11,2,5,16,41,34,44
117235080724,18,-11,-3,-2,11,21,23,-15
117235080724,6,-5,5,-2,-20,-19,-7,71
117235086701,-3,4,-2,0,3,-19,-27,-16
117235086701,10,1,5,1,-11,-20,0,48
117235095821,-1,3,-5,1,1,13,23,34
117235095821,10,-2,-3,-11,1,2,3,-18
117235109256,-4,3,3,15,10,-3,-20,-5
117235109256,-7,-1,-2,7,-7,-8,-13,-26
117235125696,-3,3,4,-1,-12,-8,-6,-34
117235125696,-2,9,3,11,12,-2,20,14
117235131761,-3,-23,-15,-15,7,48,0,-37
117235131761,2,-7,-4,-33,-11,-24,-23,-20
117235140691,-1,-1,0,29,10,24,1,12
117235140691,-4,19,14,19,8,-8,-4,5
117235178134,13,2,-4,1,-5,21,21,30
117235178134,-34,-6,0,14,-10,-23,-15,-26
117235179748,9,0,5,-18,-14,-29,-1,-1
117235179748,0,-5,1,-17,9,19,7,16
117235184247,8,8,8,1,-6,-13,-16,-22
117235184247,4,-3,4,23,14,11,9,-7
117235193186,-5,-4,-9,-23,-2,10,-3,-10
117235193186,0,-8,-5,-7,-7,-14,3,-16
117235206830,9,5,2,3,9,16,7,25
117235206830,3,-1,-5,6,-1,21,14,4
117235217727,-9,0,4,7,13,-26,-32,-45
117235217727,-4,-3,-3,-6,-6,8,2,-15
117235218613,-21,-1,-2,1,-21,-18,-9,-24
117235218613,15,3,10,14,21,23,4,57
117235221657,4,1,-10,-22,-3,5,-10,-15
117235221657,-7,-8,-8,-17,-14,13,28,-22
117235229252,9,0,1,-10,5,-14,-12,33
117235229252,-14,4,1,9,6,1,-9,-21
117235238175,-5,-2,-2,1,-11,0,-10,-3
117235238175,10,0,0,24,-6,1,0,12
117235251820,-28,3,-1,1,5,4,5,-46
117235251820,21,10,2,1,-4,7,8,41
117235260738,-13,-5,-3,-13,-5,-24,-22,-70
117235260738,17,2,1,4,10,10,3,26
117235266722,-14,2,-7,0,-8,-3,-8,-31
117235266722,-2,-9,-7,-25,-15,-24,-19,7
117235281898,9,2,13,12,14,15,17,38
117235281898,7,1,7,7,-1,-9,-10,55
117235289297,-2,-1,-7,-66,6,15,4,8
117235289297,-9,-1,-37,-13,-38,-23,2,-7
117235298231,0,-1,-86,5,8,19,2,17
117235298231,28,1,-97,15,13,2,13,5
117235311759,-27,-3,-56,19,9,0,-3,-31
117235311759,2,-6,-14,-15,-3,5,-12,3
117235320842,15,-3,30,-3,-19,-29,14,20
117235320842,-22,-3,34,2,2,-1,-30,-48
117235326767,-40,-3,33,6,-11,-8,-17,-75
117235326767,36,12,36,-1,9,5,18,26
117235341986,-2,-7,52,12,0,-3,12,0
117235341986,-10,-2,53,-8,-3,-6,-30,7
117235349425,23,7,46,6,-7,-15,25,-24
117235349425,-75,-18,34,-6,12,13,-7,-72
117235358265,16,5,29,1,2,9,30,97
117235358265,-68,-9,24,-7,6,7,-3,-41
117235371768,40,-1,5,10,-2,-5,21,101
117235371768,-16,-5,-11,-4,-7,-2,24,-17
117235380729,-20,14,7,3,7,-3,-8,-54
117235380729,17,-12,29,-2,-1,7,29,30
117235386757,-45,2,17,8,2,2,-56,-57
117235386757,28,12,-9,-4,-10,-2,42,47
117235409872,-23,7,-16,0,-6,-24,-13,2
117235409872,9,2,-5,-2,4,4,23,6
117235410820,-20,-20,2,-2,-3,2,-35,-16
117235410820,74,-1,26,1,8,25,45,-1
117235418287,-9,-14,34,-8,-10,-10,-2,-4
117235418287,-48,-6,17,-3,-1,-2,-56,-62
117235431913,-2,9,5,3,0,6,42,17
117235431913,-63,-18,-17,-6,-11,-23,-40,-54
117235440739,50,-6,-25,1,6,18,-36,-3
117235440739,12,4,-34,2,-6,-11,26,-68
117235446768,36,-7,-35,-3,-6,-22,31,51
117235446768,-49,1,-27,3,14,8,-1,-49
117235461944,-12,9,-21,3,-2,9,21,30
117235461944,56,20,-29,0,4,21,35,66
117235469446,-20,3,-24,2,-2,-4,41,-20
117235469446,-21,-2,-14,-1,2,9,-31,-6
117235478284,16,5,-18,-3,-7,-9,-26,-12
117235478284,26,6,-3,-5,-4,-16,-12,-36
117235491903,36,-5,-2,6,4,2,-50,-46
117235491903,-3,16,-1,6,-1,-2,19,28
117235500757,-11,-4,-12,-12,-10,-12,-14,-13
117235500757,9,-16,-1,-4,-4,-32,-58,-49
117235506975,32,8,4,-4,-8,10,21,30
117235506975,64,-8,14,-3,-1,-29,-91,5
117235521711,80,1,7,-15,-13,27,36,28
117235521711,-19,-12,14,3,1,-36,3,24
117235529236,-27,3,47,14,21,26,-43,59
117235529236,101,2,45,-4,4,17,29,77
117235538161,-49,-23,6,22,2,3,33,-33
117235538161,-47,-2,-44,-64,-21,-3,-60,1
117235551725,-11,9,-56,8,11,10,74,60
117235551725,65,-3,-91,-14,-6,-3,30,3
117235560627,-36,-17,-76,1,-1,4,37,-32
117235560627,-38,-8,-119,12,3,9,28,31
117235566668,-30,-18,-126,0,2,-5,-10,-22
117235566668,-30,-3,-110,-2,-5,2,-11,-63
117235581629,-4,9,-52,-6,4,-9,11,17
117235581629,54,-2,-12,8,-2,-7,-28,-20
117235589190,3,-8,37,-11,-11,-4,1,-2
117235589190,-110,-3,69,5,-3,-8,-51,-101
117235598180,16,2,83,2,1,-21,-21,64
117235598180,-10,4,92,4,-9,24,3,8
117235611716,11,6,125,6,8,-12,5,16
117235611716,-6,-5,127,7,17,-2,0,-30
117235620652,-74,-23,89,7,10,15,-2,-84
117235620652,-16,-4,54,-2,-7,-10,9,-17
117235634858,20,2,1,-12,-11,10,-16,-4
117235634858,-13,-3,-28,2,-14,-17,-8,6
117235641614,14,9,-39,-12,-1,-8,12,9
117235641614,-16,1,-26,25,14,29,-6,-31
117235658022,-2,2,-29,-4,-1,-2,7,23
117235658022,5,-3,-21,-1,0,0,3,84
117235659593,-42,-2,-14,15,-2,-4,-24,-51
117235659593,0,5,-10,-42,-18,-8,7,-3
117235671676,-19,-4,-9,16,-13,-24,-41,-105
117235671676,-8,4,-3,-8,-1,-3,-4,-73
117235680637,24,5,0,25,2,9,2,8
117235680637,21,4,-2,10,10,30,43,13
117235694938,-9,-1,-8,-4,2,-48,-31,-29
117235694938,-20,7,-5,-20,-16,-1,-22,-40
117235701770,-21,-5,-2,-8,-2,-7,-6,-27
117235701770,20,-3,3,19,12,-3,-20,61
117235718086,2,-1,-1,-13,-5,18,31,45
117235718086,-16,-3,0,5,1,7,-6,-11
117235719725,17,4,-4,-12,2,-8,13,33
117235719725,11,-7,0,-5,-10,-17,7,39
117235740751,9,6,6,18,14,27,29,6
117235740751,31,-6,-2,1,3,14,51,57
117235742281,-9,-1,-15,-40,-23,-8,-8,4
117235742281,-26,-14,-3,25,0,-18,9,-21
117235754855,43,-13,-2,2,-4,5,-33,32
117235754855,-13,-2,-1,-4,-9,-42,-10,-17
117235761813,-9,3,3,1,10,12,-4,-61
117235761813,-3,-4,12,-10,-5,1,24,43
117235778168,-3,3,-1,3,0,-19,-6,-30
117235778168,2,-3,-9,9,4,34,11,6
117235779796,27,-5,-4,4,1,-14,-32,26
117235779796,-6,5,0,-5,-4,-4,10,-32
117235791675,-24,0,5,5,18,32,14,-15
117235791675,20,3,8,6,6,-1,9,77
117235800747,2,3,-10,-9,-3,-6,-14,10
117235800747,-8,-6,-3,-7,-7,-8,-11,-32
117235814962,2,-5,-3,-12,-11,-13,-11,45
117235814962,-20,-2,-4,-2,-1,2,-3,-36
117235821759,-1,-13,-3,1,-5,-13,-14,-12
117235821759,4,14,2,8,8,5,8,2
117235838052,-6,-1,-4,-14,-5,3,-3,-24
117235838052,15,3,2,6,4,12,2,-11
117235839762,18,3,1,3,-3,-17,-1,33
117235839762,-9,-4,-11,-13,-6,0,-16,-26
117235852014,-6,-3,-6,-3,5,3,10,-42
117235852014,-10,0,-3,1,-3,-13,1,67
117235868266,3,15,0,3,1,19,-8,-30
117235868266,-1,9,2,0,3,8,2,-9
117235875150,0,6,-1,-2,-5,-18,-10,-30
117235875150,-17,-5,-11,-7,-6,1,-6,-58
117235881985,-11,-3,-1,-1,-5,-9,-2,-11
117235881985,-14,-2,-5,1,4,-1,-18,-64
117235898243,-14,1,-1,-8,-3,14,7,11
117235898243,-13,0,-5,-5,-10,2,2,-18
117235899715,-3,6,1,-5,0,-13,-3,11
117235899715,1,-10,1,6,10,12,-11,-6
117235911708,10,-4,1,1,5,33,15,57
117235911708,-3,-3,-3,-8,-14,-56,-8,7
117235920704,-5,-2,-2,-2,-10,30,2,-4
117235920704,22,13,-1,4,-3,-36,-9,23
117235943198,4,-2,-1,-11,0,0,17,-1
117235943198,0,-5,-2,0,4,14,-6,16
117235944661,6,-2,0,9,6,10,-3,13
117235944661,-3,5,-1,-9,-8,-6,8,-1
117235958272,2,0,-2,6,-4,-16,-15,-9
117235958272,3,-14,-3,-13,0,0,-3,-4
117235959696,-12,-4,-3,-14,-2,-4,-10,-29
117235959696,-14,-6,0,4,1,13,11,-46
117235971674,-1,0,-3,13,-2,-5,7,7
117235971674,-5,-2,-1,-13,-6,-11,-12,1
117235980711,0,-3,-1,0,9,12,6,5
117235980711,-1,-10,-1,-11,-3,-22,-2,22
117235995082,-1,-2,2,26,-1,13,-8,-5
117235995082,-6,2,1,-6,3,-7,-2,-20
117236001785,2,1,0,-5,0,19,11,19
117236001785,5,2,5,1,-2,-3,1,10
117236018259,-3,-5,-15,6,-7,-20,-11,-12
117236018259,2,1,-1,-33,-1,19,3,-5
117236019897,-4,-1,2,-4,-1,-18,-1,-2
117236019897,-3,-2,0,-29,-4,12,1,18
117236031753,0,1,7,-13,5,-5,-4,-5
117236031753,0,4,15,0,-4,0,1,5
117236040691,-3,-4,-4,-40,-16,-5,2,8
117236040691,-1,-7,-17,17,-1,4,2,2
117236054929,-3,0,5,-21,1,-10,-8,-5
117236054929,6,1,0,17,28,5,4,3
117236061849,-1,1,4,22,-18,-6,-10,-4
117236061849,-1,-3,-6,-30,-9,1,-2,9
117236078291,1,-3,-17,-38,-15,-1,0,-2
117236078291,-7,-5,-8,20,0,-3,-3,1
117236079774,-6,2,-4,16,9,0,1,-2
117236079774,-3,-4,-13,3,-5,1,-12,1
117236092014,-4,1,-2,14,-7,-13,0,-13
117236092014,-4,-4,-7,1,6,11,-1,-4
117236100713,3,-2,-5,11,3,0,4,3
117236100713,1,8,12,15,-6,-7,2,-1
117236114917,1,-1,-1,-9,-4,6,-3,-3
117236114917,1,5,10,-5,-2,1,5,12
117236121659,-1,-8,-5,32,9,-7,3,6
117236121659,-20,-3,-1,5,-4,2,-1,5
117236145502,-4,-3,1,-5,-2,-5,-3,-8
117236145502,-1,-5,-10,3,-5,-9,-4,33
117236147167,1,2,2,-11,4,13,5,1
117236147167,3,-1,13,26,8,6,0,-4
117236151618,11,-3,-12,-35,-1,-3,6,21
117236151618,-13,3,15,9,-2,10,2,-9
117236160684,-2,-5,4,-9,3,-9,-8,-6
117236160684,2,-11,-10,6,-1,-4,-7,0
117236174869,4,-1,6,15,-2,-7,1,-10
117236174869,3,23,-6,-3,-5,8,0,-9
117236181632,5,-8,5,-3,-1,0,4,5
117236181632,0,-5,-17,1,5,2,2,-3
117236198004,-7,-1,-3,10,-2,10,-2,-7
117236198004,8,4,2,-8,-11,-33,-5,2
117236199626,3,29,6,8,2,3,0,4
117236199626,-3,12,8,-9,8,21,11,2
117236211693,-7,-20,-20,-6,-6,-10,0,-1
117236211693,-17,-1,4,5,-3,15,-8,-12
117236220648,11,-8,-18,-4,-2,-20,-3,-4
117236220648,19,20,20,-1,-6,-8,4,6
117236234821,-22,7,12,5,-5,1,8,1
117236234821,0,-30,-14,3,5,10,-4,-11
117236241692,-15,10,2,1,1,0,-11,0
117236241692,12,-26,-3,-7,4,16,4,-26
117236257361,14,-7,-5,3,4,40,41,37
117236257361,1,-16,-5,4,-14,-41,-30,-8
117236264205,-6,-6,13,-11,-13,-35,-2,-9
117236264205,-3,-2,-14,0,1,-17,-23,-6
117236271693,-27,7,11,41,20,31,-13,-24
117236271693,5,3,-7,-43,-6,14,16,22
117236280654,4,-7,7,12,8,19,9,14
117236280654,-1,3,17,9,2,-8,9,10
117236294868,25,6,2,-7,-17,-30,-11,0
117236294868,-16,-3,-7,7,3,-5,-5,-17
117236301655,5,19,8,-6,-3,-14,-10,-18
117236301655,-3,-7,-9,-12,-5,18,24,75
117236317444,-4,-4,-6,7,0,14,-34,-34
117236317444,6,4,4,5,-1,-74,-5,-3
117236324183,-2,-3,-9,-10,-7,32,14,-45
117236324183,16,-12,-3,-3,6,-6,-1,4
117236331647,21,-1,-2,-30,4,27,5,7
117236331647,-17,1,-4,25,-11,7,-7,1
117236340668,1,-17,9,13,6,-39,9,23
117236340668,-1,13,-12,-5,-9,18,0,-15
117236354826,10,-2,1,-15,-2,-40,-17,-68
117236354826,-6,13,9,-14,0,41,38,78
117236361663,29,-7,-8,12,5,-14,-12,37
117236361663,-19,1,5,0,0,-12,-10,-16
117236377377,-14,0,-1,-10,-17,-31,-1,9
117236377377,43,10,6,19,18,43,-14,-33
117236384186,3,-4,-13,-16,-7,13,-10,35
117236384186,-4,-3,-1,-3,-15,-10,-22,-82
117236400526,-28,2,-7,2,4,-50,-15,-41
117236400526,11,-2,-7,0,2,38,-6,-50
117236402152,-21,-11,-2,-2,1,0,-31,-6
117236402152,-51,11,2,-7,-27,-32,-14,-114
117236414852,93,22,-1,0,7,-6,42,125
117236414852,-50,5,8,8,19,-3,-53,-112
117236421645,-55,-5,-2,-5,-10,8,-11,-79
117236421645,24,12,-2,-8,17,21,5,61
117236445527,-35,-32,-10,10,6,26,-5,-100
117236445527,-6,13,-8,-5,-7,-7,59,37
117236447168,-7,25,-21,-6,2,53,-27,24
117236447168,-43,-5,-74,-4,-20,-49,-11,-99
117236460524,-84,0,-42,21,16,-49,-51,-54
117236460524,20,-1,-60,-4,7,18,52,-10
117236462179,6,-16,-27,-12,-2,35,5,-16
117236462179,-14,-19,32,4,-1,14,27,27
117236474893,22,5,48,-3,-55,-52,-35,14
117236474893,34,-7,41,-8,12,34,41,-28
117236481627,-41,11,46,0,9,-19,-55,-8
117236481627,2,-9,28,4,21,6,-27,21
117236497388,53,-4,14,-10,9,79,50,2
117236497388,-62,-5,43,10,-22,-107,-54,5
117236504154,-46,-6,10,0,-23,-2,-8,-78
117236504154,-4,45,24,-9,-20,16,17,31
117236520486,-70,-4,48,7,21,-5,12,37
117236520486,-11,14,51,-2,-3,26,-18,-27
117236522156,-55,32,67,-1,12,-21,-11,-104
117236522156,-87,-29,60,13,-11,-35,-18,-38
117236534901,100,-28,7,-8,25,55,3,59
117236534901,41,-20,34,4,-13,10,50,51
117236541689,98,-13,5,0,18,-41,2,43
117236541689,32,-16,1,-3,-4,15,-7,8
117236557352,-90,-1,-16,-2,-19,-41,-15,-44
117236557352,33,-24,-30,-11,-2,-21,-35,-11
117236564243,76,-28,-47,-11,-25,50,-25,6
117236564243,25,4,-22,1,16,42,118,27
117236580526,8,2,-48,-3,-38,-96,-4,6
117236580526,-7,30,-18,16,55,56,51,76
117236582164,43,-25,43,0,-5,30,60,-17
117236582164,39,-5,80,-2,9,-14,-22,37
117236594215,-33,25,48,-9,-33,-12,-20,-52
117236594215,-62,-23,-45,-2,-16,20,-37,10
117236603219,88,1,-116,0,39,-4,64,104
117236603219,12,-11,-115,-10,-2,-17,-58,42
117236617357,37,-23,-69,-7,-11,2,8,-22
117236617357,-59,-15,-84,-4,-5,-38,-35,-2
117236624223,-11,-3,-67,5,-22,41,39,-30
117236624223,30,8,-38,12,33,-19,39,30
117236640493,0,-1,-25,-2,-2,45,-10,3
117236640493,52,0,-8,6,0,-23,-15,-7
117236642158,-27,21,-44,0,6,-3,-37,21
117236642158,-5,-7,-71,11,-3,38,12,-34
117236654154,-8,2,-50,6,11,7,15,54
117236654154,48,7,-20,-5,-18,27,-26,-46
117236663162,-21,-15,53,12,21,-40,42,44
117236663162,5,-15,71,-4,3,37,-22,29
117236677387,0,-5,69,-3,-11,40,35,-16
117236677387,6,9,64,-5,1,-40,-16,14
117236684186,-37,3,57,-5,-10,-1,19,8
117236684186,27,6,65,-14,-52,-27,-38,-27
117236700530,-34,7,54,28,89,46,28,12
117236700530,13,-6,34,-11,-16,15,9,-14
117236702173,-68,5,14,0,-3,3,-22,-28
117236702173,19,-3,-7,-11,-10,-12,3,-2
117236722970,24,2,-15,-11,-25,-36,-2,-10
117236722970,-22,-16,8,-4,-10,-2,0,-19
117236724585,-29,8,14,3,19,14,29,8
117236724585,-9,-1,3,-3,-21,15,-1,-22
117236752347,21,2,-11,8,28,3,4,12
117236752347,0,1,-26,1,24,18,19,-1
117236759220,15,-3,-29,-4,-27,-38,-3,-22
117236759220,-19,-5,-33,1,-2,-11,-14,-12
117236767268,7,1,-19,-2,-6,12,5,23
117236767268,5,1,-8,-3,-12,-15,14,-25
117236768149,-18,-9,-1,-5,-20,-15,-19,-5
117236768149,6,6,-9,1,15,-8,8,18
117236774202,-31,-6,-2,-13,7,15,-5,0
117236774202,12,9,-1,-12,-7,-10,8,-4
117236792165,7,-13,-8,-18,-9,4,1,14
117236792165,3,-4,-11,-7,11,-4,14,3
117236797369,4,2,3,-7,-16,-14,21,7
117236797369,4,-8,-6,-5,-20,-12,-17,7
117236804201,9,4,0,6,6,4,11,1
117236804201,-19,4,-7,-1,4,-18,3,-5
117236820492,-9,6,-2,-1,-23,-26,5,6
117236820492,4,-5,-15,3,9,-4,10,-11
117236822159,-14,-1,-16,0,5,0,3,-3
117236822159,16,-5,-27,-5,-2,-3,1,2
117236834240,-26,-9,-3,5,-1,-3,-18,0
117236834240,-7,2,-4,2,2,1,-1,17
117236849190,-8,-8,4,-7,-18,-34,-4,5
117236849190,-19,-7,2,11,5,9,-16,2
117236857351,9,-6,20,5,11,4,9,32
117236857351,-8,4,6,1,1,11,2,-10
117236864211,-24,-1,-12,-1,-2,-10,-29,4
117236864211,19,1,-9,2,0,5,14,21
117236879593,-7,-3,30,-7,-8,-21,-39,-5
117236879593,-10,-1,113,6,4,-6,12,13
117236888133,8,-7,127,-13,-25,3,-47,-24
117236888133,-10,5,28,7,19,-15,11,-3
117236894187,-16,13,-46,1,7,11,-11,-33
117236894187,13,-2,-125,-2,-10,8,-11,-1
117236903173,3,2,-125,-4,5,-1,-6,-6
117236903173,0,2,-100,-3,-13,-9,-10,-3
117236925494,0,-2,-127,0,-1,16,-32,-9
117236925494,-11,4,-128,4,7,-7,3,66
117236927160,-16,-8,-117,3,2,6,8,3
117236927160,-29,4,-60,0,-2,-3,-12,-58
117236940551,13,1,-33,0,1,6,-1,11
117236940551,-13,-5,-59,-5,-14,-13,-28,-34
117236942219,-1,2,-71,10,5,-5,-2,-23
117236942219,-4,-4,-45,-2,7,-3,-11,4
117236954260,21,1,13,-2,-5,-9,5,-14
117236954260,6,-6,60,-2,0,3,-12,-14
117236963253,12,-2,-15,5,7,6,12,6
117236963253,-2,-4,-10,-2,-5,-1,-9,-1
117236977942,-13,-5,-65,-8,-9,8,-13,0
117236977942,-3,11,8,4,8,-6,11,2
117236984426,17,8,41,4,3,0,17,2
117236984426,-6,-4,83,-4,-3,5,-7,17
117237000718,3,-1,94,-5,-3,3,-3,-22
117237000718,2,-14,81,3,-1,-11,5,80
117237002207,6,2,95,-2,7,8,4,2
117237002207,-2,11,73,11,1,-4,-7,-4
117237014437,2,-4,62,-3,-2,13,1,-11
117237014437,1,-3,46,6,-2,0,-3,-38
117237023187,3,3,91,-32,-9,-15,-8,-10
117237023187,17,-5,100,14,3,34,3,40
117237037379,-4,0,127,0,0,-27,13,4
117237037379,-19,-8,126,-14,-9,-1,-9,-27
117237044317,7,4,98,16,5,4,2,23
117237044317,-16,5,20,-8,0,-2,4,-21
117237060703,4,-2,-3,14,6,17,-2,4
117237060703,-1,0,-54,2,1,-3,-4,-16
117237062156,-3,-9,-49,15,-2,6,-1,-8
117237062156,-3,-9,-29,-30,-8,-18,-11,-21
117237074477,-1,4,-31,24,1,-2,-2,-2
117237074477,-6,0,-46,-35,-13,-1,9,2
117237083266,7,2,-13,25,1,-14,-8,0
117237083266,3,4,-8,12,11,13,7,55
117237097619,1,-1,-6,8,6,4,1,-3
117237097619,-1,-4,-6,-6,-13,2,-4,-19
117237104392,7,-1,-6,1,-8,-14,-2,3
117237104392,-2,-14,-32,-31,-11,4,-16,-18
117237120601,1,3,16,38,9,-9,16,4
117237120601,2,-4,-9,25,6,10,-13,-9
117237122243,-1,2,-16,-39,-9,-5,1,-8
117237122243,-5,-3,-17,26,-1,1,4,-8
117237134348,10,10,-13,-25,-3,4,-9,-6
117237134348,25,3,8,50,7,-8,17,58
117237143219,-12,-12,-13,-34,-6,-2,-4,-27
117237143219,-7,6,0,-7,4,-4,-1,-21
117237157425,2,-8,-23,-32,-5,-4,0,2
117237157425,-6,3,-13,-19,1,0,0,-19
117237164439,1,-2,2,27,6,6,-5,1
117237164439,9,0,-1,-37,-15,-6,6,21
117237179947,-10,-1,-7,26,-3,-11,-6,-15
117237179947,-8,-2,-7,-15,5,3,-5,-10
117237186729,-2,-1,-6,17,2,3,-2,8
117237186729,-5,-2,-5,79,17,-6,0,-26
117237194346,-3,-1,-6,-55,-16,2,-3,1
117237194346,-7,-2,-1,-115,-24,-3,-4,-15
117237203317,-8,-2,-8,75,12,-3,1,-4
117237203317,0,0,-8,-27,-9,-8,0,-1
117237217546,-1,-6,-6,6,1,-2,-4,4
117237217546,-2,2,-6,39,2,4,0,-3
117237224241,3,2,-6,-27,-3,1,0,-6
117237224241,1,-1,8,54,9,1,-2,-1
117237239891,-19,-5,-11,1,-16,2,-4,-24
117237239891,-14,-9,-11,-37,-14,-6,-6,-48
117237246918,31,7,-9,4,-6,-1,6,46
117237246918,1,-1,3,29,10,1,-1,-6
117237254247,2,0,0,15,11,1,-1,10
117237254247,-9,4,8,103,21,1,1,-1
117237263224,-6,-9,-16,-42,-18,-7,-12,-16
117237263224,0,0,-8,-120,-23,-3,2,0
117237277469,-1,-3,-5,-8,1,-1,2,-1
117237277469,7,0,0,17,10,0,4,6
117237284476,-4,-2,3,-18,-1,2,-3,-6
117237284476,2,-1,1,10,-1,-4,-3,3
117237300116,1,-2,2,40,8,0,-3,0
117237300116,3,-1,-5,-25,-11,-2,-2,0
117237306807,9,2,1,-11,4,0,5,30
117237306807,-13,-1,-2,16,-1,-3,-2,-46
117237314294,5,-2,-3,-10,0,4,0,-14
117237314294,-1,2,-2,26,9,2,0,49
117237323228,-3,-1,-2,-9,-7,-2,0,-18
117237323228,3,0,-4,6,-5,-3,1,12
117237337389,-4,-4,-3,4,2,-2,-1,19
117237337389,-1,4,-9,-70,-15,-5,-8,-69
117237344295,5,-11,-5,-3,3,0,8,28
117237344295,6,7,2,25,5,0,-2,-2
117237359915,13,-9,-1,-9,-6,0,2,25
117237359915,-4,15,1,22,2,0,1,-7
117237366677,2,17,4,28,3,-2,-5,-12
117237366677,-17,-14,-1,-1,-1,-2,-4,-21
117237389911,3,-3,-6,-28,-6,-2,0,3
117237389911,5,-3,-5,6,3,0,-2,5
117237390704,-4,1,3,19,0,0,0,-15
117237390704,-2,2,-3,14,3,-3,2,15
117237398263,-15,4,0,7,0,-2,-4,-23
117237398263,11,-5,-1,35,10,2,3,14
117237404259,-8,1,-7,-65,-15,-3,-6,-12
117237404259,6,-7,0,3,3,1,1,41
117237419399,-6,1,-3,1,-3,-1,-3,-7
117237419399,-7,-7,-5,15,-5,-5,-2,50
117237426843,-9,1,3,-6,7,-1,-2,-11
117237426843,8,-1,4,23,-4,-3,-3,0
117237442413,11,5,-3,-44,-5,-2,4,14
117237442413,-5,-5,1,-2,0,0,0,-9
117237443413,-24,-31,-3,8,3,-3,-3,-15
117237443413,-1,0,-1,20,4,1,-1,8
117237458260,-3,0,-6,-26,-10,-4,-2,-12
117237458260,-10,-17,-1,-15,-5,-2,2,-14
117237464431,0,-6,-1,39,4,0,0,4
117237464431,1,13,-3,-50,-4,-1,-1,-19
117237479463,-11,-2,2,28,4,0,-3,-4
117237479463,-1,-1,-4,-10,-5,0,-3,-19
117237486731,20,14,6,15,8,1,2,6
117237486731,-1,-4,-4,-14,-10,-2,-4,-1
117237502427,1,9,-1,-6,0,-1,-4,-20
117237502427,-2,-2,2,-3,-1,-1,2,32
117237503147,-14,-2,-9,24,-1,-2,-3,15
117237503147,-1,1,-1,-13,-2,-1,-2,-18
117237518279,-2,-10,-3,37,7,-1,-1,12
117237518279,-4,12,2,-34,-8,0,-1,-13
117237524193,10,0,0,-6,-1,-2,0,1
117237524193,-4,5,-1,3,1,0,2,7
117237539146,-4,-9,-3,-31,-5,-2,-1,8
117237539146,-3,-17,-6,9,0,-4,-4,-12
117237554828,15,30,3,21,-1,-1,1,-7
117237554828,-12,-15,-4,-9,-1,0,-3,-6
117237562403,3,2,3,9,3,0,0,0
117237562403,-3,4,-8,-18,-4,-3,-1,-3
117237563268,-9,3,3,31,8,0,-2,-4
117237563268,-6,-8,-7,-80,-21,-5,1,16
117237578202,10,4,1,16,0,-2,-1,5
117237578202,5,5,1,-7,1,2,-2,1
117237584358,-5,-19,-3,-2,-3,-1,-4,-1
117237584358,-2,3,2,17,10,2,1,-8
117237599457,1,-4,-6,-54,-15,-5,-2,3
117237599457,9,1,1,3,0,-3,-1,7
117237606723,-12,-4,-3,-13,2,-1,-3,-20
117237606723,-1,-4,-5,9,-5,-3,-2,-43
117237622482,21,6,4,15,9,4,5,50
117237622482,-6,-2,-6,-40,-11,-4,-2,-7
117237623192,-17,-4,2,-13,-2,0,-1,-2
117237623192,-10,-8,1,14,4,-1,-3,-19
117237646438,-5,3,-2,20,0,-1,-2,-15
117237646438,-12,-2,-2,-14,-5,1,-3,-7
117237647440,25,7,-2,-17,-3,0,1,-17
117237647440,-9,-13,-3,-18,-2,-2,0,23
117237659272,-23,-19,-1,3,-4,-2,-7,-19
117237659272,12,-14,0,24,5,0,3,13
117237666814,-9,-23,-5,-13,-5,-2,-2,-15
117237666814,6,-1,-1,22,6,1,-1,9
117237684560,-4,1,-4,-15,-5,-4,1,-9
117237684560,-3,3,0,22,6,-1,0,-15
117237685569,-3,-4,-4,-21,-5,-3,0,6
117237685569,4,0,-2,-16,-9,-3,-1,6
117237698227,2,1,0,8,0,-1,-4,1
117237698227,3,3,-1,-13,-4,-1,-1,-1
117237704235,-2,6,2,15,4,0,1,-13
117237704235,7,4,3,0,0,0,2,52
117237719440,-2,7,0,-18,-5,-2,1,-13
117237719440,11,10,-1,25,3,-1,0,10
117237726845,5,-13,-2,-13,-4,1,-1,1
117237726845,-13,-4,-2,17,2,-1,-4,-16
117237742605,-5,-3,-1,6,1,1,-2,2
117237742605,-5,6,2,18,0,1,-1,4
117237743232,2,-21,-6,-16,-2,-1,0,4
117237743232,12,24,1,4,1,1,-2,-13
117237758187,-19,-6,-3,6,0,-1,1,1
117237758187,24,10,-1,-1,1,0,-2,-9
117237764276,-3,11,1,1,-3,-3,0,6
117237764276,18,1,-5,6,3,-2,-2,-5
117237779449,-12,13,7,-31,-11,-3,-3,-6
117237779449,0,-9,-3,-20,-4,-1,-1,-2
117237786693,-7,2,0,10,1,-1,-1,6
117237786693,-3,-8,-1,6,-1,-1,-1,-2
117237809927,12,11,-1,1,1,1,0,-3
117237809927,-2,-8,0,8,-1,-2,-2,-8
117237810740,-2,4,0,-1,-2,-1,-2,10
117237810740,-9,3,1,-3,-2,-2,-1,-8
117237818221,0,-9,-5,25,6,-1,-2,-4
117237818221,-4,0,2,-24,-8,-1,1,-2
117237824428,-1,-4,-5,0,-1,-1,-1,-8
117237824428,-1,2,-1,4,-1,0,1,3
117237839379,-24,-9,-4,3,1,-2,-5,-35
117237839379,13,0,-3,0,-1,1,1,5
117237846899,-6,4,1,-1,-4,-3,-2,-2
117237846899,4,-2,0,3,2,1,2,6
117237862520,-7,-17,-3,13,1,0,-3,-4
117237862520,-6,-22,-1,20,5,0,-1,-5
117237863199,-6,-1,1,-1,-1,-1,-2,1
117237863199,10,2,-1,10,1,-1,-2,-8
117237894577,19,-4,-4,-7,-3,-1,0,9
117237894577,-11,3,-2,-2,-2,-1,-2,5
117237895532,3,2,0,-2,-2,1,1,5
117237895532,-10,-4,0,5,0,-1,-1,-9
117237899447,8,10,2,-3,-2,0,1,11
117237899447,-5,1,-2,11,4,-1,-2,0
117237906641,-2,2,-2,0,-8,-3,-4,-3
117237906641,-16,-2,-3,-13,-2,-2,-4,-6
117237921688,-6,-6,0,-30,-4,-1,-1,-4
117237921688,-7,-2,2,1,0,-1,-1,-9
117237929450,-1,0,-1,10,4,-1,-1,7
117237929450,5,1,4,-23,-2,0,0,-11
117237938217,2,3,1,27,6,0,-3,6
117237938217,-3,0,-2,-6,1,-2,-2,3
117237944457,2,4,-1,-30,-6,0,-3,-9
117237944457,-1,-4,-4,-14,-6,-2,-3,5
117237959345,2,-1,0,34,5,0,-1,-2
117237959345,-15,2,-5,-76,-16,-2,1,2
117237966636,11,5,1,20,6,-1,0,9
117237966636,2,-5,1,13,0,-3,0,1
117237982268,-3,1,-1,-9,-2,-5,0,6
117237982268,-10,-1,-1,25,4,1,-5,-21
117237983091,0,4,-5,-42,-6,-1,-1,13
117237983091,-10,-14,-2,-1,-2,1,1,13
117237998171,4,20,0,-4,-2,2,0,-10
117237998171,2,-21,-1,14,-2,-2,-2,4
117238004224,9,-3,0,-11,2,0,0,-5
117238004224,0,2,-4,-2,-4,-1,-1,-7
117238019306,-5,-2,-2,-1,1,-2,-2,14
117238019306,4,10,2,3,0,-1,0,-2
117238026879,-5,-3,-1,12,0,-2,-1,-2
117238026879,-5,1,-1,11,1,-1,-1,-6
117238042409,10,-8,-4,-22,-4,-2,-2,2
117238042409,-2,3,2,46,7,0,-1,0
117238043135,-10,-7,-5,-63,-16,-3,0,-9
117238043135,9,2,-1,1,1,1,2,14
117238058271,1,0,1,10,4,1,-2,-5
117238058271,14,5,1,12,-8,-4,1,12
117238064261,0,9,-7,-5,-5,-2,-1,0
117238064261,7,2,-1,-10,-3,-2,-2,-5
117238079236,-11,-18,-4,-18,-2,0,2,-3
117238079236,-4,4,5,32,4,1,0,-7
117238094926,1,-3,-4,-29,-2,-2,-1,-32
117238094926,6,2,-7,-38,-11,-4,1,22
117238101773,0,-4,-1,27,2,0,-1,-4
117238101773,-21,-3,-7,-7,-2,-3,-3,-2
117238109442,1,1,6,39,5,2,1,-4
117238109442,-1,-4,2,22,7,0,-1,-6
117238118260,-2,2,-1,-40,-10,-2,-1,5
117238118260,3,-2,2,3,3,1,-2,-2
117238124307,-3,-4,1,9,3,-1,-3,3
117238124307,-7,-2,2,8,1,-1,-4,-4
117238139219,3,0,1,9,0,0,-1,3
117238139219,-3,1,-3,-17,-5,-1,-1,-4
117238146736,-13,-5,-1,-10,-1,0,-2,2
117238146736,8,2,-2,17,5,0,1,3
117238161684,6,2,-3,-13,-9,0,3,-4
117238161684,1,6,-2,-27,-4,0,0,-4
117238169275,-4,-9,-2,27,0,0,-2,13
117238169275,-7,0,2,-6,1,-1,-1,-9
117238178206,-2,0,-4,-7,-2,-3,-4,0
117238178206,4,2,0,7,0,-2,1,4
117238184140,1,0,0,20,1,-1,0,-1
117238184140,-3,-6,1,1,-2,0,-3,-8
117238199259,-2,-4,-1,-36,-5,-2,0,2
117238199259,2,-2,-1,2,1,-1,0,-1
117238206753,-12,-3,-1,12,0,-2,1,-3
117238206753,0,-8,3,4,9,1,1,-3
117238221652,6,3,-3,0,-14,-2,-4,-1
117238221652,-2,-3,-1,-10,-2,2,1,-2
117238229270,7,4,0,11,-1,-2,-1,-1
117238229270,-10,-3,-2,-4,-3,-2,0,-11
117238238189,2,0,0,11,7,0,1,12
117238238189,2,-1,-2,-10,-1,-1,0,-7
117238244200,8,-3,-3,5,-3,-2,-1,1
117238244200,-1,2,1,22,0,-2,-2,4
117238259193,3,-1,-1,-26,2,0,0,-2
117238259193,-7,1,-2,1,-2,-2,-2,-20
117238266688,14,4,0,-10,3,1,5,54
117238266688,-2,3,-1,0,-2,0,-2,-6
117238281689,-2,0,0,9,1,-3,-1,-2
117238281689,-2,-2,0,17,4,1,-1,3
117238289215,-9,-2,-2,-9,-2,0,-4,-21
117238289215,-2,-2,-3,-47,-10,-3,-5,1
117238304777,0,-2,0,38,4,-2,0,3
117238304777,1,-12,-1,-14,-4,-3,-2,-4
117238305554,12,-2,0,7,-1,-1,-2,6
117238305554,-9,-3,0,-5,-4,1,4,11
117238319243,3,4,-1,6,2,1,-2,-14
117238319243,-8,-6,-3,-5,1,-2,-2,-13
117238326873,13,2,1,0,-1,-1,0,18
117238326873,-4,-1,1,32,6,0,-1,-6
117238341693,1,0,-3,-53,-9,-3,-3,-4
117238341693,1,-2,-3,-5,-5,-2,-3,4
117238349369,-2,-1,0,11,3,-1,-1,-15
117238349369,10,10,-2,0,-3,-2,-3,-2
117238365081,-5,-3,-1,19,1,-2,-1,1
117238365081,8,1,3,9,5,0,0,15
117238365605,-13,-5,-4,-11,-8,-3,-2,-18
117238365605,-3,-2,-4,-43,-11,-3,-2,-7
117238379218,-7,-1,1,23,3,0,-2,-6
117238379218,-2,0,-1,22,5,1,0,2
117238386754,-22,-6,-2,2,0,0,-1,-16
117238386754,3,-1,-3,4,-2,-1,-2,-3
117238401671,2,-3,0,2,0,-1,1,4
117238401671,2,-2,-2,-19,-7,-3,-3,5
117238409234,-3,2,1,4,2,-2,-2,-16
117238409234,5,-4,-4,1,-2,-2,-1,28
117238433026,3,-5,0,-17,-3,-1,-2,-2
117238433026,0,3,0,12,0,0,-2,-4
117238433802,9,1,-1,7,7,2,2,15
117238433802,-5,-1,2,2,-8,0,1,-12
117238439170,-5,-1,-4,-36,-6,-2,-3,-3
117238439170,5,4,-2,-10,-4,-4,-2,4
117238446758,1,4,1,4,1,-3,-5,-5
117238446758,2,-1,-2,-1,0,-1,-1,-6
117238461875,-4,0,-1,25,0,0,0,3
117238461875,1,1,-2,-24,-7,-1,-1,-3
117238469308,-7,-2,-3,-9,-4,-1,-2,-6
117238469308,-2,-2,-3,-7,-2,-1,-3,-2
117238485124,1,0,-1,5,1,0,-2,-5
117238485124,0,-8,-1,14,1,-2,0,4
117238485624,-2,3,3,-3,2,0,-1,-1
117238485624,-4,-2,-1,1,-5,0,-1,-6
117238499219,-4,-2,-1,18,3,-1,0,0
117238499219,-5,-3,1,0,-2,1,0,3
117238514911,-2,-2,-4,-13,-4,-1,0,-1
117238514911,1,0,0,10,4,-2,0,-3
117238521668,-5,-1,-2,-4,-5,0,-1,-4
117238521668,-2,-2,-1,7,-2,-4,-3,0
117238529204,0,0,-3,-11,-5,-3,-1,-3
117238529204,-6,-13,-3,-2,2,0,-3,-6
117238544938,0,2,1,3,-1,-3,-1,-1
117238544938,15,9,-1,-5,0,0,-3,0
117238545734,-18,-33,-2,13,-1,-2,2,0
117238545734,-15,-9,-2,17,0,-1,-2,7
117238559372,-11,7,2,-20,-2,-1,2,16
117238559372,33,-10,1,1,0,3,1,2
117238566790,12,11,2,2,0,0,1,-1
117238566790,9,12,2,9,4,0,1,-1
117238581827,-5,-21,-3,-21,-3,-1,0,-2
117238581827,-17,3,-3,-1,-2,-5,0,-3
117238589290,-3,0,-2,-6,-4,-1,-3,1
117238589290,0,-2,-1,-6,1,-1,0,-8
117238604846,4,5,0,9,0,0,-2,-7
117238604846,-8,3,0,5,0,-1,1,-5
117238605610,-1,-10,-2,-17,-3,0,-2,-3
117238605610,-2,1,-1,-2,-3,-2,0,-4
117238619228,4,2,-1,9,0,-1,-2,-3
117238619228,-8,-5,-2,-4,-1,0,0,2
117238626715,-4,6,1,20,3,-1,0,0
117238626715,-1,1,-4,-16,-6,-3,-3,-2
117238641796,4,-5,-2,14,1,-1,-1,0
117238641796,-6,-3,0,-8,0,-1,-1,-1
117238649385,1,3,0,6,-1,-2,-3,-3
117238649385,5,2,0,3,2,-1,0,-5
117238665062,-3,-2,0,1,-2,-1,-1,6
117238665062,-8,-1,-5,-2,-3,-2,-1,-5
117238665657,2,7,-2,-8,-1,0,-2,-1
117238665657,-4,1,-1,4,2,-1,-2,-18
117238679447,4,-1,-4,-33,-10,-2,0,-7
117238679447,5,3,-1,3,0,0,-2,0
117238686875,0,-1,0,-3,2,-1,1,-3
117238686875,-5,-1,0,-13,-5,-2,-2,2
117238701940,-4,0,-1,6,0,-3,1,-8
117238701940,-4,-2,-1,2,-2,0,-2,6
117238709431,5,3,0,-14,-5,-3,-2,0
117238709431,-5,13,-1,26,3,1,-2,2
117238724847,14,5,2,3,0,0,-2,2
117238724847,-4,-3,-3,-7,0,-1,0,0
117238725664,-6,0,-3,-7,-5,-1,-2,0
117238725664,0,1,-1,3,0,0,-1,1
117238739248,-8,-4,-1,16,1,0,1,-4
117238739248,-2,0,-4,-12,-1,-2,0,-5
117238746898,-3,1,2,11,1,-1,-2,-1
117238746898,2,-7,-2,-14,-2,-2,-2,1
117238761763,0,-2,1,7,0,-3,-3,1
117238761763,-2,-4,0,-5,-2,-1,0,0
117238769300,-1,-1,-2,-4,-2,-1,-1,1
117238769300,3,-3,-2,0,-3,-2,-2,1
117238793176,-3,-3,-1,-2,0,0,-1,1
117238793176,-3,3,1,7,0,-2,0,-1
117238793859,-2,-3,-3,-12,-4,-1,-2,-2
117238793859,1,-5,1,-2,-2,0,2,1
117238799301,0,7,-1,4,2,1,-1,-2
117238799301,-2,-11,2,-11,-3,0,-1,-1
117238806670,-2,0,-1,10,1,-1,-2,-10
117238806670,0,-4,0,-1,-2,-1,1,5
117238821637,-1,1,-2,-5,0,-1,-1,-2
117238821637,1,-5,-2,10,5,1,-3,-3
117238829261,9,-2,-4,-16,-13,-2,-5,-13
117238829261,-3,-1,-2,-1,2,-3,0,15
117238844866,-20,-23,-2,-1,0,0,-1,-3
117238844866,-1,1,2,6,-1,-2,-1,0
117238845716,0,-1,-1,3,4,0,2,2
117238845716,9,0,-2,-8,-1,-1,-2,-5
117238859401,-1,0,0,1,-2,-5,-2,-2
117238859401,0,0,-2,21,2,-2,-3,-1
117238866830,-9,-4,-3,0,-3,-1,0,1
117238866830,-7,-29,-5,-4,-1,-1,0,-1
117238881888,8,15,0,2,3,-1,0,-1
117238881888,-7,2,0,9,-4,-3,-1,-3
117238889390,-2,-2,0,5,3,-1,-1,2
117238889390,-1,3,2,-1,0,1,-1,-5
117238904851,-9,-4,-4,-17,-3,0,-3,-4
117238904851,-2,-6,-5,-11,-3,-3,1,0
117238905609,-3,4,1,21,1,-1,1,1
117238905609,-4,1,1,-7,-5,0,-2,-3
117238920763,-2,-7,-2,0,-1,1,-1,0
117238920763,1,6,0,-3,-1,0,-2,1
117238934880,-2,-5,1,15,5,0,-1,3
117238934880,-1,3,0,1,0,0,-1,-9
117238941689,6,1,-2,-47,-15,-4,1,4
117238941689,9,-1,-1,-10,0,0,0,-3
117238949209,-5,-6,0,9,4,-1,-4,1
117238949209,4,9,1,9,5,-1,1,11
117238965037,1,10,-3,-16,-7,-2,-2,-3
117238965037,-8,-5,-1,-5,-2,0,1,0
117238965576,2,-7,-2,-10,-2,0,0,0
117238965576,9,16,1,4,-2,-1,-1,-4
117238979381,2,-5,-2,27,6,0,-4,-2
117238979381,-1,2,-2,-17,-5,-2,-1,-2
117238986720,-4,-3,-2,9,1,0,-1,-3
117238986720,-8,-2,-4,-45,-10,-2,-2,-7
117239001708,2,-5,1,24,5,1,0,1
117239001708,0,2,-1,-12,-3,-1,0,-3
117239009308,-5,0,-2,0,-6,-2,-1,-1
117239009308,2,-6,-2,5,1,-3,-2,-3
117239024934,-11,1,-3,-4,0,-2,-2,-3
117239024934,-1,-2,-2,4,0,0,-2,0
117239025712,2,4,-1,-11,-1,-1,-1,0
117239025712,-5,-5,0,7,1,0,-2,-3
117239039206,0,-3,0,10,-1,0,-1,7
117239039206,-2,2,-1,-3,-1,1,-1,0
