timestamp,emg1,emg2,emg3,emg4,emg5,emg6,emg7,emg8
83480480241,5,7,4,2,1,0,0,3
83480480241,-5,7,-1,2,0,-1,0,-2
83480495113,4,-6,1,0,-3,0,-2,1
83480495113,19,1,-1,-2,-1,0,0,-2
83480496762,-2,-2,-2,-2,-1,-3,-1,-1
83480496762,-1,-3,-1,-2,1,-1,-2,0
83480517690,13,9,2,1,-2,-2,0,-4
83480517690,-11,4,0,-1,-1,-2,-2,11
83480519307,-14,-11,-3,-2,-1,-1,-1,-3
83480519307,16,8,0,0,0,0,0,-11
83480531235,-5,-1,-3,-3,-1,-1,0,8
83480531235,-11,-2,0,2,-1,0,-2,-5
83480540287,3,6,-2,-1,-1,-2,-2,1
83480540287,3,15,1,1,0,1,-2,2
83480555167,10,-2,2,0,-3,0,-1,-2
83480555167,-12,8,1,0,-1,0,-2,-20
83480556749,1,2,4,1,1,0,1,-6
83480556749,-22,-7,-5,-2,-4,-2,-3,-1
83480577709,0,-4,-3,-2,-3,-2,-1,-2
83480577709,-3,-1,-1,-1,-2,1,0,5
83480579260,3,4,-2,-5,-5,0,0,1
83480579260,4,3,3,1,0,1,2,0
83480591270,-9,-23,-8,-3,-3,-3,-3,1
83480591270,0,0,-1,-1,0,-1,-1,-2
83480600265,-5,-12,-5,-2,-1,-1,-3,-3
83480600265,1,2,2,-2,-2,-3,-1,2
83480615154,5,3,-1,-2,-2,-1,1,1
83480615154,-13,1,-3,0,0,-1,1,0
83480616790,5,-3,-1,-1,-1,-2,-2,-1
83480616790,-2,-2,1,0,-3,-2,-4,0
83480637674,-2,6,1,-1,0,0,-1,-1
83480637674,8,19,2,-2,1,0,1,-1
83480639244,-1,-29,-2,-2,-3,-1,1,2
83480639244,-8,-6,-5,-3,-2,-2,-4,-5
83480651579,0,7,2,3,0,-1,-1,-3
83480651579,8,9,2,1,1,-1,0,2
83480660492,0,-1,-5,-1,-2,-1,-2,0
83480660492,0,-5,4,1,0,-2,1,-1
83480675440,-7,3,-4,-2,-2,-2,-2,-4
83480675440,4,-33,-10,-5,-5,-3,-3,0
83480676845,-3,1,1,-1,1,-1,0,-4
83480676845,12,16,1,1,0,0,0,2
83480696839,-12,-3,-1,-2,-1,-1,-3,-7
83480696839,-7,-3,0,-1,-3,-2,1,-7
83480705355,-3,7,-1,-1,-1,-2,-2,0
83480705355,-6,-2,-6,-4,-3,-1,-2,-3
83480720171,1,1,-4,-2,-2,-2,-1,3
83480720171,2,2,-1,-1,-1,-1,-1,0
83480721772,-5,-15,-5,-3,-3,-1,0,-3
83480721772,-1,-2,2,0,-2,1,-1,3
83480742753,-4,-5,-1,-2,-2,-1,-2,-2
83480742753,13,1,4,1,0,-1,0,2
83480744341,9,6,1,2,2,-1,1,0
83480744341,-1,2,0,2,0,0,-1,-1
83480757616,-7,-9,-4,-2,0,-1,0,-2
83480757616,-9,2,-2,0,-2,-1,-1,-3
83480759249,8,-14,-1,-1,-2,-1,-3,0
83480759249,1,-2,-2,-1,0,-1,0,0
83480780139,5,-3,0,0,0,-1,-1,1
83480780139,1,4,3,4,2,0,-2,2
83480781748,-12,2,-9,-5,-2,-2,-2,-2
83480781748,-1,-9,-3,-2,-2,-2,-1,-7
83480795139,-9,-10,1,3,1,1,-1,10
83480795139,-22,-23,-10,-6,-3,-2,-2,-2
83480796773,6,19,6,3,0,2,-1,0
83480796773,1,-5,-2,-1,-2,-2,-2,-2
83480817661,-3,6,0,-1,-1,-2,-2,-2
83480817661,-1,1,1,-2,0,-1,0,-1
83480819264,-6,-10,-1,-1,-1,-1,-1,-2
83480819264,3,-2,-2,-1,0,-3,-1,1
83480840163,23,16,3,3,0,0,2,1
83480840163,1,13,2,0,1,1,-1,3
83480841796,-2,0,0,-2,-2,-1,-3,-2
83480841796,1,2,-1,0,0,-1,0,-1
83480855185,-3,1,-1,-1,-1,-2,-3,-3
83480855185,5,8,0,0,-1,0,0,-1
83480856764,6,4,-1,-1,-1,-1,0,0
83480856764,-11,-9,-5,-4,-2,-2,-1,0
83480877673,-1,-6,-2,-4,-2,0,0,-1
83480877673,-1,-3,-3,-1,-1,-2,-1,-1
83480879303,-5,-3,1,1,0,0,0,-1
83480879303,2,-8,-2,-3,-1,-2,-2,-2
83480900421,16,12,0,-4,0,1,2,-1
83480900421,2,-2,1,-1,-3,-1,0,-1
83480901859,-20,-21,-6,-6,-3,-2,-1,-3
83480901859,9,-2,0,-2,-2,1,0,0
83480914730,-2,12,0,1,-1,-1,-1,-3
83480914730,12,0,-1,-2,-2,-2,-2,0
83480921504,1,16,7,2,0,0,1,2
83480921504,2,-1,0,0,1,-1,0,0
83480937811,-7,-9,-4,-3,-4,-2,-3,-3
83480937811,6,-2,-2,-2,-2,-1,0,0
83480939349,1,1,-3,-1,0,-1,-1,-2
83480939349,-7,5,1,0,0,0,1,1
83480960357,-7,-7,-4,-3,-1,1,-1,-1
83480960357,-1,3,-3,-1,-1,-2,-1,-1
83480961881,2,3,0,-1,-3,-1,-2,-1
83480961881,-4,0,0,1,-1,0,-1,-2
83480974591,0,-2,0,2,0,-1,-2,-2
83480974591,-8,-7,-3,-1,0,0,0,-1
83480981555,-1,3,1,4,0,0,0,-1
83480981555,-1,0,-3,-6,-3,-3,1,2
83480997882,0,-1,0,0,0,-2,-1,-1
83480997882,-9,10,-1,-2,-3,0,-4,-2
83480999340,5,7,3,3,2,0,0,1
83480999340,-2,0,1,2,0,0,-1,2
83481020389,-3,-6,-2,0,-2,-3,-1,-2
83481020389,-5,-4,-2,-3,-3,-1,-2,-2
83481021847,-1,0,0,3,0,0,-2,0
83481021847,-2,0,2,-11,-1,-2,0,-2
83481034709,-3,0,-2,12,0,0,-1,-1
83481034709,-4,-6,-5,-13,-6,-2,0,-1
83481041327,-2,-2,-5,-9,0,0,1,-2
83481041327,-1,-1,-5,-40,-4,-2,0,-1
83481057671,-2,-1,2,16,-1,-1,-1,0
83481057671,-1,-5,-2,10,-2,-2,-1,-1
83481059298,0,-2,-1,-3,-1,-1,-1,-2
83481059298,-3,-1,-3,15,2,-1,-1,-2
83481080449,1,0,0,1,0,1,1,0
83481080449,1,-5,0,18,1,0,0,1
83481081835,-1,0,-4,-6,-8,-4,-4,-3
83481081835,-2,-2,0,-9,-1,1,-1,-3
83481094008,0,17,4,31,3,-7,0,-2
83481094008,1,-3,11,-9,11,10,4,1
83481102854,-1,-3,-10,0,-8,-3,-5,-1
83481102854,1,1,-1,56,18,-8,0,1
83481117866,-1,-2,-5,-35,-23,1,3,-2
83481117866,-4,0,1,-10,-1,2,-2,-1
83481119302,-1,0,8,26,-14,-8,-1,-2
83481119302,0,0,-4,-13,-8,5,-1,-2
83481140366,-1,-6,-1,-7,12,-3,-3,-3
83481140366,0,-1,-6,14,7,4,-1,-1
83481141827,-8,-9,-7,-23,-14,-3,-1,-7
83481141827,-1,1,5,2,2,17,-4,-1
83481154082,2,-7,-6,-8,-11,-29,10,3
83481154082,12,1,-4,-6,-9,-5,-9,4
83481162895,-18,-1,3,2,10,12,3,-10
83481162895,0,5,3,-2,2,-11,-9,-5
83481177782,11,4,9,12,20,20,3,9
83481177782,31,-21,-5,-4,-2,12,11,13
83481179354,-11,12,-11,-7,-4,-3,-14,-29
83481179354,-34,-2,3,5,-9,-13,0,2
83481200266,-37,-14,2,-1,-2,4,-8,-30
83481200266,-3,8,-8,-9,-10,-1,-5,7
83481201821,110,13,3,-4,-1,-29,7,35
83481201821,12,-13,-7,-5,-9,-5,-19,-26
83481213977,-25,3,-1,-1,7,11,9,-17
83481213977,-43,11,1,-5,-1,10,13,59
83481222793,-13,-49,-13,-9,2,32,-16,-60
83481222793,82,19,2,6,4,-29,11,52
83481237797,38,-23,-9,-7,-4,19,-25,0
83481237797,-74,-9,1,4,-5,-37,12,-80
83481239301,17,-2,-3,2,-1,43,32,57
83481239301,65,11,6,6,7,-36,-11,32
83481260379,-50,-6,-1,-10,-7,1,-33,-55
83481260379,-27,-6,5,8,7,-25,-12,-35
83481261769,-40,8,1,-1,-5,34,17,15
83481261769,-48,-18,-13,-19,-21,-25,-18,-35
83481273837,81,27,0,-1,15,45,39,42
83481273837,22,-8,3,1,-9,-36,-20,0
83481282864,-128,-2,7,5,15,8,0,-39
83481282864,12,-3,-11,-8,-4,33,15,31
83481297848,-24,-7,8,14,-23,-79,-42,-12
83481297848,2,-12,-18,-33,-8,25,10,9
83481299316,45,-2,-5,-3,6,15,9,-12
83481299316,32,8,-2,5,-11,-15,8,10
83481320180,-92,0,-14,-16,-5,-13,-40,-72
83481320180,96,19,4,9,6,-11,12,61
83481321862,37,-24,11,3,4,-26,-24,-17
83481321862,-40,3,-6,4,21,66,46,52
83481334133,-26,-1,4,6,-1,3,15,-17
83481334133,-14,0,-2,-1,-21,-74,-41,-25
83481342835,-5,4,-3,-3,-20,-65,-36,5
83481342835,-31,-21,0,-3,-18,-4,-3,-19
83481357849,37,1,-2,-1,26,45,45,35
83481357849,32,1,8,12,24,58,9,-38
83481359284,0,28,6,5,6,-16,14,70
83481359284,-10,-11,-1,-2,1,29,-8,-4
83481380364,21,-2,-2,-6,-6,35,-24,22
83481380364,2,10,-1,1,-2,-14,20,9
83481381895,-16,5,-1,3,-3,-53,-16,-6
83481381895,23,-9,-2,-1,-3,-36,-18,-43
83481394022,17,-15,3,-4,-7,21,26,54
83481394022,-10,1,-4,-2,-12,-49,-43,-39
83481402850,19,-3,-1,11,15,29,-2,-4
83481402850,-14,7,-4,-20,-18,23,26,-11
83481417916,29,3,-6,2,7,-25,-3,8
83481417916,-11,-2,-2,-12,-4,24,8,-4
83481419302,65,6,6,16,18,37,2,65
83481419302,-98,-11,8,9,-8,6,-23,-104
83481440354,-9,-16,-10,-10,-4,-8,-6,16
83481440354,-33,12,7,17,1,-27,16,7
83481441794,11,19,-11,-20,-15,3,-10,-6
83481441794,42,7,1,1,4,-22,-2,3
83481454060,0,-5,-3,0,-1,8,7,-5
83481454060,-16,-6,-10,-17,-19,12,-13,-4
83481462949,-7,-4,-4,-1,9,10,8,-5
83481462949,-6,-8,-6,-11,-1,-5,-13,-30
83481478480,23,15,3,9,-15,-42,6,2
83481478480,-6,-5,3,5,22,41,-3,15
83481483950,-38,-6,-9,-4,-14,-25,-10,-55
83481483950,11,-1,0,3,22,19,7,41
83481500271,-2,-2,6,3,-6,-10,-2,0
83481500271,1,-14,-10,-17,-7,18,15,12
83481501807,20,2,-6,-15,-10,-12,-9,3
83481501807,-38,1,0,-1,-7,-11,-8,-4
83481513933,28,12,4,5,1,-11,-6,-4
83481513933,-24,7,3,-2,6,14,-7,-60
83481522813,-5,-3,-4,4,-7,-8,3,9
83481522813,20,2,0,9,20,1,7,24
83481537113,-15,3,-2,-9,-13,1,-3,-12
83481537113,18,-3,-5,-3,-8,1,-11,-6
83481543912,-5,-3,9,8,3,5,16,1
83481543912,14,1,-4,-3,9,-8,-1,12
83481560399,-29,7,-8,-22,3,9,4,-9
83481560399,24,3,3,3,-4,-1,-2,33
83481561815,-32,-9,-1,-8,-4,-1,3,-31
83481561815,5,-4,-1,3,-4,-3,1,6
83481574039,2,4,0,8,8,-9,-6,6
83481574039,4,-3,1,-6,-2,12,12,10
83481582880,67,-1,4,7,6,1,8,103
83481582880,-8,-1,-1,7,7,2,-3,-57
83481597116,-18,-1,-1,-3,-14,-8,-1,-4
83481597116,-8,5,-2,-4,9,-2,2,4
83481604061,0,0,0,-15,-29,7,6,13
83481604061,8,1,2,5,-7,-2,-7,-4
83481620464,5,-16,-10,-9,6,3,6,0
83481620464,15,-23,-9,13,3,-1,-3,26
83481621852,-29,5,-11,-21,2,-8,-1,-13
83481621852,-36,24,21,0,-12,-9,-13,-54
83481634014,23,-18,12,35,10,-1,9,65
83481634014,4,-1,-10,7,7,9,-1,5
83481642860,-62,-34,0,-2,11,4,-7,-78
83481642860,63,8,18,5,0,10,24,104
83481657234,-5,20,3,-5,-6,-10,-6,-13
83481657234,-23,3,-5,16,9,2,-30,-85
83481663894,91,8,13,-13,2,10,61,105
83481663894,-44,-2,10,1,3,-1,-6,-77
83481680347,2,-8,-13,-10,-6,-5,0,28
83481680347,-7,7,26,16,-7,-5,4,44
83481681801,-17,5,18,-1,4,-3,-24,-101
83481681801,-33,0,-4,-2,-8,-6,-19,-67
83481702850,50,5,-11,-25,-3,2,11,34
83481702850,-10,10,-6,18,-6,-1,-2,-27
83481704334,-17,-4,-34,-11,-5,-6,-37,86
83481704334,2,-8,-30,-25,-2,6,46,116
83481717224,-6,-4,-9,-5,-14,-20,-78,-93
83481717224,15,8,-4,-10,-1,12,22,64
83481724070,-11,-17,-1,24,7,-12,5,-116
83481724070,47,-7,-8,-8,6,15,19,70
83481740187,7,-4,-2,-8,-7,0,-5,-21
83481740187,-3,-16,9,0,1,5,1,-37
83481741757,-3,-27,-9,-8,-13,-27,-34,-29
83481741757,-5,-21,-17,-25,-42,-36,-32,-21
83481762644,-14,-18,6,30,39,28,32,14
83481762644,3,1,24,3,-10,32,-19,-24
83481764242,-22,3,-9,13,32,108,51,-10
83481764242,0,-1,-10,-17,-13,-39,-21,-19
83481785147,-1,-2,5,-10,-37,-62,-1,-5
83481785147,-16,2,2,-3,-5,-37,-8,61
83481786762,13,10,11,11,1,-36,21,40
83481786762,7,-11,8,13,24,25,-27,-37
83481800127,2,20,7,1,15,35,-4,-18
83481800127,11,-1,-8,-7,-5,-6,1,10
83481801742,17,11,4,-1,-13,-7,-13,-20
83481801742,-39,-1,-13,-6,-7,-1,2,-8
83481822737,-4,-15,-7,4,-7,-16,2,-9
83481822737,10,-3,-3,-10,-11,12,7,-18
83481824316,-9,3,-11,-35,-14,-18,-7,4
83481824316,3,9,3,18,2,1,1,-5
83481836274,13,-9,-4,-23,-13,5,10,39
83481836274,-21,1,8,11,8,-11,-2,-17
83481845325,-3,4,-5,-4,11,7,-2,13
83481845325,-1,4,-5,15,2,-1,-7,16
83481860166,-10,6,3,1,-5,-1,13,-12
83481860166,9,-5,-12,1,3,-5,9,26
83481861875,4,-7,0,-12,-8,-14,-9,-31
83481861875,-33,17,10,6,14,17,-2,-23
83481882681,24,8,3,2,5,6,19,64
83481882681,11,-8,-2,-11,-11,-16,-20,-31
83481884297,-30,16,5,21,1,-9,-5,-1
83481884297,24,-15,-6,-12,0,-2,10,12
83481896519,-17,-2,-3,4,2,8,-5,-12
83481896519,2,13,-2,-4,2,-3,12,17
83481905368,9,7,-5,3,-5,-8,-11,-9
83481905368,4,-2,4,4,-9,-6,5,20
83481920400,-1,5,6,2,16,8,8,-3
83481920400,1,9,2,-2,5,2,-1,-9
83481921913,-16,-14,-10,-2,4,6,-12,-8
83481921913,-5,-2,-11,-1,-3,-8,11,5
83481942925,-2,-4,-9,-9,-10,-1,-3,-8
83481942925,19,-3,-11,-11,-7,0,-3,4
83481944299,25,21,8,4,-5,-7,-3,-1
83481944299,37,-1,3,-2,0,0,-3,13
83481956542,-31,-1,-9,10,3,1,-1,0
83481956542,-4,-5,1,3,13,9,9,-20
83481965289,-20,-10,-3,0,-5,-4,-9,-32
83481965289,7,-4,7,-2,-1,-2,-12,-20
83481980298,0,-2,-8,-7,-2,-6,-2,2
83481980298,13,-17,5,11,0,1,-1,-4
83481981806,7,0,3,0,1,-6,-3,38
83481981806,3,-15,-17,-9,17,10,-1,-19
83482003008,-12,-3,15,11,10,-8,-16,-52
83482003008,0,1,-15,-26,-32,2,9,32
83482004652,-6,0,11,16,18,4,8,5
83482004652,-6,-2,-3,-1,-10,4,5,13
83482016287,7,7,4,1,-2,-6,-8,2
83482016287,-12,-3,1,3,12,-2,-6,-26
83482025311,1,3,13,8,-3,0,4,6
83482025311,7,4,-3,-4,10,-3,-7,15
83482040214,-2,-5,-4,2,6,3,9,8
83482040214,-41,3,0,-5,-11,-4,-5,-12
83482041781,-3,-10,-7,-6,-7,-6,-10,-19
83482041781,-8,2,9,6,0,-3,3,22
83482062878,9,16,11,-9,-7,3,-2,-18
83482062878,29,-8,-12,-3,10,6,16,61
83482064289,-15,2,5,13,-2,-8,-13,-65
83482064289,-4,-4,-8,-9,-10,2,3,12
83482076515,-9,-8,-4,-3,3,5,7,11
83482076515,30,7,13,8,3,-7,-11,-3
83482092877,4,-6,-15,-11,-11,-3,7,41
83482092877,-13,4,3,-5,-13,8,-4,-59
83482100357,-11,0,7,5,2,-1,0,-5
83482100357,-15,-4,-10,-23,-14,-11,-12,-15
83482101774,25,8,4,1,0,-5,-2,4
83482101774,-1,0,7,21,3,0,-3,-3
83482122778,-17,-22,0,-4,-3,0,11,17
83482122778,1,3,-4,7,0,-6,-13,-32
83482124338,31,-10,-5,-12,3,9,3,18
83482124338,-7,6,5,8,-6,-3,14,58
83482136622,-33,2,-17,7,-1,0,-7,-36
83482136622,-27,4,17,-14,5,-8,-20,3
83482145306,28,-14,17,3,-1,3,2,5
83482145306,-22,-7,1,24,31,7,13,-56
83482160363,59,7,-21,-48,-33,-12,-9,79
83482160363,-30,2,-25,-3,-3,-8,-25,-96
83482161891,21,-6,-15,-3,-1,4,-4,86
83482161891,-12,24,-4,-7,-3,3,4,-41
83482182751,-28,-7,2,19,2,-9,1,-57
83482182751,21,-14,-9,5,14,9,6,37
83482184283,1,6,10,-4,-6,-6,-6,-68
83482184283,20,3,-11,0,-9,-4,21,37
83482196294,-4,20,-1,-9,2,6,-35,-12
83482196294,-4,-11,2,7,-4,-1,29,27
83482205363,-52,-1,1,-4,13,-1,-26,-3
83482205363,12,-13,-9,-31,-10,6,8,12
83482220241,1,-4,-1,2,-25,-35,-29,-19
83482220241,12,12,6,-8,11,17,21,-3
83482221794,9,9,-6,6,-21,-1,-2,-10
83482221794,-28,-15,8,-9,15,11,-37,-42
83482242664,62,3,4,14,18,29,85,119
83482242664,-15,-2,-8,-24,-8,5,1,-11
83482244270,-15,-1,-1,-1,-2,-44,-5,-56
83482244270,21,12,12,26,3,1,-19,-4
83482256467,-19,-5,2,5,11,20,18,-28
83482256467,28,8,7,16,10,7,-9,10
83482265405,-14,-12,-8,-5,3,12,-1,0
83482265405,-16,-7,2,2,-14,-22,-22,4
83482280234,-5,-6,-3,-7,-7,-19,-19,-8
83482280234,-4,-3,-14,-15,-19,-2,3,9
83482281823,-8,5,0,10,4,7,3,11
83482281823,17,2,-1,-3,-4,-10,7,9
83482302897,-3,-6,-9,-21,8,4,-4,-7
83482302897,4,-6,0,3,-7,-6,-2,13
83482304348,-12,-1,0,11,-3,0,7,-8
83482304348,1,-4,-6,-15,-15,0,3,7
83482316533,-5,-14,-1,-1,7,3,-9,-16
83482316533,-9,-4,8,16,7,-5,-4,4
83482332878,4,2,-3,-2,1,1,7,19
83482332878,-2,2,-6,-8,0,-1,-5,1
83482340406,-5,4,7,14,0,-3,-10,-7
83482340406,3,0,3,-4,-1,-5,4,1
83482341811,-1,-8,-10,-11,-7,3,6,8
83482341811,1,-5,-4,-6,1,-2,3,6
83482361838,0,1,2,9,-3,-2,-7,-10
83482361838,-2,-6,-1,3,2,-1,1,0
83482370403,-5,2,-3,-3,1,4,3,2
83482370403,-5,-5,3,6,2,-4,-3,5
83482376504,2,0,-4,-10,-5,-5,-5,1
83482376504,-7,0,1,0,-2,0,3,-3
83482385353,-4,-1,-1,-2,3,4,0,7
83482385353,6,-1,-3,0,-1,3,5,3
83482399578,-1,-1,1,6,-3,2,5,-4
83482399578,-2,15,3,1,-1,-6,-9,1
83482406527,18,2,3,3,1,16,3,-1
83482406527,-2,-1,5,12,-1,-24,-3,1
83482422682,-9,-2,-6,-27,-3,-4,-9,-8
83482422682,-1,-2,-7,-7,-2,-1,3,-1
83482424285,-7,-2,-2,2,-1,0,-3,-3
83482424285,2,0,-2,-11,-1,18,4,0
83482436343,8,-1,-2,-16,-3,-3,-1,1
83482436343,-1,-4,1,5,-4,-5,-1,0
83482445343,2,-4,0,0,1,-4,-2,1
83482445343,-14,-7,-2,2,0,0,-3,-1
83482459733,-5,1,4,12,10,5,2,-6
83482459733,3,-6,-3,-7,-7,-3,-1,-1
83482466552,-7,-1,-5,-25,-6,-1,15,1
83482466552,4,-2,-7,10,-4,-7,-12,-1
83482482869,-4,1,1,14,-1,1,-1,-3
83482482869,-3,-4,0,-11,-3,-14,-4,3
83482484352,1,2,3,10,4,1,-6,-2
83482484352,-2,13,6,12,4,-1,9,-2
83482496362,-5,-12,-3,16,1,19,-3,5
83482496362,2,-4,-6,-15,-4,-12,-5,-6
83482505356,-4,-1,-4,0,-2,-4,-4,7
83482505356,2,0,-3,-26,-8,4,-2,-3
83482519716,0,0,0,32,9,-1,4,6
83482519716,-3,0,3,7,2,-4,1,-7
83482526555,-5,-1,3,17,2,-4,-2,-2
83482526555,0,-3,-2,1,-2,-4,-7,-3
83482542900,-17,-1,-2,-14,-10,-4,-4,-7
83482542900,-3,-5,-1,49,12,12,5,3
83482544334,-2,-1,-6,18,0,-15,-5,-5
83482544334,3,-1,8,21,2,12,1,2
83482564469,-3,3,-9,-63,-20,-11,-3,-5
83482564469,-5,-15,-5,8,3,-2,-4,-4
83482572902,-2,2,4,-7,-5,3,1,-2
83482572902,-2,-7,-16,-90,-11,-8,0,2
83482579567,4,2,-1,30,-3,-6,-4,1
83482579567,-6,6,6,37,6,2,1,3
83482586523,11,-13,-2,5,-3,4,2,3
83482586523,-6,-3,-1,-32,-10,-6,3,1
83482602843,-5,-6,-5,4,3,3,-8,-6
83482602843,3,1,-2,-13,-3,10,1,1
83482604321,-2,2,8,64,15,-1,-1,1
83482604321,3,0,-5,-10,-10,-13,-4,-2
83482625271,7,-1,6,-17,1,-4,1,1
83482625271,-4,-3,-2,22,0,4,0,-2
83482626773,-8,0,-1,-9,-4,4,-1,-6
83482626773,0,-5,-2,19,2,-1,-2,-4
83482639706,-3,1,0,-20,0,-4,-2,-5
83482639706,9,0,8,26,3,-7,5,4
83482646409,-11,2,-5,-22,-1,11,0,-1
83482646409,-2,-1,-4,74,-3,1,-1,1
83482662691,0,-1,2,5,0,-2,-4,-4
83482662691,2,-1,-6,-18,-6,-1,-3,-2
83482664264,0,-1,4,27,3,-12,0,1
83482664264,-4,-3,3,12,9,0,-6,-6
83482685264,0,-2,-1,22,4,5,4,-5
83482685264,-9,-23,-9,-41,-20,-3,-3,7
83482686776,-8,1,1,-1,6,1,-3,0
83482686776,21,0,-1,-47,-2,10,4,0
83482698838,1,-2,3,41,4,-8,-3,-4
83482698838,-1,-2,-10,-13,-6,-4,-4,-1
83482707827,1,0,-3,-18,-7,12,1,-11
83482707827,-7,-6,0,-3,14,-18,-3,5
83482722821,3,23,1,-46,-13,0,0,4
83482722821,0,-9,-4,-12,-1,2,-3,-3
83482724357,9,5,3,8,3,-4,-4,-1
83482724357,-6,2,0,-12,2,4,-3,-3
83482745408,-3,-1,-4,-69,-23,-3,-2,-2
83482745408,-4,4,1,52,15,-3,1,-5
83482746808,-4,-3,-1,-15,-1,10,-2,4
83482746808,-2,-15,-10,-5,-4,-9,-6,-4
83482758805,15,-8,-5,-22,-2,-1,0,-1
83482758805,3,13,5,7,-4,6,3,1
83482767854,-4,-11,-7,-22,-5,-9,-2,-1
83482767854,-1,14,-1,-80,-8,-4,-2,-5
83482782776,8,-9,0,18,-3,-3,-1,1
83482782776,-18,1,4,5,14,6,2,-6
83482784264,13,6,0,-15,0,-1,1,-3
83482784264,-2,1,0,0,-4,4,0,2
83482812733,-9,-4,0,16,3,-3,-2,-1
83482812733,8,5,0,-25,-8,-3,-3,1
83482814279,-4,-5,-3,-2,6,-9,-3,1
83482814279,-3,-2,-5,12,-16,-4,-2,-1
83482818775,-2,-4,4,46,11,-4,-1,1
83482818775,3,-2,1,-24,4,5,-2,-4
83482827848,0,8,-2,-72,-7,3,-1,0
83482827848,-6,-29,-6,98,-2,-11,-6,-5
83482842793,-9,0,-1,20,-4,4,2,1
83482842793,8,4,3,-6,1,2,2,5
83482844332,-3,-5,-3,16,-1,-3,0,0
83482844332,3,9,0,-16,2,3,2,-1
83482865123,-6,-2,-3,-9,3,-4,-2,-1
83482865123,-4,-4,0,26,1,-5,-4,-6
83482866790,-15,3,-5,-26,-13,-2,-2,1
83482866790,9,0,6,16,6,3,2,2
83482879046,-11,-5,-4,18,0,-1,-4,-2
83482879046,0,3,-3,-25,-6,-2,-1,0
83482887822,-3,-2,-3,25,-4,-7,-2,-2
83482887822,-4,4,4,16,13,2,1,1
83482904096,2,2,1,24,0,2,1,1
83482904096,0,-4,-4,-43,-13,-6,-3,-3
83482905696,1,-3,-3,-21,-5,-2,0,1
83482905696,-5,-4,-1,20,2,0,-1,-2
83482925176,-22,5,0,12,6,0,1,-2
83482925176,-1,-8,-1,74,8,-2,-1,-3
83482926788,3,-3,-4,-34,-11,-2,-1,-1
83482926788,-2,5,0,11,-5,1,-1,1
83482939052,2,5,3,-4,4,0,-1,0
83482939052,-1,4,2,21,-1,0,-1,1
83482947805,-6,-3,-2,-37,-7,-3,0,-2
83482947805,12,20,2,3,2,0,0,0
83482962714,3,-5,1,-17,-3,-2,-1,0
83482962714,-2,0,-5,1,0,-2,0,-2
83482964297,-7,-12,0,11,2,1,1,1
83482964297,-1,7,1,-26,-1,2,-1,-1
83482985236,-7,-9,-12,11,-8,-4,1,-3
83482985236,3,6,0,-34,-10,-1,0,2
83482986857,2,-8,3,33,5,-2,-2,1
83482986857,-20,0,-2,7,1,0,-1,-3
83482998826,1,-1,0,-8,-3,-3,-3,-2
83482998826,5,0,-2,-18,-3,-1,-2,-7
83483007790,3,-11,-10,4,-7,-7,-4,9
83483007790,-4,4,7,4,-1,0,0,3
83483022727,-2,-2,2,-11,3,1,3,4
83483022727,-13,-5,1,6,-4,0,-1,-3
83483024424,8,-17,-1,-1,2,-1,-2,-3
83483024424,-22,16,-5,-7,-1,-1,-1,-1
83483045240,15,5,2,-8,-2,-2,-4,1
83483045240,7,3,6,23,2,-2,-1,1
83483046800,-4,5,-5,-31,-10,-2,-2,-5
83483046800,2,-7,-4,10,3,1,0,-2
83483058845,2,-2,4,1,-1,1,-2,-2
83483058845,-4,-1,-10,5,1,-3,-3,-2
83483067760,2,6,6,27,2,-3,0,-4
83483067760,3,-9,-3,-23,-3,2,0,-1
83483082721,2,6,-3,-8,0,1,0,-4
83483082721,2,5,-1,13,-2,-4,-2,4
83483084294,-6,-23,-2,-6,1,-1,-1,-2
83483084294,21,-3,2,1,-3,-1,-1,-4
83483105250,-7,-5,-6,-16,4,1,1,5
83483105250,0,-12,2,13,-5,0,-1,-1
83483106795,9,10,-15,2,-4,-1,-1,-7
83483106795,7,-6,5,8,3,0,0,0
83483118915,-24,-25,-6,-13,-2,-3,-3,-6
83483118915,3,15,-1,-25,-1,0,2,3
83483127847,15,15,5,23,-1,-3,-4,-1
83483127847,4,-10,-5,-5,-2,-2,-2,-1
83483142719,0,1,-2,-2,-3,-3,-2,-1
83483142719,-5,-11,-4,-33,-4,0,0,-1
83483144252,-13,19,6,13,1,1,-1,-3
83483144252,-6,14,-1,-3,0,0,-3,-1
83483165202,4,3,-2,-2,-3,-1,-1,1
83483165202,-3,-3,0,0,1,0,-2,-5
83483166811,-6,-2,-2,1,-2,-1,0,-1
83483166811,-3,-3,-5,-5,-4,-3,0,-6
83483179007,2,-1,3,13,0,1,0,2
83483179007,-10,-2,-3,-7,-2,-2,-2,5
83483187855,-7,5,-4,5,1,0,0,20
83483187855,12,-4,4,6,-1,0,2,-8
83483202728,21,10,-2,7,0,-2,1,4
83483202728,-5,-9,-1,-7,2,1,4,2
83483204304,20,49,9,8,2,0,-2,-33
83483204304,2,-17,-2,1,-4,-2,1,69
83483225340,20,4,-2,2,-1,-2,-6,-89
83483225340,13,19,7,-1,0,0,2,11
83483226840,-5,-17,-7,0,-2,-4,-2,6
83483226840,9,-14,-4,-5,-3,-1,-1,-22
83483239041,-8,-3,-4,0,1,0,0,-12
83483239041,-15,27,-5,-4,-3,-1,-2,-5
83483247804,-9,-14,4,6,4,2,1,1
83483247804,2,-56,-5,-5,-4,-3,-2,-17
83483262704,2,-9,6,2,-3,-2,0,30
83483262704,-4,-4,-5,-8,-2,-1,-5,-12
83483264294,-1,-6,1,3,2,1,0,13
83483264294,-7,23,-3,-9,-2,-1,-1,-11
83483285255,-2,18,5,8,3,1,-1,14
83483285255,-1,-21,-4,-4,-3,-2,-1,7
83483286778,0,-5,-4,-4,1,-1,-2,-14
83483286778,-9,1,1,-1,-2,-1,-1,-4
83483298991,-16,-12,-8,-5,-3,-2,0,6
83483298991,2,2,-1,4,-1,-1,-1,-3
83483307853,3,-7,-1,-10,-6,-2,-4,3
83483307853,-7,8,-4,3,0,0,-2,-7
83483322980,-14,-1,-1,2,0,-1,0,14
83483322980,1,-7,0,2,0,-1,-2,-5
83483324338,15,16,4,7,2,0,0,6
83483324338,-5,-13,1,1,-2,-1,-2,-12
83483345194,28,-6,-3,-5,-3,-1,0,4
83483345194,-12,-14,2,-2,1,2,-2,-6
83483346825,-21,-40,-10,-5,-4,-6,-3,-4
83483346825,-8,10,-1,0,-1,-1,-2,-3
83483359035,-3,-3,-2,-2,-3,-2,0,4
83483359035,3,-8,-2,-3,0,-1,-2,-7
83483367834,-1,-3,2,9,0,-3,-1,2
83483367834,-3,1,1,-9,0,-1,-1,0
83483382754,-9,2,1,0,0,0,0,1
83483382754,6,1,-5,-3,-3,-1,0,8
83483384251,-3,9,2,1,1,0,0,-6
83483384251,2,6,0,4,2,0,0,5
83483405879,11,9,4,0,0,0,-1,-7
83483405879,-5,4,-5,-8,-5,-4,-2,11
83483407305,0,-4,1,1,0,1,0,-1
83483407305,-2,-9,-2,3,-1,-1,0,-4
83483419006,-14,-17,-9,-4,-2,-1,1,6
83483419006,3,6,6,2,1,0,-2,-6
83483427808,7,8,0,-1,-2,-1,-2,-7
83483427808,5,5,1,1,0,-1,-1,6
83483442745,-25,3,2,-1,-2,-2,-3,-10
83483442745,-3,-8,-5,-1,-2,-4,-2,-5
83483444310,-4,5,-3,-2,-2,0,0,0
83483444310,4,3,-3,0,-2,1,-2,-4
83483465293,3,-6,0,4,0,-1,-2,4
83483465293,-4,-2,4,0,0,-2,-1,-5
83483466783,7,27,2,1,-1,-1,-1,3
83483466783,-14,-7,-5,-2,-4,-1,1,-1
83483478886,-2,2,-2,-3,0,1,-1,-1
83483478886,17,2,4,1,0,-1,2,0
83483487894,-5,-6,-2,-1,-1,0,0,5
83483487894,3,6,-1,-2,-1,-3,-2,8
83483502868,6,10,0,4,-1,0,-2,2
83483502868,0,2,-2,-4,1,-1,0,-1
83483504377,0,-11,0,0,-1,-1,-2,0
83483504377,1,-1,1,-4,-2,0,-2,-7
83483525237,-18,1,-3,-2,-2,-2,0,2
83483525237,13,-3,-3,1,-2,-1,-3,-3
83483526791,5,-9,-2,-2,-3,-5,-1,-14
83483526791,1,18,3,-1,1,0,0,2
83483538970,21,-7,-3,-3,-3,-1,-1,-3
83483538970,-5,5,3,4,1,0,2,1
83483547913,-4,-3,2,2,0,-1,-2,5
83483547913,3,9,-3,-3,-2,-2,-1,3
83483562768,5,3,1,0,-1,-2,-2,-2
83483562768,-12,-9,-4,-2,-1,0,-2,-1
83483564335,-8,0,0,-3,-1,2,0,2
83483564335,3,6,1,3,0,0,-2,-3
83483585333,-8,-1,0,0,0,-1,-1,-1
83483585333,-9,13,-2,1,-1,-2,-2,-2
83483586813,-11,-3,0,-3,-2,-1,-4,-6
83483586813,-4,-7,-2,1,-3,-2,-1,-2
83483607799,7,7,0,1,0,-1,-2,1
83483607799,9,-29,0,-1,-1,0,-1,-1
83483609291,-7,-1,-3,-1,-1,-2,1,-4
83483609291,2,-37,-4,-2,-2,-2,-1,-4
83483622887,5,15,4,2,2,2,1,4
83483622887,-1,6,4,3,1,1,-1,-6
83483624346,4,-6,-4,-1,-1,-1,-2,5
83483624346,-1,-2,0,0,1,0,0,-3
83483645392,-2,-10,-2,-1,0,-3,0,-2
83483645392,-12,-2,-5,-6,-2,-3,-1,-17
83483646796,2,1,1,0,0,0,0,-1
83483646796,-5,8,-1,0,-2,-1,-2,-1
83483667876,-11,-11,-5,-4,-3,-2,-2,-5
83483667876,-6,2,-3,-4,-3,-2,-2,6
83483669328,4,2,-4,-1,-1,-1,0,3
83483669328,3,4,-2,0,0,-1,-3,-9
83483682774,-12,-7,-2,-4,-3,-4,-4,-2
83483682774,6,-10,-5,-2,-2,-2,0,-3
83483684308,5,-20,-3,0,0,0,0,1
83483684308,7,26,3,3,0,2,2,2
83483704410,10,33,2,-1,-1,-1,0,2
83483704410,0,-5,-3,-1,-1,0,-1,1
83483712839,-4,-5,-4,-3,-1,-2,-2,-4
83483712839,-12,-2,-5,-2,-2,0,-2,-1
83483727802,-4,-6,0,0,-3,0,1,-2
83483727802,10,8,-2,0,-2,-2,-4,17
83483729324,-19,5,-2,0,-2,0,-1,-7
83483729324,-10,-26,-2,-2,-1,-2,-2,2
83483742088,4,0,0,-1,-1,0,-3,-3
83483742088,-6,-4,0,0,-1,-2,0,1
83483756315,-3,-1,-4,0,-2,0,-2,1
83483756315,-10,19,0,-1,-1,-4,-3,-9
83483765382,-15,6,-3,-1,-1,-2,0,8
83483765382,-2,-1,3,0,0,0,0,-1
83483766827,5,7,2,-1,-1,-2,-2,1
83483766827,-2,3,-2,-1,-1,-1,0,-9
83483787670,4,-7,-3,-1,-2,-1,-2,-1
83483787670,-7,4,-3,-2,-3,-1,-1,-3
83483789268,3,-6,0,2,1,-2,-1,0
83483789268,1,13,0,-5,-2,0,0,1
83483802129,0,-17,-4,-2,-2,-4,-2,0
83483802129,2,-2,1,0,-1,-3,-4,17
83483809082,-24,-18,-4,-3,-2,-1,0,-14
83483809082,-12,-37,2,1,0,0,0,5
83483825279,-5,-3,-1,0,-1,0,-2,-4
83483825279,3,3,-2,-2,-1,1,1,-4
83483826925,10,-4,-3,-1,-2,-1,-3,3
83483826925,5,14,1,-1,0,-2,-2,7
83483847905,-1,-27,-2,0,0,0,0,0
83483847905,-5,-8,-1,2,0,-3,-1,-9
83483849315,-3,6,-3,-5,-5,-2,0,7
83483849315,14,13,2,1,-1,0,0,-1
83483862060,14,3,0,-1,-2,-1,-1,-10
83483862060,-6,6,1,1,-1,-1,-1,8
83483868873,6,1,-3,-1,-2,0,1,-3
83483868873,3,1,-1,-2,-1,-3,-1,2
83483885118,-7,-6,-2,0,2,1,0,-1
83483885118,2,0,-1,-3,-1,-1,-1,-6
83483886799,21,11,2,0,0,-2,-1,0
83483886799,-2,-30,-6,-2,-2,-2,0,6
83483907738,-1,10,-4,-4,-1,-1,1,-10
83483907738,-2,-7,-4,-2,-2,-1,-2,-2
83483909257,-10,0,-1,-3,-1,-1,-3,-1
83483909257,3,11,0,-1,-1,-1,-1,6
83483922162,-2,8,-1,-1,-2,-3,-3,2
83483922162,-19,-7,-6,-5,-2,-1,-2,-7
83483928886,0,5,-1,0,-1,-2,-1,-6
83483928886,-3,3,-3,-4,-3,-1,-1,-7
83483945388,-21,-1,2,0,0,-1,0,16
83483945388,0,0,-2,-1,-1,-1,-1,-3
83483946793,0,-1,1,-2,-2,-3,-2,2
83483946793,5,6,0,-1,-1,0,-1,-6
83483967795,0,-11,-3,-2,-2,-1,-1,0
83483967795,3,-13,-3,-2,0,0,-1,-5
83483969291,-3,-2,1,2,1,1,2,5
83483969291,-1,-3,-5,-2,-1,-1,-2,-3
83483982017,1,-4,1,-3,-2,-2,-2,-4
83483982017,-13,2,-1,-1,-3,-1,-3,0
83483989116,0,-1,-11,-8,-4,-3,-6,2
83483989116,-10,4,2,-2,0,0,-4,-25
83484005163,11,-1,0,1,-1,-1,3,32
83484005163,-4,4,0,0,-1,0,2,-4
83484006845,-12,-33,0,-1,-3,-5,-6,-17
83484006845,-10,-44,-7,-1,0,0,0,26
83484035220,-8,3,-3,-2,-2,0,-3,-43
83484035220,20,15,2,-4,-1,-1,-1,37
83484036755,-19,-17,-4,2,-2,-2,0,-18
83484036755,0,7,3,1,1,0,2,11
83484041958,15,-3,-4,-1,-2,-3,-2,-9
83484041958,4,-6,-2,2,0,1,1,-3
83484048804,-17,15,-2,-4,0,0,-1,-8
83484048804,13,22,4,-4,-1,-2,0,-4
83484065121,-18,-16,-4,8,0,0,-1,1
83484065121,-3,11,2,-1,1,-1,-2,-11
83484066740,5,16,2,1,0,0,1,13
83484066740,-10,-23,0,2,-1,-1,-1,-9
83484087646,2,8,-1,-11,-2,-1,-1,8
83484087646,6,1,-3,0,-3,-3,-4,-11
83484089399,8,10,4,1,-1,1,-1,0
83484089399,-2,-11,-4,-3,-3,0,-2,1
83484110177,-9,-9,1,0,0,-3,-3,-6
83484110177,43,8,0,2,1,1,3,-1
83484111751,11,6,1,-3,0,-1,-1,6
83484111751,0,7,-3,0,-3,-2,-4,5
83484125376,-7,6,0,1,0,0,-1,3
83484125376,15,-15,-1,-2,-2,-1,-1,-14
83484126818,-4,-1,-1,0,-3,1,2,13
83484126818,6,11,2,2,-1,-1,-3,-8
83484147620,18,10,0,-6,-3,-3,1,9
83484147620,-4,-26,-3,-1,0,0,-2,-4
83484149258,8,-4,2,2,1,0,2,3
83484149258,-15,1,-7,-4,-2,-2,-1,-8
83484161395,13,0,-1,-2,-1,1,1,4
83484161395,-5,-12,-2,-2,-2,-1,-2,-2
83484170355,-5,5,-1,1,-1,-2,-3,-4
83484170355,-8,9,5,2,-1,0,0,-9
83484184982,-1,-5,-3,-5,-1,-1,-2,-3
83484184982,-15,9,-1,-1,-1,-4,-3,0
83484191326,8,2,0,1,0,-1,-2,-1
83484191326,7,-6,-3,-3,0,0,2,6
83484207771,-2,-2,0,1,0,-2,-1,-3
83484207771,-20,4,1,-1,-1,-2,-3,-4
83484209286,8,-30,-3,-3,0,-1,-3,3
83484209286,2,10,-3,0,-2,-3,0,-8
83484230459,-10,-4,0,2,-3,0,-1,12
83484230459,-12,-8,-5,-1,-4,-3,-3,-1
83484231792,-7,-1,2,-2,-1,-1,1,-2
83484231792,6,-1,0,1,1,-1,-3,1
83484245147,-4,-15,-6,-2,0,0,-2,-6
83484245147,-9,8,0,-1,-2,0,-1,2
83484246746,2,12,-3,-2,-2,-2,1,0
83484246746,-13,-13,-3,-3,-1,0,0,-2
83484275385,-5,-3,-2,-2,0,-3,-2,-12
83484275385,-17,-5,-2,-1,0,2,2,-9
83484275935,14,-15,-1,0,0,1,-1,-2
83484275935,7,-6,-1,0,0,-3,1,9
83484289647,3,7,2,2,1,0,1,-12
83484289647,16,5,2,2,1,0,1,20
83484290313,-5,-4,0,3,1,0,-2,-3
83484290313,-11,2,-1,1,-3,-2,-3,-3
83484304469,-1,0,0,0,0,0,-1,2
83484304469,-5,-2,-3,-6,-4,-3,-3,-4
83484305227,-2,11,-3,-2,0,-1,-2,0
83484305227,-6,-22,-2,-2,-3,-2,-2,-1
83484326958,-3,-1,-3,-2,0,-2,-1,-1
83484326958,-11,-6,-1,-2,-2,-2,-2,-4
83484334562,-6,6,0,-1,-1,-3,-1,-2
83484334562,-4,-3,-2,-2,-1,-2,-3,-4
83484349439,-2,-2,2,0,-1,0,-1,-5
83484349439,-1,15,-1,0,-1,-2,-1,1
83484350238,-7,-1,-1,-2,-3,-4,-2,-2
83484350238,0,10,-1,-1,-2,0,-2,-7
83484364425,7,7,0,2,-2,0,0,0
83484364425,2,16,-3,-4,-4,-1,-1,4
83484365210,-9,-8,-1,1,-1,-1,-1,-5
83484365210,14,9,8,2,-1,-1,0,4
83484387186,-2,7,-3,-3,-2,-1,1,13
83484387186,-2,-3,4,1,1,1,2,-19
83484387815,4,17,-2,-6,-3,-2,-2,37
83484387815,5,8,0,0,0,0,-2,0
83484409448,-10,-6,11,10,0,-4,-4,-3
83484409448,-3,-8,-16,-9,0,0,-2,-13
83484410214,-1,0,-1,-2,-1,2,0,-16
83484410214,1,11,-4,-2,0,0,-1,-4
83484432617,-4,-15,-4,-2,-3,-3,-3,4
83484432617,0,-9,1,2,0,-1,-4,-2
83484433412,2,-16,-2,0,0,-1,-2,-16
83484433412,-5,11,-5,-11,-3,-2,0,6
83484447101,22,4,0,2,-1,1,0,-3
83484447101,-1,-2,0,4,0,-1,1,4
83484447789,0,7,-6,-1,-1,0,-1,-6
83484447789,7,-15,1,2,0,0,-1,0
83484469470,13,10,1,-3,1,0,0,0
83484469470,-13,5,2,-2,-2,-3,-2,-5
83484470253,-1,4,3,0,-1,0,-1,3
83484470253,-6,-3,-2,0,-1,0,-2,-5
83484484482,-19,-4,-3,-3,-2,0,1,-1
83484484482,11,-22,-2,1,-1,0,1,1
83484485266,10,-1,-1,3,0,-1,1,16
83484485266,-2,-5,-2,-2,-1,-1,1,-8
83484506946,3,-12,-2,-2,0,-1,-2,-6
83484506946,3,-12,1,-2,-2,-1,0,4
83484507773,-3,-4,-3,-3,1,0,1,0
83484507773,11,0,2,3,2,1,1,-11
83484537628,-7,-3,-1,-1,-1,-1,-1,18
83484537628,2,20,4,0,-1,2,2,-1
83484538433,11,-5,-3,0,-1,-1,0,-4
83484538433,-3,-7,1,-1,-3,-2,-3,-2
83484544403,-8,-2,-1,-1,0,-1,-3,-11
83484544403,-1,-17,-4,-1,-2,-3,-3,4
83484545199,-11,-27,-7,-5,-3,-3,-4,-9
83484545199,-1,8,-1,-3,0,-2,-1,2
83484566906,9,7,-4,-1,-2,-1,-1,-2
83484566906,13,18,-2,-4,-3,-2,-2,18
83484567700,3,8,0,1,0,1,2,-14
83484567700,-13,-10,-1,0,-1,-3,-2,0
83484589416,-5,-1,-3,-6,-1,-2,0,-1
83484589416,-7,-6,-1,0,-1,-2,-1,-3
83484590236,3,-2,-1,-1,-2,-1,-2,0
83484590236,5,3,0,-2,-1,-1,-1,-5
83484604418,14,6,1,-2,-1,0,2,3
83484604418,-5,7,-1,2,0,-2,-1,-5
83484605237,-13,-5,1,-1,0,-2,-3,-3
83484605237,-3,11,3,3,-1,-1,2,-1
83484626954,7,18,4,-1,-1,-3,-3,-2
83484626954,-3,-13,-4,-1,0,-1,-2,-2
83484627759,-2,2,0,-1,-1,-2,1,-1
83484627759,-16,-10,-7,0,-2,-2,-3,3
83484649454,-5,-7,-3,-1,0,0,0,-5
83484649454,-18,4,1,-1,1,0,0,-4
83484650258,6,20,2,-3,-3,-2,-1,9
83484650258,-6,-12,-3,-3,-1,1,0,-6
83484664443,-1,-26,-2,0,-2,-2,-2,-2
83484664443,7,14,1,-3,-4,0,1,-5
83484665210,-4,-2,0,-1,0,-2,-2,-8
83484665210,7,-4,-1,0,1,-1,-1,8
83484687070,-7,-14,-5,-1,0,0,-1,-6
83484687070,2,-1,-2,0,0,1,0,1
83484687732,-6,-9,-2,2,0,0,-2,-5
83484687732,-12,1,-2,-3,-1,-1,0,2
83484709504,-8,17,2,2,1,2,-1,-4
83484709504,13,1,-1,-2,-2,-2,-1,7
83484710309,-1,7,1,1,-2,-1,1,2
83484710309,16,2,-5,-2,-2,-1,-1,-1
83484724367,-19,-12,-5,-2,0,-1,-2,1
83484724367,3,-5,0,-1,0,-1,-1,6
83484725181,8,-5,-5,-3,-1,1,2,-8
83484725181,1,-3,1,1,-1,-1,0,5
83484755147,-1,2,-3,-3,-1,-3,-4,-3
83484755147,-4,-3,1,-1,1,0,-2,-2
83484756025,-1,-24,-8,-8,-6,-5,-2,-4
83484756025,-22,1,-2,-3,-1,0,-1,10
83484769518,-29,13,-5,-2,-3,-2,-2,-5
83484769518,4,2,2,4,1,0,-3,-8
83484770300,-6,-9,-2,-2,0,-1,-2,3
83484770300,-4,-6,-3,-2,0,-2,-2,-6
83484784562,0,1,1,-4,-2,-1,-2,1
83484784562,-6,1,0,0,-6,-3,-1,-3
83484785331,-3,11,1,3,0,-1,-1,0
83484785331,-8,-2,-1,0,-1,1,1,-2
83484806995,8,-12,-1,2,-1,-2,0,9
83484806995,-3,2,-4,-3,-1,0,1,-15
83484807677,3,4,2,1,2,0,1,2
83484807677,1,-8,-2,-3,-1,-1,-1,0
83484829459,6,-11,-2,2,0,1,0,1
83484829459,2,-8,-1,-6,-2,-3,-3,1
83484830204,14,13,5,3,-1,0,-3,-8
83484830204,0,19,6,4,1,-1,2,9
83484844423,9,13,2,-1,-2,0,1,-3
83484844423,-1,-8,-4,-3,-3,-2,-1,2
83484845305,-10,16,-4,0,-3,-2,-4,-2
83484845305,4,3,-2,-1,-1,0,-3,-5
83484867209,7,7,1,2,-1,0,0,-2
83484867209,-5,-1,4,3,2,0,0,2
83484867743,6,-6,-2,-1,0,1,0,12
83484867743,20,6,3,1,-1,0,1,-1
83484889435,-8,-21,0,-4,-2,-2,0,-2
83484889435,-6,-7,-5,-2,1,-2,-4,-17
83484890206,10,-6,2,-1,0,1,2,1
83484890206,-3,-6,-1,-2,-2,-2,-2,0
83484904586,17,15,0,-2,-2,-3,-3,-10
83484904586,-11,6,2,-1,0,0,-1,15
83484905264,-11,9,-1,-1,-2,-2,-1,-1
83484905264,-21,-4,-2,-2,-2,-3,-1,-5
83484926896,4,7,0,-1,-1,-2,0,2
83484926896,-1,-3,-2,-1,0,0,-1,-3
83484927699,-10,4,1,-1,-3,0,-2,-2
83484927699,0,8,-2,-2,-1,-1,-1,-1
83484949441,-4,-9,-6,-3,-1,-2,-2,0
83484949441,12,4,-2,2,-2,-1,-2,-1
83484950266,-17,10,-5,-4,-1,-2,-1,-9
83484950266,4,5,2,-1,1,-2,0,1
83484972594,-5,-2,1,-1,-1,0,-2,-1
83484972594,4,-7,-4,-4,-1,-1,2,-3
83484973472,3,-9,-3,-4,-2,-1,-2,16
83484973472,4,-39,-3,0,-2,-1,0,-11
83484987136,2,6,1,0,1,0,1,2
83484987136,-3,9,2,1,-2,0,0,4
83484987828,-39,-4,-2,-1,-2,-2,-2,-4
83484987828,-4,-8,-2,-1,-1,0,-1,0
83485009433,-9,-12,0,0,1,-1,-1,-3
83485009433,-1,-21,-4,-1,0,-1,-1,-1
83485010452,18,-2,-2,-2,0,-1,-1,-6
83485010452,4,1,-3,-2,-3,-1,-2,-1
83485023798,-11,0,-4,-1,-3,-1,-1,-7
83485023798,5,-8,-5,-1,-3,-2,-2,-7
83485032001,-1,2,0,-2,0,0,0,8
83485032001,-5,-2,-4,-4,-1,-2,-2,-1
83485046999,3,3,-4,-3,-2,0,-2,1
83485046999,-17,2,-3,-3,-3,-1,-4,-6
83485047791,3,-9,0,-1,-1,0,1,-6
83485047791,0,-2,-1,1,-3,0,-1,2
83485069455,16,15,5,3,-1,-1,-1,1
83485069455,-6,-15,1,-3,-1,-2,-3,1
83485070212,2,0,-1,-1,-2,-2,-3,-2
83485070212,-9,4,0,0,-2,-3,1,0
83485084681,8,-7,-2,3,-2,0,-1,-2
83485084681,-6,6,1,0,0,-1,-1,-3
83485085283,-7,-5,-3,0,-2,-1,-1,-1
83485085283,10,4,3,0,2,0,-1,-3
83485107150,-5,-6,-5,-6,-2,-1,-2,11
83485107150,3,11,0,0,-1,0,1,-1
83485107764,-3,22,-2,-4,0,0,1,-7
83485107764,19,7,0,0,-1,1,-1,-1
83485129482,-13,16,-1,-2,-1,-2,-2,-19
83485129482,5,-3,-3,-3,-1,-1,1,-1
83485130318,6,-6,0,2,1,-1,-1,4
83485130318,-9,-9,-3,-2,-2,1,-4,-2
83485143867,-4,4,2,-1,0,1,0,5
83485143867,0,8,-4,0,-2,-2,0,3
83485152006,-9,-12,-3,-1,0,-2,-3,-11
83485152006,-13,-3,-3,-4,-1,-1,-1,-1
83485166992,20,-10,2,1,0,1,2,0
83485166992,-1,0,2,0,-1,-1,1,-1
83485167781,6,-4,2,2,0,1,0,11
83485167781,-22,3,-2,-1,1,-3,-4,-1
83485189446,3,8,1,0,1,-1,0,2
83485189446,0,3,2,0,1,0,0,-2
83485190255,9,-11,0,-4,-2,-1,-2,9
83485190255,-9,0,-3,-1,-1,-1,-1,-10
83485203783,-7,-3,2,0,0,-1,0,0
83485203783,7,15,-1,0,0,0,-1,1
83485211979,-2,-9,3,1,-1,0,2,3
83485211979,10,-2,-1,0,-1,1,-2,2
83485226935,-12,-11,-4,-1,0,-1,-3,9
83485226935,6,-7,-3,0,-2,1,-1,-3
83485227727,-6,-17,-6,-1,-1,0,-1,-5
83485227727,6,1,1,1,0,1,2,2
83485249406,-4,1,-3,-1,-1,-1,-1,-6
83485249406,-4,22,2,0,-1,-1,-2,-9
83485250159,32,3,0,4,0,0,0,5
83485250159,-8,0,-6,-8,-6,-4,-2,-15
83485263756,-1,2,-2,-3,-2,0,0,-3
83485263756,2,23,3,2,0,0,0,6
83485272023,0,-4,-5,-2,-3,-1,-1,-8
83485272023,10,4,3,1,2,1,-1,4
83485287078,0,-3,0,-1,-1,-1,-1,-2
83485287078,0,-11,-6,-4,-2,-1,0,2
83485287762,-4,2,3,1,-1,-2,-1,1
83485287762,6,-4,-5,-3,-1,-1,-3,-5
83485309705,-14,-6,-4,-2,-3,0,0,0
83485309705,-2,-15,1,-1,1,0,-2,0
83485310284,-10,-2,-2,-2,-2,-2,-2,-5
83485310284,-22,-28,-4,-3,-3,-2,-2,-4
83485323819,1,16,0,-1,0,-2,-1,-5
83485323819,-1,-14,0,-3,-2,-1,-1,-1
83485332049,-10,-11,-3,0,-1,-1,-2,-5
83485332049,3,10,-1,-1,-1,-1,-3,1
83485347043,-20,-8,-2,-2,-1,-2,-3,-1
83485347043,-10,-3,-1,-3,-4,-3,-3,-23
83485347755,-5,13,-3,-1,-2,-2,-1,6
83485347755,12,7,3,2,-1,0,0,8
83485369374,1,-8,-2,0,1,-1,1,3
83485369374,-11,-14,-1,-1,-2,-1,-1,0
83485370201,-20,-2,0,-3,-3,-2,0,-6
83485370201,-11,-4,-3,-2,-2,-2,-2,-3
83485383779,8,8,-1,2,-1,1,-2,-7
83485383779,27,16,5,0,1,0,2,19
83485392178,10,10,2,0,0,0,0,-1
83485392178,1,-4,1,1,0,-1,-2,5
83485406984,-3,-3,-1,-2,-3,-2,0,-2
83485406984,-9,-8,-4,-2,-2,-1,-1,1
83485407800,2,-6,-2,-2,-3,0,-1,0
83485407800,5,6,0,0,0,1,1,1
83485430121,-2,-20,-2,-1,0,0,-2,-1
83485430121,-2,-5,-5,0,-1,-2,-1,-4
83485431026,-2,-1,-1,-3,-2,-1,-2,-6
83485431026,7,2,-4,-1,-1,-1,-2,19
83485444053,-21,5,5,1,1,1,0,-7
83485444053,-2,10,0,-4,-2,-2,0,6
83485452172,-2,-5,1,-1,-1,-1,-1,-9
83485452172,-4,-4,-2,-3,-2,-2,-1,-5
