timestamp,emg1,emg2,emg3,emg4,emg5,emg6,emg7,emg8
116997319470,-1,0,0,1,0,-2,-1,-4
116997319470,-1,-6,-2,-3,-2,-3,-2,0
116997320293,-20,-3,0,1,-1,-5,-2,4
116997320293,-1,-1,-1,-6,-2,-2,1,-8
116997324426,0,-1,1,-1,1,1,0,0
116997324426,0,0,0,-1,-1,-3,-1,-4
116997325986,2,-17,-5,0,-1,-4,0,2
116997325986,15,9,-1,2,0,0,0,0
116997330170,9,3,1,-1,-1,-1,0,3
116997330170,-10,0,0,-1,0,1,2,11
116997338810,11,25,0,-3,-2,-1,-1,-4
116997338810,-6,0,-1,1,0,-1,-1,-4
116997354186,1,5,0,1,-3,-1,2,-3
116997354186,14,7,1,0,-1,0,3,-1
116997361327,-1,7,3,2,1,0,1,0
116997361327,-9,-7,-1,1,0,-2,-3,0
116997369185,-5,-4,-3,-4,-2,0,-5,0
116997369185,0,-2,-6,-4,-2,-1,-5,-5
116997392730,4,-7,-3,-3,-2,0,-2,-3
116997392730,-1,4,1,4,-3,0,-2,1
116997395733,-14,-7,-4,2,0,0,-2,-17
116997395733,12,26,0,-1,-2,0,0,-5
116997412457,4,-11,-1,2,-1,-1,1,-4
116997412457,-4,-5,-3,-3,0,-4,0,-3
116997446682,3,24,6,3,0,1,1,3
116997446682,1,2,1,0,-1,-1,0,-1
116997451322,-8,-7,-3,-4,-2,-1,-3,-2
116997451322,3,-1,2,-1,0,1,-1,-2
116997452156,-3,-6,-4,-2,0,-3,0,-2
116997452156,-2,1,3,1,1,-1,0,-2
116997452910,1,3,0,1,0,-1,1,-2
116997452910,-4,2,-5,-6,-1,-1,-2,0
116997457502,-1,-6,-1,1,-1,-2,-4,-5
116997457502,-2,-5,-1,-2,-2,0,-2,-5
116997480649,4,16,1,0,0,-2,-2,-2
116997480649,1,-3,1,2,0,-2,-1,1
116997481443,4,2,2,0,-1,2,1,3
116997481443,0,3,-2,0,-1,0,0,2
116997489004,0,-5,-3,0,-2,0,-2,2
116997489004,-1,-2,-1,-1,-4,-4,-1,-4
116997503194,-1,5,-2,1,0,-1,0,0
116997503194,-4,-3,1,3,-1,-4,0,1
116997518212,1,-1,-4,-1,-1,-1,1,-2
116997518212,4,-3,-4,-4,-2,-1,-2,-3
116997518917,-7,-11,-1,2,-2,-2,-3,-1
116997518917,-2,-3,-2,-9,-2,0,-1,0
116997540708,-11,-6,-1,0,0,-1,0,0
116997540708,0,3,-1,-1,2,-1,-2,-2
116997541468,3,-2,-2,-2,-1,-2,-2,-1
116997541468,0,-5,0,1,0,-1,-1,0
116997555020,3,-3,1,-1,-1,0,0,1
116997555020,-3,-1,1,2,-1,-1,0,1
116997563198,-4,-5,1,-4,0,-1,-1,-1
116997563198,0,-5,-7,-8,-2,-2,-3,-1
116997578192,-1,-2,2,0,-2,-2,-2,-1
116997578192,-7,-3,-7,-1,-3,-1,-2,-1
116997578893,-2,-4,-4,-8,1,-3,-4,-4
116997578893,0,1,2,-2,-1,-1,-1,-3
116997600690,0,2,6,6,2,2,0,-1
116997600690,2,-1,7,14,0,2,3,0
116997601520,1,-4,-5,-9,-5,-4,1,-2
116997601520,-3,1,-9,-8,-2,-1,0,-2
116997614952,-3,-3,-2,2,1,-2,-3,-3
116997614952,-1,-3,2,5,1,-3,1,0
116997623203,-1,-3,0,-7,-6,-1,-2,0
116997623203,-3,-2,-4,4,5,-2,-5,-5
116997646290,0,0,2,3,-5,-2,1,0
116997646290,-2,-1,-5,-9,0,13,-2,-4
116997647170,-2,1,2,-1,2,-17,0,-1
116997647170,-1,-1,2,-3,-14,4,-1,1
116997660659,-1,-2,1,0,-1,-4,-5,-2
116997660659,-3,-2,-4,-5,-1,-6,-3,-1
116997661443,-2,-2,-4,1,0,5,-2,-4
116997661443,2,0,2,7,8,0,3,7
116997683178,2,-3,-5,-2,-2,4,5,1
116997683178,-1,-1,-1,-12,2,1,0,-2
116997683905,-1,-2,0,4,-4,-3,-4,-1
116997683905,0,1,-2,0,-4,-8,-1,-3
116997698192,0,-1,4,4,-4,-7,-1,-3
116997698192,-2,-3,-11,-10,0,4,-1,-2
116997698950,-3,-4,-1,11,4,16,3,-3
116997698950,-2,3,3,-9,-1,-19,-7,-3
116997721213,-4,-5,-12,-13,-6,7,-2,-3
116997721213,1,0,2,4,-5,-11,-2,2
116997721837,0,1,4,3,1,5,0,0
116997721837,-5,-7,-13,-8,-8,2,2,-1
116997743226,-1,-1,1,-2,5,-1,-10,-2
116997743226,-3,-1,4,7,1,-8,8,-1
116997743915,-1,-2,-5,-8,-4,3,2,1
116997743915,0,1,5,11,12,8,-2,0
116997758197,-2,0,-5,-8,7,13,7,-2
116997758197,3,1,1,-4,-27,-23,-7,1
116997758923,-1,-3,1,-3,3,-6,0,-2
116997758923,2,-1,0,-3,-3,9,6,2
116997780629,1,-1,-1,2,6,2,-2,-1
116997780629,-2,-1,-2,-4,3,1,-7,0
116997781401,-6,-4,-2,-4,-10,-2,1,-27
116997781401,-6,-3,-1,1,-12,-19,-8,-3
116997803189,-4,-13,-1,4,3,4,5,0
116997803189,-1,-4,-2,-2,-1,-1,-4,-4
116997803968,-1,1,-4,1,11,25,3,9
116997803968,-3,-3,1,3,-3,-6,3,3
116997818167,-4,1,3,0,-1,-5,0,-1
116997818167,3,-2,0,-1,-4,-16,-6,2
116997818958,-2,0,-4,0,-7,-10,-14,-2
116997818958,-4,3,-2,-7,-13,-18,-3,-10
116997840712,4,1,-1,0,14,18,15,9
116997840712,2,3,1,5,4,4,-5,0
116997841477,-1,-1,-1,1,2,18,12,5
116997841477,2,-1,2,1,-2,0,-11,-5
116997863197,-2,12,-7,-12,-18,-51,-6,-3
116997863197,-3,-8,-1,0,15,30,2,-2
116997863969,2,2,2,2,-9,-31,-7,1
116997863969,-1,-4,-5,-2,-3,13,3,-7
116997878204,-2,-2,0,-1,-6,-15,-13,-1
116997878204,2,-2,-4,-5,5,33,22,27
116997878996,2,-1,2,3,-6,-6,-11,-10
116997878996,-1,-3,3,3,18,38,2,5
116997900719,1,0,-3,-8,-11,16,7,1
116997900719,-6,-3,0,1,10,-7,-7,-10
116997901483,-4,-3,-1,1,5,-23,1,9
116997901483,11,1,1,-4,-2,21,9,5
116997923375,-2,-1,0,1,-8,-45,-12,-1
116997923375,-2,1,3,-1,-3,22,-2,5
116997924069,0,4,-1,-6,0,2,11,3
116997924069,-9,-3,-3,2,0,-4,1,-21
116997938423,4,-2,0,7,8,24,16,13
116997938423,-1,1,-1,-7,-4,-23,-4,-11
116997939039,-2,-3,-3,-5,-2,-4,-11,-4
116997939039,0,-1,1,-4,-13,8,-16,-2
116997960713,-1,-6,-6,0,5,44,3,2
116997960713,-2,-1,4,4,-4,-67,3,-3
116997961425,5,1,-2,1,1,16,0,9
116997961425,-2,1,3,1,-3,-43,0,-1
116997983231,2,7,3,5,12,7,-10,7
116997983231,14,0,-6,-2,-5,43,7,-1
116997984021,-4,-1,-2,-6,-7,-19,-24,0
116997984021,-8,-3,-4,-3,2,10,16,2
116997998459,9,5,5,6,4,-2,4,4
116997998459,-16,4,-5,-2,1,-6,-6,-10
116997999004,5,-21,-6,-7,-1,-4,2,-7
116997999004,0,9,4,0,-11,2,2,-1
116998020898,2,-11,-3,-7,-3,-21,-12,9
116998020898,18,6,3,4,-6,-1,-7,8
116998021486,-48,-8,-8,-9,-3,-15,-3,-54
116998021486,-26,-2,-4,7,21,-7,-33,-6
116998043380,-2,-5,-7,-8,-15,7,32,3
116998043380,6,-1,2,5,-2,9,13,14
116998044051,15,16,3,0,6,0,-12,-7
116998044051,14,-3,-1,-9,-21,4,22,13
116998058265,-3,1,-2,0,-8,-4,-9,-11
116998058265,-5,-5,-4,0,7,2,-5,3
116998059022,18,5,2,2,-4,-15,0,1
116998059022,-6,-7,-4,-4,-6,-14,-11,-3
116998080723,-10,-2,2,8,0,13,1,1
116998080723,-5,-3,-4,-12,-8,-16,-2,-11
116998081654,6,-1,-5,-8,-3,16,-10,-3
116998081654,12,-3,4,4,2,-31,11,31
116998103391,-13,0,2,-1,0,4,-22,-14
116998103391,10,1,-3,3,7,7,11,-29
116998103941,2,6,9,-4,7,17,14,70
116998103941,-9,-3,3,2,0,14,-10,-24
116998118466,55,0,-7,-9,-3,-5,16,25
116998118466,-101,-12,1,2,-7,-10,-21,-70
116998119024,-16,-7,-2,2,-1,10,7,-5
116998119024,4,6,0,0,7,-16,-7,-24
116998140965,21,-6,-5,-9,-11,7,5,54
116998140965,43,6,3,-8,-7,-5,3,38
116998141521,-6,-5,-4,7,-3,-12,-11,-52
116998141521,-9,-4,-1,-1,15,18,-4,3
116998163401,-7,4,6,-4,-2,-9,-10,-37
116998163401,27,4,0,8,-8,2,1,25
116998163958,-7,-3,2,23,2,0,21,26
116998163958,-14,-7,-16,-39,-2,-2,-10,-40
116998178315,-7,2,1,-11,-5,-8,-9,-6
116998178315,6,-15,-9,-4,-4,-7,2,19
116998179032,26,-12,7,5,3,2,-2,1
116998179032,2,-3,-9,8,-4,-2,3,32
116998200973,11,10,9,8,1,-1,4,7
116998200973,-12,-3,1,3,0,-2,-9,-41
116998201561,0,2,0,2,0,3,-5,-9
116998201561,17,2,4,6,-2,2,4,30
116998223430,-51,-18,1,1,0,-14,-16,-54
116998223430,21,5,-6,-5,0,3,-1,12
116998223944,-4,3,-2,-8,-7,0,8,15
116998223944,7,6,10,17,8,2,1,-15
116998237737,-6,-9,-9,-6,5,-1,-6,2
116998237737,-4,6,11,1,-12,2,-4,0
116998245872,-9,-6,-4,-2,1,1,1,-6
116998245872,-3,-1,-11,-3,-11,-2,1,9
116998260888,-7,2,6,1,6,-7,0,-1
116998260888,-12,5,1,-9,-2,-4,4,31
116998261467,10,-7,-23,-7,1,-2,-2,-58
116998261467,13,0,9,8,6,8,2,6
116998283315,-5,5,-7,0,-8,-3,-2,1
116998283315,-21,0,11,4,11,4,3,-15
116998284092,-8,6,-14,-17,-14,-4,-8,28
116998284092,15,-18,-8,-8,4,0,5,12
116998297474,-22,-3,-1,3,-3,-2,-15,-51
116998297474,-6,-14,-8,-10,-1,-1,3,-3
116998305672,0,6,9,1,0,4,20,17
116998305672,26,16,-4,6,4,2,-10,5
116998320692,-67,-15,-9,-19,-12,-4,8,-16
116998320692,19,1,4,10,3,0,-16,-19
116998321448,-7,-15,0,5,0,-3,-5,12
116998321448,2,7,-16,-14,-4,-10,-9,-3
116998343177,14,-3,-6,4,0,-1,-6,23
116998343177,-12,5,9,16,7,-6,8,-34
116998343947,1,0,-5,2,-1,-2,-19,-23
116998343947,-1,4,2,-10,-8,2,13,63
116998357508,-29,-11,-3,3,2,-6,2,-14
116998357508,11,-1,2,7,2,13,-7,33
116998365678,-1,-1,1,-9,-11,-25,-16,2
116998365678,-27,-13,-2,1,-7,1,-12,-41
116998380718,8,16,-8,-12,-9,6,-52,-65
116998380718,18,-1,6,8,-13,-25,53,39
116998381441,-8,2,12,19,40,74,12,23
116998381441,-16,-5,3,-2,-1,-27,19,-7
116998403185,32,14,-1,0,2,16,19,-2
116998403185,-2,2,-1,2,10,-41,-74,-33
116998403943,34,28,15,5,-17,-18,59,39
116998403943,2,-16,-4,7,0,-4,-20,-54
116998426352,22,-1,0,11,6,27,20,29
116998426352,-11,-6,-21,-32,-11,18,-3,3
116998427986,-8,2,-9,-12,-8,-27,-24,-33
116998427986,-7,4,6,5,-4,12,-2,-6
116998448829,2,-11,-1,-6,-8,-24,1,5
116998448829,-9,-5,2,9,3,7,4,13
116998450389,-8,-3,-7,-12,-7,-10,-20,0
116998450389,-5,3,6,-3,3,9,11,3
116998462544,7,-1,3,5,2,-2,-3,9
116998462544,-4,0,-7,-20,-5,1,-1,-2
116998477463,4,-3,6,8,-4,7,10,6
116998477463,-11,1,-7,-11,1,-4,-7,-8
116998486336,-3,-11,8,12,4,-7,-11,5
116998486336,4,4,2,6,6,18,13,2
116998487969,-10,-18,-7,-12,-9,-13,0,-13
116998487969,-9,-2,2,3,-1,-5,-19,7
116998508879,9,10,8,2,2,-2,1,-28
116998508879,3,1,-13,-5,-6,-7,-4,5
116998510498,-15,0,2,10,11,15,-3,10
116998510498,-38,3,0,-23,-4,-7,-4,-18
116998522501,-1,-2,-1,-1,-5,-3,8,5
116998522501,-9,6,-8,-11,-6,0,-2,-9
116998531494,7,3,3,3,6,-3,-5,-2
116998531494,14,1,0,7,0,2,1,12
116998547722,-2,5,3,-1,-1,-6,-3,8
116998547722,2,-1,-5,-2,-4,3,-3,-2
116998549378,-3,0,0,-2,3,-4,-2,-3
116998549378,5,2,5,11,-6,-2,3,-1
116998568862,-2,0,-21,-22,-3,1,1,14
116998568862,1,-4,0,1,-6,-6,-8,-16
116998570436,-15,1,-4,-9,6,6,4,4
116998570436,10,-7,-4,7,2,-7,-18,-24
116998582511,-2,-1,2,7,4,-6,1,5
116998582511,14,0,-8,-20,-9,-2,2,3
116998591449,1,-1,-3,1,-4,-5,-3,-5
116998591449,7,4,12,9,0,1,5,18
116998606378,-5,-1,-11,-13,-4,-5,-4,-1
116998606378,-5,4,4,9,5,6,5,-7
116998607982,20,-5,-14,-14,-6,-2,-8,-3
116998607982,10,2,-3,7,5,2,2,8
116998628835,9,1,6,-3,-2,-3,-1,5
116998628835,-7,-1,11,10,-2,-2,-1,-9
116998630436,-6,-3,-8,1,5,1,2,8
116998630436,-8,-4,-1,2,-3,3,3,-2
116998642588,5,-7,-16,-4,-4,-4,1,-10
116998642588,-8,-4,0,-16,-18,-8,0,4
116998651466,5,0,2,2,-3,-1,-6,-5
116998651466,-15,-1,0,4,-1,3,9,0
116998666326,4,0,3,8,10,3,5,20
116998666326,25,-3,-2,10,4,-5,2,42
116998667935,-39,5,2,-2,1,10,0,-43
116998667935,-13,-1,-2,-16,-9,-1,3,-10
116998688810,-5,-12,-2,17,8,7,-4,0
116998688810,15,-4,-4,-13,-8,0,14,15
116998690473,12,-1,-6,8,-2,-6,-5,4
116998690473,-32,-23,-6,1,1,1,14,-18
116998702469,18,14,24,32,11,7,12,68
116998702469,-11,-13,-17,-33,-6,-1,-1,-11
116998711494,19,2,11,4,0,-4,-5,-25
116998711494,29,15,-9,0,-2,2,7,82
116998726444,-24,-6,-2,-8,-11,-8,-7,-24
116998726444,8,12,8,14,8,0,-10,-9
116998727938,43,11,2,1,1,6,15,23
116998727938,-44,-7,0,14,10,5,4,5
116998748879,6,7,2,-26,-6,-7,21,38
116998748879,10,10,6,23,18,15,-28,9
116998750471,-10,-5,3,-10,-21,-8,25,-18
116998750471,21,6,-7,-5,-1,-12,-10,29
116998762506,-8,1,0,3,-5,-6,-3,12
116998762506,-9,-5,0,-2,15,16,12,-48
116998771505,14,0,11,17,14,3,-33,53
116998771505,14,-5,-3,-10,-7,11,56,-32
116998786412,-2,-6,-12,-35,-21,-9,-26,-36
116998786412,-15,-2,0,6,-5,-22,-19,9
116998787947,-11,-11,-9,4,3,5,9,-27
116998787947,11,4,8,9,9,7,-25,1
116998808864,-10,-5,-15,-15,9,10,4,-20
116998808864,-20,-1,3,-3,-15,-7,-11,-23
116998810487,-10,-7,-11,-22,-10,-14,-18,7
116998810487,-2,0,2,-2,-11,-14,-13,-26
116998822500,-11,-1,3,21,1,-7,-14,-18
116998822500,1,-2,-5,-13,6,2,10,11
116998831518,-14,-6,-5,18,-5,-6,-5,0
116998831518,10,0,-4,-42,-8,-4,-9,-4
116998846413,0,0,11,22,7,5,5,-10
116998846413,-6,-8,-11,-68,-13,-3,1,2
116998847969,0,-3,5,32,3,1,9,4
116998847969,0,3,2,7,1,0,-9,-14
116998868851,4,0,7,-11,-2,0,-3,-3
116998868851,-7,-8,-17,17,-2,-2,4,-4
116998870428,-7,-1,2,10,-5,-5,-8,-4
116998870428,-1,0,-4,0,3,2,-3,-7
116998891377,6,-14,-4,-18,-2,-2,-2,-5
116998891377,4,0,5,37,5,-1,3,6
116998892989,1,1,-4,-32,-2,-1,0,0
116998892989,-3,1,-5,-3,1,-2,-8,-5
116998905656,9,6,1,-2,1,1,4,-1
116998905656,-15,2,3,37,2,0,-1,-3
116998912507,-6,-5,-6,-81,-12,-3,-4,-3
116998912507,3,0,5,63,8,1,-1,-5
116998930281,-3,-1,-9,-93,-20,-3,-5,-7
116998930281,4,1,1,-8,6,1,1,3
116998931895,-5,0,6,71,3,-3,-4,-1
116998931895,-16,2,-14,-21,-12,-1,0,-1
116998942585,26,5,5,88,12,6,1,-1
116998942585,0,-2,6,72,7,17,1,2
116998951452,-2,1,1,-37,-10,-31,-2,2
116998951452,-2,-1,0,0,9,7,-4,-3
116998965696,-8,2,-4,42,-3,0,2,0
116998965696,3,-11,-5,-10,-7,-8,2,-1
116998972531,1,0,-4,-9,8,11,2,0
116998972531,8,-1,3,9,-8,-3,-3,-3
116998988809,-8,-1,2,7,6,-12,2,-2
116998988809,0,2,8,52,12,7,-5,0
116998990444,-11,-5,-10,-74,-13,-5,-4,-1
116998990444,17,0,3,31,-1,3,9,0
116999002509,-3,-3,-2,-1,1,0,-2,-1
116999002509,-8,-2,-5,5,-6,-3,0,-4
116999011570,1,0,3,41,13,13,-6,0
116999011570,-5,-2,0,-36,-4,-15,1,-3
116999025632,-3,0,-2,-33,-8,4,-8,-7
116999025632,5,2,2,26,2,-8,7,0
116999032482,-1,1,-3,-1,4,11,2,0
116999032482,-2,-5,-6,-42,-10,1,-7,-4
116999049064,-13,1,-3,-2,0,2,2,-7
116999049064,-8,-5,-5,-48,-13,-17,-4,2
116999050703,-8,16,10,55,5,-1,2,-6
116999050703,13,-4,0,-22,2,6,-1,2
116999062755,16,3,5,14,3,-14,-2,4
116999062755,-5,-4,-15,-85,-20,5,-1,-3
116999071549,-1,2,-1,-11,-2,1,0,-1
116999071549,-5,-1,2,17,1,-8,-3,-2
116999085678,-6,-4,-9,9,-4,8,-2,-4
116999085678,2,1,7,29,2,-9,-3,-4
116999094033,2,-8,-8,-30,-2,-4,-4,0
116999094033,-2,-2,-4,-7,3,9,-1,1
116999109109,-4,-2,4,25,5,4,3,-8
116999109109,0,1,0,-39,-4,9,4,11
116999110544,-5,-7,-3,35,-4,-12,-4,-3
116999110544,-1,1,5,-2,0,10,-5,-4
116999131578,8,2,-7,-39,-10,-26,-2,-1
116999131578,-10,-4,0,34,5,5,-6,-2
116999133046,-5,-5,-1,-4,0,2,4,5
116999133046,12,7,-6,-33,-2,2,0,-3
116999145747,13,-2,3,-13,-4,5,6,7
116999145747,2,0,-4,3,-2,-1,-4,-2
116999152516,3,-3,7,55,6,-3,-3,-1
116999152516,-20,9,-1,-20,0,-21,-23,-7
116999168917,-3,-6,-7,-23,-7,11,18,1
116999168917,6,4,13,3,17,11,-1,-2
116999170478,0,-3,-19,-49,-26,3,-2,-5
116999170478,-4,-2,6,83,1,-12,2,1
116999191438,-6,1,3,-43,-2,-8,-13,-17
116999191438,-1,-4,-13,-29,-10,-3,5,12
116999193014,3,0,7,33,11,6,3,-1
116999193014,4,-3,-1,19,2,6,-2,0
116999205932,-8,-3,-5,5,-6,-10,-7,-2
116999205932,0,9,1,11,1,-8,1,-8
116999212540,4,0,1,17,6,11,-3,1
116999212540,-3,-8,-4,-41,-8,-11,3,-1
116999229069,-8,-3,4,36,-3,-11,-5,4
116999229069,-1,-1,-4,-5,1,4,0,-2
116999230514,38,12,-1,-33,-5,-4,2,5
116999230514,-4,1,8,44,10,12,3,-6
116999251566,-3,-1,-7,23,-7,1,-2,3
116999251566,12,-13,-3,-10,-1,-6,-7,-4
116999253003,-27,-5,-4,0,-5,-8,-5,-1
116999253003,-17,-18,-4,-18,-1,4,3,-4
116999265258,-3,-1,-3,11,3,8,0,5
116999265258,-3,0,4,0,-1,-4,2,-5
116999274061,-3,-9,0,-31,-1,2,1,1
116999274061,4,0,-8,-14,-10,-7,-1,3
116999288917,-14,-3,2,-2,1,-3,-6,-2
116999288917,1,-5,1,43,4,-1,-1,-3
116999290486,-6,-1,2,13,5,3,4,0
116999290486,-4,-6,-2,-6,-1,-6,-1,-4
116999311465,1,-5,-1,15,11,10,0,8
116999311465,7,11,1,-23,-8,-5,1,2
116999312984,8,0,-2,30,0,-6,-3,-2
116999312984,1,3,-2,3,-3,-1,-3,-4
116999325240,8,11,12,82,10,8,-1,1
116999325240,-8,-15,-10,-116,-13,1,-4,-4
116999334022,14,8,3,10,0,0,4,8
116999334022,-1,3,-4,-10,-4,-1,-2,-1
116999348907,-4,-4,-6,-17,-4,-2,1,-5
116999348907,-21,1,-1,88,6,-4,-2,-1
116999350512,6,-2,-3,-26,-6,1,-2,-3
116999350512,1,-3,1,20,4,0,0,4
116999371378,-2,-3,-3,-37,-6,-1,-2,-3
116999371378,-3,1,-1,16,1,-2,0,-2
116999373022,-15,-11,-8,9,-5,-3,-2,-3
116999373022,-1,2,2,19,3,-1,0,0
116999385292,-8,-12,-4,1,-3,-2,-1,-1
116999385292,3,8,3,-15,6,5,2,0
116999394106,-9,1,3,51,-3,-5,-2,-1
116999394106,13,-10,-1,-3,0,1,-3,-3
116999408939,7,3,0,20,5,2,-2,2
116999408939,-8,14,7,17,4,-1,1,-5
116999410462,-3,-6,-2,16,-9,-3,1,-4
116999410462,-18,-8,-8,1,-4,-2,-2,-5
116999431573,6,5,3,-7,3,0,2,5
116999431573,9,1,-1,61,6,-3,-5,-7
116999433001,13,4,-4,-45,-6,-2,0,2
116999433001,-23,-7,0,23,0,-1,-3,-6
116999445220,6,1,0,-43,-2,0,0,-7
116999445220,-7,1,-1,-22,-2,-3,1,9
116999454131,0,5,2,-3,-1,-2,0,-4
116999454131,2,2,-5,-16,0,-3,0,20
116999468927,7,-3,-4,40,-6,1,1,-17
116999468927,4,-21,-9,-70,-10,-3,-4,-5
116999470486,17,9,0,-25,5,2,0,2
116999470486,4,9,4,14,1,0,3,3
116999491421,-12,-2,-4,-21,-2,-4,-6,-7
116999491421,-3,-9,-4,6,-4,-2,-2,5
116999493075,-2,-3,-4,1,3,-2,-2,-9
116999493075,21,12,-3,-17,-5,-1,0,2
116999505211,-10,8,8,26,4,-1,0,8
116999505211,18,7,-3,-31,-7,-2,1,-2
116999514158,-9,7,3,-18,1,0,-1,-3
116999514158,12,5,-4,-11,-6,-1,-1,1
116999529089,-2,-4,-6,-28,-6,-3,-2,-1
116999529089,6,8,4,26,5,1,1,0
116999530548,-20,-4,0,-26,-2,-1,-2,-1
116999530548,13,31,1,-22,-2,1,0,-3
116999551558,2,5,-1,3,-3,-1,-5,-22
116999551558,-22,-13,0,15,0,-2,-3,1
116999553040,-15,-16,-7,0,-2,0,-1,-4
116999553040,-9,13,4,6,3,0,-2,-9
116999565065,-1,-3,1,-1,1,1,2,16
116999565065,2,13,-3,-17,0,-1,0,-9
116999574055,4,8,2,13,-4,-1,-3,-5
116999574055,-5,-18,-4,-29,-4,-4,-3,-1
116999589052,-1,-1,-5,2,-3,0,0,16
116999589052,-4,-6,2,18,0,-1,0,-3
116999590497,-5,7,-2,0,-1,-1,-2,2
116999590497,9,-15,-8,-2,-3,-1,-1,-17
116999611438,-5,-6,-5,-2,-1,-1,-3,-2
116999611438,-4,-15,2,-10,-3,2,0,2
116999612994,-1,-5,5,2,3,2,-2,1
116999612994,-3,-6,-2,16,-1,-3,2,4
116999625219,20,9,-1,-14,-3,-2,0,-3
116999625219,-10,-4,-3,16,1,0,-1,-2
116999633983,0,19,3,4,3,-1,-4,2
116999633983,-5,-18,-2,-9,-10,-2,-2,0
116999649051,-3,-11,-8,-5,-2,-2,-1,5
116999649051,3,7,2,-7,-4,-2,-1,2
116999650561,-6,-7,-7,1,-1,-1,-3,-9
116999650561,-8,0,-3,-5,-2,-1,-2,4
116999671460,3,-1,4,26,3,-1,-1,0
116999671460,6,-5,-10,-79,-13,-2,-1,-1
116999672950,0,-9,3,6,3,-2,2,0
116999672950,-10,-3,-6,-4,1,0,-3,-8
116999685052,4,-2,-1,29,-4,-2,-4,-8
116999685052,-2,1,2,1,4,-1,-2,3
116999694097,-8,-6,-6,-3,-3,0,1,-3
116999694097,32,6,6,7,2,2,1,9
116999708961,5,17,4,-15,1,0,-1,0
116999708961,5,-19,-3,10,-5,-4,-3,-16
116999710483,-9,9,-2,-10,-3,-2,1,13
116999710483,-9,-8,2,12,1,0,-1,0
116999738937,-11,-12,-4,-12,0,0,0,-3
116999738937,0,9,2,10,0,0,0,-6
116999740505,-2,-7,1,2,-3,-4,-2,9
116999740505,-16,-16,-2,7,-1,0,0,-3
116999745131,-15,4,-3,-17,-1,-3,-1,-4
116999745131,4,8,5,4,-1,2,-2,6
116999754061,3,-3,-2,0,-4,-2,-1,-4
116999754061,5,-11,-4,-7,-1,-2,-4,-23
116999768893,-14,-6,-1,8,-1,-2,1,-1
116999768893,-2,-4,2,12,2,-2,2,1
116999770480,17,-1,5,-6,-4,-4,0,-4
116999770480,-34,-9,-2,4,2,0,-2,-1
116999791414,7,-20,0,-8,0,0,0,0
116999791414,5,0,-2,7,1,0,-2,1
116999793055,13,1,-1,-1,-2,2,-3,-3
116999793055,-22,-15,0,18,1,-1,-1,3
116999805155,6,8,4,-22,1,0,-2,0
116999805155,3,7,0,13,-5,-1,0,6
116999814046,-6,-7,-6,-40,-5,-3,0,-1
116999814046,13,19,1,6,2,-1,0,3
116999828272,0,-18,0,-1,-5,0,-1,-1
116999828272,-5,-1,-3,-26,0,1,-2,-4
116999835313,-4,0,0,3,0,-1,-1,-5
116999835313,10,4,1,-4,-2,-3,-2,1
116999851356,-7,15,-1,11,1,-1,0,1
116999851356,-11,-2,-3,-14,-3,-2,0,0
116999852966,-6,-9,-3,17,1,0,0,-2
116999852966,-13,7,4,-7,2,0,0,-16
116999865238,-2,-4,-10,-2,-5,-1,-1,7
116999865238,10,3,2,14,0,-1,-1,1
116999874034,-1,-4,-2,9,-1,-1,-1,-6
116999874034,4,19,-1,-12,-5,-3,0,9
116999889053,-13,-3,-4,-6,-1,0,-4,-4
116999889053,-2,-3,-3,-14,-4,-3,-1,-7
116999890510,4,0,-1,9,0,-1,-2,13
116999890510,-14,-5,-1,4,-1,-1,-1,0
116999911399,5,1,-4,-9,-2,-2,-2,-2
116999911399,-5,-22,-5,4,0,0,-1,2
116999913004,4,-17,-3,8,0,-1,-3,-5
116999913004,-4,-10,-2,-2,1,-3,-1,2
116999925079,-22,-12,-2,-4,-1,-1,-1,-3
116999925079,-3,9,1,5,3,-1,-1,-6
116999941501,-6,-1,-3,-13,2,2,1,2
116999941501,2,6,2,1,-3,0,0,-3
116999949104,5,-15,-3,-1,-4,-3,-1,1
116999949104,-2,4,0,6,-1,0,-5,4
116999950499,-4,0,1,-7,-1,1,0,-10
116999950499,10,4,2,9,0,-1,-2,3
116999971628,6,11,-2,-3,-1,0,2,-6
116999971628,-13,-3,-1,6,-1,0,0,3
116999973038,3,-1,-2,-8,-1,-3,-2,-1
116999973038,-2,-5,1,-1,1,0,-1,2
116999994128,8,5,0,2,-2,-3,-3,-6
116999994128,-3,-1,-3,4,-1,-2,0,4
116999995445,-16,7,-3,4,-1,-2,-2,-5
116999995445,16,13,0,-5,0,2,2,2
117000007934,-7,-2,0,5,1,0,-2,-3
117000007934,2,-30,-9,-20,-4,-1,-1,-2
117000016479,-19,-2,0,2,-6,-3,-3,-10
117000016479,2,-31,-7,-6,-2,-2,-1,13
117000031536,7,-1,1,0,2,0,2,23
117000031536,3,7,0,1,-2,-2,0,-18
117000033008,-1,-2,-2,-19,-1,-2,-2,3
117000033008,1,-4,-3,2,-2,1,-3,-4
117000045237,-9,-1,0,0,-3,-1,-4,-2
117000045237,-7,-5,0,1,1,-2,-2,4
117000054024,13,8,-1,3,1,-2,0,-7
117000054024,-4,3,-2,6,2,0,2,0
117000068979,-2,-5,-2,-8,-2,-1,0,-6
117000068979,10,-6,-2,2,-4,-2,-3,1
117000070477,25,-14,-3,2,-2,1,1,-1
117000070477,3,4,4,6,0,1,-3,1
117000091429,-1,1,0,1,0,0,-1,-2
117000091429,1,4,2,4,1,-3,-3,-2
117000092981,-10,16,1,-4,-2,0,-1,-1
117000092981,18,-2,-2,-2,-4,-2,0,3
117000114123,-1,2,1,0,-1,-2,-1,-17
117000114123,-4,4,0,1,0,-1,-2,-3
117000115612,2,7,1,3,0,1,-2,2
117000115612,-9,7,1,-1,0,0,-2,-10
117000128984,4,7,-1,-4,-1,0,-2,1
117000128984,10,22,3,4,-1,1,0,3
117000130585,5,-16,-4,18,0,-2,-3,-2
117000130585,-1,-1,-5,-22,-5,-3,-4,-7
117000151371,5,7,0,2,0,-1,-1,3
117000151371,-12,0,-7,-5,-4,-2,0,-3
117000152938,-2,-5,-1,4,1,0,2,6
117000152938,12,9,4,1,-1,-2,1,-2
117000174071,0,6,1,1,-1,0,1,-3
117000174071,1,-2,-2,-2,1,-2,1,-5
117000175518,-16,-3,-1,-3,-3,0,-1,-1
117000175518,0,3,-4,2,-1,-4,-2,3
117000188294,-7,-9,-1,2,-1,0,-1,-2
117000188294,-1,-3,-3,-5,-4,0,-3,-1
117000195150,2,9,1,-3,2,0,-1,-12
117000195150,-2,-10,-7,2,-4,0,1,0
117000211422,5,17,6,1,0,1,0,7
117000211422,0,-5,0,-1,0,0,-1,2
117000213063,-4,15,0,-3,-2,-1,-3,7
117000213063,7,3,1,-3,1,-2,1,-1
117000233901,-4,-5,-3,-12,-2,-2,-1,-8
117000233901,15,9,-1,10,1,-3,-1,-2
117000235488,-4,-5,0,-2,-3,-1,1,15
117000235488,-4,-6,-1,0,-1,-1,-1,0
117000256469,7,-9,-3,-3,-4,-1,-2,1
117000256469,-10,13,-1,-5,-1,0,-1,-2
117000257974,4,-5,0,3,-2,-2,-2,-2
117000257974,-1,-2,-1,-4,-3,-4,-2,-2
117000271330,-6,2,1,-2,2,-1,2,0
117000271330,-2,-9,-3,3,0,0,-1,-1
117000272942,-5,-9,-3,-3,-1,0,-1,-4
117000272942,-5,-2,-2,1,-1,0,-1,1
117000293857,-3,-6,1,4,0,-2,-2,-5
117000293857,-8,-1,1,-5,0,-2,-1,14
117000295441,0,-14,-4,-3,-1,-1,-2,-6
117000295441,0,-6,1,-3,-1,-2,-1,-4
117000308188,7,12,1,4,2,1,-3,1
117000308188,9,-12,-1,-6,-2,-1,0,6
117000314943,-5,0,-2,-1,-1,-2,0,3
117000314943,-4,3,0,-1,0,-1,-1,-3
117000331435,-1,-7,-6,-1,-3,-1,-4,-6
117000331435,-4,1,0,-6,-2,2,0,4
117000332908,-2,4,-1,2,-3,-3,-3,-1
117000332908,-9,-6,-3,-1,-2,-2,-1,-2
117000354045,7,-3,-2,-4,-2,-1,-2,0
117000354045,-5,-3,-3,1,-1,0,-1,-8
117000355522,2,-4,-2,-4,0,-2,1,-1
117000355522,-8,2,1,-1,0,0,-1,3
117000368242,-7,-1,-1,1,-1,-2,-2,22
117000368242,2,-26,0,1,1,0,-1,-17
117000374959,31,2,4,0,2,3,3,4
117000374959,-1,0,-1,0,-2,0,-3,-7
117000391379,-7,-5,-4,-1,-1,-2,-2,7
117000391379,-10,11,-1,-1,-2,-3,-3,2
117000393001,-4,5,-3,0,-2,-1,-2,-2
117000393001,-1,-6,-1,0,0,1,-2,2
117000421439,-8,-8,1,-3,-1,-1,0,-10
117000421439,-35,-14,-7,0,-1,-3,-2,-5
117000423052,-6,-1,2,3,-1,-1,-2,-6
117000423052,1,2,-2,-10,0,-2,-2,0
117000428440,-10,-4,-2,1,-2,-4,-2,-6
117000428440,5,4,0,1,1,-1,0,-4
117000435111,1,-22,-2,-6,-4,-1,-3,1
117000435111,-9,0,1,10,0,1,-1,-2
117000451367,8,12,0,-6,0,0,-2,-7
117000451367,14,1,-3,-6,1,1,-2,26
117000453004,-2,4,-2,4,0,1,0,-10
117000453004,3,-1,-1,-2,0,-2,1,1
117000473875,-3,-8,-2,-4,-1,0,0,-9
117000473875,2,8,3,2,-2,0,1,7
117000475567,-8,5,1,-8,-2,-3,-3,-3
117000475567,-4,2,-1,-2,-2,0,1,-2
117000496602,-26,14,-1,4,-1,-1,0,-1
117000496602,-1,-5,1,-2,-3,-2,-1,-8
117000498027,-4,-20,-3,0,0,-2,0,-1
117000498027,28,7,1,-1,-1,-1,1,10
117000511599,1,-5,-2,-3,-3,-1,-2,-1
117000511599,3,8,0,0,-1,-2,-2,-7
117000513035,-5,3,1,0,-2,2,-1,0
117000513035,-9,0,-5,-7,-3,-2,-3,0
117000534056,-3,-3,-9,0,-2,-2,-3,-1
117000534056,7,7,1,3,-1,-2,-2,12
117000535554,-8,-15,-5,-7,-3,-2,0,-12
117000535554,-2,-6,-2,-1,0,-1,-1,-3
117000548236,-6,-7,-3,-3,0,-1,1,-7
117000548236,9,2,-3,1,-4,-2,0,-1
117000555018,1,13,1,2,2,2,-1,4
117000555018,-8,-6,-2,-4,-1,-1,0,-1
117000571524,11,-3,0,1,-2,0,-1,-1
117000571524,-10,-9,-2,-2,-1,0,1,2
117000573015,0,0,0,-4,-4,-1,-1,2
117000573015,-1,6,3,1,1,0,-1,-6
117000593959,9,-5,-1,-1,-1,0,1,1
117000593959,-1,-17,-2,1,0,0,0,-7
117000595519,-8,9,3,0,1,-1,-2,-1
117000595519,-9,-16,-3,1,-1,-2,-2,-2
117000607647,4,-4,1,0,-2,-1,-1,0
117000607647,-2,5,-4,-5,-4,-1,-2,17
117000616539,17,-6,-8,-1,-2,-2,0,-10
117000616539,5,1,0,-1,-1,-1,-1,-4
117000631599,-6,1,-1,2,-1,-2,-3,-2
117000631599,-1,2,1,3,-1,-1,0,-3
117000632969,-6,3,-2,-5,-3,-3,-3,3
117000632969,5,-5,-1,-1,-1,-3,-1,0
117000654095,9,2,-3,-2,-1,-1,0,-1
117000654095,-8,3,-1,-3,-1,-2,-3,-16
117000655569,-6,0,-2,-1,-3,-3,-2,2
117000655569,-4,1,-2,-3,-3,-2,-2,-4
117000667651,-14,-7,0,-2,-2,-1,0,2
117000667651,11,11,6,2,0,0,-2,-1
117000676550,-6,-18,-5,-2,0,0,-1,-14
117000676550,-5,-14,-1,5,-1,0,0,2
117000691515,-5,-5,-7,-4,0,0,-1,-12
117000691515,-4,1,0,-1,-1,2,2,2
117000692962,-4,6,-1,-2,-2,-3,-1,5
117000692962,12,4,-5,0,-3,-1,0,2
117000714087,-3,-1,1,0,0,-1,-1,-7
117000714087,-2,3,3,-1,-2,-2,-2,-7
117000715533,-8,-17,0,0,0,-1,-1,4
117000715533,-5,2,-4,-4,-3,0,-3,7
117000727677,6,4,1,-5,-1,-1,-1,5
117000727677,0,3,-2,4,-1,1,0,-4
117000736525,6,22,3,5,0,-1,0,6
117000736525,17,9,4,-1,-2,-1,2,2
117000751541,13,-10,0,-2,-1,0,2,-16
117000751541,1,0,-1,-4,-1,-2,-1,-5
117000753040,-11,-2,-1,1,-1,-2,-2,-8
117000753040,-7,-3,-3,2,0,-2,0,3
117000773844,-9,1,-3,-1,-4,-1,-3,9
117000773844,0,-4,-5,-2,1,0,0,-7
117000775522,-2,3,0,-1,-3,-1,-1,-4
117000775522,-7,-4,-3,-6,-1,-1,-4,-4
117000787679,8,8,-1,4,1,0,-1,6
117000787679,6,-13,-2,-4,-1,-3,-2,-12
117000796521,5,6,1,-4,-1,-1,-1,15
117000796521,-12,12,3,3,1,0,1,-4
117000811607,-5,-11,-4,-2,-4,-4,-2,-12
117000811607,6,5,0,2,0,0,0,-3
117000813034,3,0,2,0,0,-1,-1,0
117000813034,-1,3,2,0,0,-1,-2,-8
117000834128,0,-1,-1,-2,-1,-1,-1,6
117000834128,-1,-5,-3,-1,-1,0,-2,3
117000835561,2,1,0,0,0,2,0,-2
117000835561,-17,-17,-3,-1,-2,-2,-1,6
117000848170,-2,-8,1,1,-2,-1,-2,2
117000848170,-3,-3,-2,-1,-3,-1,-2,-2
117000856531,2,2,-5,-1,-1,-2,-2,1
117000856531,-19,-27,-2,-1,0,-1,-2,-10
117000871419,-8,5,-1,-2,-1,-2,-1,9
117000871419,-20,0,-2,-5,-3,-2,2,-15
117000872985,1,2,0,0,0,-2,0,-3
117000872985,13,9,-1,-2,-1,-2,-1,1
117000894085,7,0,1,-1,1,1,0,1
117000894085,-3,-2,-3,2,-2,-1,-2,4
117000895462,-5,-3,-2,0,-2,1,-1,1
117000895462,0,-7,-2,-4,-2,1,-1,-8
117000907771,-6,-4,-4,-3,-1,-2,-1,-1
117000907771,-14,24,4,0,0,-2,1,5
117000916518,0,-9,-4,-2,0,-2,-1,-4
117000916518,5,-17,-2,-1,0,-2,0,-1
117000931350,2,-1,0,2,1,1,-1,0
117000931350,13,-2,-1,-2,-2,-1,-1,2
117000932930,-15,1,-2,-1,0,0,-3,-8
117000932930,7,8,-1,-2,-3,0,-1,-2
117000953873,0,0,-2,0,0,0,-3,-5
117000953873,-4,-21,-4,-1,-4,-3,-3,-5
117000955441,9,3,0,-3,-2,-1,0,3
117000955441,0,4,0,0,0,-1,-1,-2
117000967560,-8,1,0,1,0,-1,-1,-4
117000967560,4,-11,0,-1,-2,-2,-3,1
117000976517,3,-4,-2,-1,-2,-1,-1,-2
117000976517,-4,5,-3,-2,1,-2,0,9
117000991391,4,1,2,0,-1,-1,0,1
117000991391,-12,-1,0,-1,1,-1,0,1
117000992960,27,5,4,1,0,0,1,1
117000992960,-10,-1,-4,1,-2,-3,-2,-11
117001013810,-12,-1,-3,-1,-3,-1,-2,-1
117001013810,4,3,-2,1,0,-1,-1,1
