timestamp,emg1,emg2,emg3,emg4,emg5,emg6,emg7,emg8
117304786227,-2,2,-1,-4,-1,-1,-1,0
117304786227,1,-1,0,-3,-2,-2,-1,-3
117304786834,-1,-2,0,0,-2,-2,-1,-2
117304786834,-2,-1,1,-1,-1,-2,-2,-1
117304787672,0,0,0,1,0,-1,-2,-2
117304787672,-1,0,1,-2,-2,-1,0,-2
117304788522,0,0,-2,-2,0,-2,-1,1
117304788522,0,0,-1,-2,-2,-1,-1,-2
117304799177,-6,-2,-2,-1,-3,-1,0,-4
117304799177,-1,-2,-1,-2,-2,0,-1,0
117304807786,0,1,1,5,-1,-1,-3,-1
117304807786,0,-1,0,6,1,-1,0,1
117304815567,-1,-5,-6,-24,-8,-9,-2,-2
117304815567,-4,-1,-2,-5,3,4,1,0
117304829083,-3,-1,-3,8,4,3,1,-1
117304829083,-3,-2,-4,-9,-5,8,2,0
117304840562,0,-2,2,11,1,-10,-4,-1
117304840562,0,-2,-2,-26,-4,-4,-4,-2
117304844191,1,-2,0,22,4,-3,1,-1
117304844191,-2,-1,-1,-17,-1,-3,-3,-3
117304859182,-1,-1,-1,18,-3,-8,-1,1
117304859182,1,2,-2,-13,1,8,-1,2
117304867659,-1,-1,-4,-11,-4,3,0,-1
117304867659,-2,0,1,19,0,-2,0,-2
117304907360,-1,0,1,-3,-4,-2,1,-9
117304907360,2,0,-2,-20,-4,-6,-3,3
117304908166,1,0,0,2,4,5,0,2
117304908166,-1,-2,-1,-3,1,6,3,0
117304909036,0,-1,0,26,2,-6,-1,0
117304909036,-1,-1,-3,-2,-2,-3,-8,-3
117304912094,-1,-3,0,-14,-5,-8,-1,-2
117304912094,-4,2,1,22,4,-4,-5,-2
117304918946,2,-2,-1,-23,2,12,2,5
117304918946,-3,-1,-1,-8,-3,2,6,-2
117304926449,0,-2,-4,-7,-3,-4,0,1
117304926449,-5,-2,-3,15,-7,-1,-4,-9
117304935394,4,-1,-4,-4,-5,-19,-4,6
117304935394,5,2,2,9,5,10,2,5
117304948944,-19,-4,0,0,1,10,-2,-34
117304948944,30,4,2,-11,-2,-20,2,46
117304958591,-9,-1,-1,1,4,13,5,2
117304958591,-7,11,-1,-3,-1,-3,-10,0
117304963866,4,-8,-2,8,1,8,5,4
117304963866,-12,-3,0,-9,-2,-8,-3,-27
117304978900,-2,0,0,-5,-2,1,-5,-2
117304978900,-6,1,0,9,-1,0,0,7
117304986389,0,5,1,1,1,4,12,-59
117304986389,5,0,-4,-9,-5,-4,6,50
117304995422,-19,-7,-3,-6,-7,-9,-15,58
117304995422,-4,7,0,2,-4,-17,-3,-19
117305008876,11,2,-1,-2,-1,-3,-11,13
117305008876,-4,-5,2,-8,4,17,12,-15
117305017849,-28,-2,1,9,9,1,-18,-74
117305017849,25,7,-1,0,1,-1,20,38
117305023900,-11,-1,0,2,-3,10,-3,51
117305023900,-21,4,-1,-5,-6,-16,-3,-11
117305038882,1,4,-5,-7,-6,31,10,-26
117305038882,-23,-13,-1,-2,-2,-30,-14,-57
117305046408,23,5,6,1,-4,-10,0,78
117305046408,-5,-7,-4,-4,-1,5,-8,-30
117305055423,18,0,-1,-1,-9,6,-2,0
117305055423,-31,-10,-4,-7,-3,-1,-4,-63
117305068909,11,4,0,-2,0,-40,-7,28
117305068909,4,-2,-1,-4,0,30,9,-34
117305077842,-10,-5,-6,-2,2,-4,-1,29
117305077842,-3,-13,4,4,8,26,14,25
117305083881,-5,1,-3,-3,0,45,-12,5
117305083881,2,5,-5,-7,-16,-72,-40,5
117305098942,-13,-3,-10,-8,-10,-3,11,-32
117305098942,-5,-4,-3,-1,0,-13,-1,-68
117305106411,7,-16,2,7,7,20,3,-5
117305106411,11,-1,3,2,15,34,12,-13
117305115368,-3,1,0,0,-6,-30,-6,4
117305115368,1,-2,-4,-8,-6,-4,-2,9
117305128949,-3,5,3,-5,4,5,14,0
117305128949,-9,-1,-7,3,3,5,-4,19
117305137919,2,-1,1,-8,-4,-7,-27,-45
117305137919,29,3,-6,-7,-12,19,20,79
117305143934,-13,-1,-1,2,5,-22,-14,-73
117305143934,4,-9,-1,1,-2,-8,-6,0
117305158917,10,-7,7,3,3,-20,36,4
117305158917,24,-3,4,4,3,4,-21,70
117305166437,-22,-8,-6,1,-9,-2,8,-11
117305166437,-6,-1,1,3,0,20,-18,-6
117305175417,12,6,1,-2,2,51,9,-36
117305175417,26,7,8,2,2,-17,-20,26
117305188994,-28,1,-1,3,9,-12,18,-34
117305188994,4,18,4,-2,1,-16,1,68
117305197877,0,-14,-3,6,-1,14,2,10
117305197877,-15,0,-2,2,-16,-25,-27,-75
117305203927,17,2,-6,-1,5,12,9,42
117305203927,4,5,1,6,3,-10,-2,-7
117305218880,11,0,9,-10,1,3,14,40
117305218880,-14,-18,-10,1,8,21,-8,-21
117305226388,2,-3,-4,-6,-27,-44,-24,-16
117305226388,-5,-6,4,-12,4,20,-3,-48
117305235419,8,7,-2,-11,0,-16,11,31
117305235419,-9,3,2,1,3,19,4,-13
117305248950,-2,-3,-3,11,-7,-16,8,-17
117305248950,-2,-7,-1,-5,-5,-6,-3,11
117305257905,-10,3,-3,-3,2,-1,-5,-25
117305257905,1,3,-9,-43,10,1,-1,29
117305295279,-11,-1,1,31,-9,19,10,-26
117305295279,-2,-1,1,-11,1,-8,11,-16
117305301397,-5,-4,-12,3,-6,-4,-24,-42
117305301397,-8,1,-3,12,-11,-16,-29,-19
117305308902,13,3,5,-12,14,25,19,35
117305308902,-29,-4,-1,-8,-4,-23,-17,-69
117305319250,17,-9,1,26,2,-6,13,57
117305319250,-6,-4,-5,-1,7,-12,17,-12
117305320023,-8,-4,1,-11,-11,-9,-47,-60
117305320023,10,-1,-6,16,7,33,36,58
117305320846,1,1,1,-10,-6,-4,-2,-2
117305320846,-7,0,0,15,-2,-28,2,-11
117305332094,-4,-1,2,2,19,14,-13,18
117305332094,6,-2,-4,23,-5,1,26,4
117305338921,3,6,8,-17,-17,-6,-7,43
117305338921,2,-1,2,1,-7,-11,18,37
117305346400,30,0,-8,-29,-3,-2,-23,-1
117305346400,-18,-11,3,9,14,28,-21,-1
117305355398,-2,2,0,-7,-10,-39,-8,11
117305355398,12,-1,6,38,13,14,28,5
117305377734,-15,-1,-8,-42,-24,-19,-18,-4
117305377734,8,1,-1,9,7,-6,-5,-7
117305379327,11,-1,-12,-6,-1,23,-5,-23
117305379327,-12,-6,-17,24,-13,-10,-11,-16
117305392183,-27,-1,-12,-3,7,13,1,-67
117305392183,19,0,-20,-29,-8,-9,19,50
117305398944,-13,2,-5,-4,2,-4,-14,-38
117305398944,-15,6,15,-15,-4,1,8,0
117305406440,27,0,20,29,2,-26,10,80
117305406440,17,-10,9,-18,-10,-12,-2,31
117305415395,15,0,-8,17,16,6,5,33
117305415395,-11,-4,-11,-13,-17,-2,-22,-20
117305428868,13,2,-1,-1,-1,-10,20,58
117305428868,-4,8,-5,-1,-8,-15,-10,-57
117305437960,-8,-4,-1,7,7,19,7,10
117305437960,13,3,-17,-4,16,12,-8,-6
117305452086,-4,-5,-6,1,-5,-3,-11,-12
117305452086,-8,2,8,-4,-17,-31,-20,-6
117305467005,-61,-9,24,-8,-13,0,33,-64
117305467005,40,5,32,-6,3,41,-24,22
117305467792,3,2,33,5,4,-13,8,-6
117305467792,-9,-2,41,3,2,-1,10,-1
117305475423,-51,-2,33,-1,9,5,-25,-76
117305475423,-29,1,21,-5,0,22,42,54
117305488944,-22,0,6,4,-13,-35,-35,-54
117305488944,82,-25,-20,-1,3,38,32,30
117305505365,-9,2,-2,-3,2,-24,-2,-9
117305505365,5,-3,16,2,6,-1,-17,-20
117305512075,-4,-9,0,1,4,20,1,-34
117305512075,-56,15,3,0,-6,-9,-17,-66
117305518885,56,-18,3,1,3,7,1,75
117305518885,19,5,17,-6,-6,-1,25,0
117305526446,16,-13,17,-9,-6,-6,-7,-86
117305526446,-16,-19,15,1,-7,-3,13,-2
117305535484,19,10,-11,13,7,-4,9,23
117305535484,-38,-2,-25,2,2,0,-32,-32
117305548949,29,5,-36,-9,3,31,64,81
117305548949,5,5,-37,0,-5,-29,-52,-20
117305557875,-54,-7,-26,17,13,4,2,-52
117305557875,9,9,-27,-8,-4,34,-8,5
117305572074,-42,3,-18,9,2,-35,-5,-14
117305572074,-27,-9,-23,0,3,13,-40,-5
117305578928,-8,13,-18,-17,-11,-6,22,14
117305578928,58,6,-15,-4,-10,-18,14,-25
117305586455,44,15,-10,35,22,38,56,95
117305586455,14,-3,-14,-39,-10,-7,3,63
117305601392,-52,1,-1,4,-1,-20,-95,-63
117305601392,5,-10,-6,-1,0,3,56,76
117305608878,45,51,-1,4,0,12,58,-1
117305608878,-18,-5,-5,15,3,3,-2,-68
117305617846,43,-24,-16,-13,-11,-9,-8,81
117305617846,14,-4,2,-2,-1,-18,-32,-12
117305632106,40,8,-1,-2,6,19,64,48
117305632106,-23,18,10,10,10,-6,-1,14
117305638921,13,7,-18,-20,-9,13,-49,56
117305638921,-12,5,-12,11,15,2,39,42
117305646372,-9,16,-34,-6,1,-1,0,-15
117305646372,48,11,-22,4,6,36,112,103
117305678406,10,-13,-62,14,8,0,25,-118
117305678406,-36,-27,-79,-11,-1,-10,-22,-18
117305679172,-128,-58,-119,-33,-33,-50,-113,-128
117305679172,-29,-4,-98,9,10,23,0,1
117305680819,1,12,-28,8,8,4,1,44
117305680819,-37,2,10,-2,-7,-3,-10,-75
117305692202,93,1,111,-3,0,-10,-60,20
117305692202,-31,-9,119,-7,-13,-20,-61,-109
117305698913,-21,15,127,43,2,6,72,-23
117305698913,-27,-19,83,-61,-19,-41,-92,-57
117305706407,-48,-51,22,-7,3,20,-23,38
117305706407,-10,-10,-20,4,3,-20,31,-86
117305721455,34,-1,-67,11,12,21,57,20
117305721455,40,-6,-57,5,-5,-16,-24,4
117305728918,-3,6,-19,18,-4,38,-13,-35
117305728918,66,9,-9,-3,8,14,27,10
117305737874,30,-10,11,-25,-15,-41,-119,-53
117305737874,-33,-16,5,3,-1,17,9,-23
117305752098,112,7,19,-6,0,1,57,123
117305752098,-58,17,24,15,4,0,-65,-71
117305758943,1,2,23,7,-4,0,-12,-42
117305758943,-51,10,15,20,5,-7,-26,-38
117305766417,29,23,-3,-15,-5,4,91,-96
117305766417,55,18,16,-7,-10,0,-4,-15
117305781432,38,19,41,18,-1,-13,37,-11
117305781432,-46,3,47,38,16,28,-7,-30
117305788939,-55,-25,3,-29,-11,-31,-35,-34
117305788939,59,-7,1,35,4,18,13,74
117305797852,-10,-5,-13,-100,-18,-31,8,42
117305797852,17,4,-20,2,-11,-2,9,10
117305812146,-89,-3,-4,44,10,-25,-127,-81
117305812146,11,9,-14,-9,-3,8,20,38
117305818876,3,2,-1,54,22,28,34,40
117305818876,39,5,3,-41,-3,4,52,98
117305826474,-43,-14,-12,-7,-9,-1,-23,-2
117305826474,-82,-4,-3,9,-14,-36,-38,-88
117305841411,7,-12,-10,-30,-10,0,-9,-5
117305841411,17,-1,-2,44,12,1,6,-22
117305848904,-2,4,7,-26,7,12,11,14
117305848904,-14,-14,-1,-27,-8,-7,-38,-11
117305857854,-2,-5,-10,1,-6,-4,6,-18
117305857854,10,1,-8,12,-8,3,-11,-15
117305872099,83,-17,-3,11,-4,-26,-7,46
117305872099,-22,-5,7,7,17,30,1,-29
117305878861,16,0,1,-9,8,-14,-15,-9
117305878861,25,0,-3,4,0,7,14,12
117305894637,-33,-2,1,3,1,-1,-30,-6
117305894637,13,-6,-4,-17,-11,-18,12,39
117305901363,-21,-7,-3,4,-2,20,-2,-8
117305901363,-20,-3,1,-8,-2,-22,-17,-46
117305917760,-33,11,2,20,7,17,10,-52
117305917760,3,-4,-11,-36,-11,-8,-3,20
117305919306,-24,10,10,-9,2,7,-19,7
117305919306,-10,3,-12,0,-8,-1,13,-5
117305932060,14,11,1,-11,-7,-3,1,11
117305932060,11,-5,-5,11,0,-9,1,40
117305938946,-2,-1,2,16,8,-10,2,7
117305938946,8,1,-2,-11,-3,6,-2,11
117305954595,-8,-3,-2,2,-3,-17,15,8
117305954595,-12,1,5,10,20,29,-10,-20
117305961391,14,0,-1,-8,0,10,-2,2
117305961391,10,-4,-1,-10,0,-6,13,61
117305977779,-6,0,-9,-9,-15,-3,1,-7
117305977779,-1,-3,-1,-8,-12,-20,0,-2
117305979383,-17,-5,-7,-3,-3,-5,-23,-76
117305979383,3,-5,5,-3,6,8,5,-3
117305992071,-3,2,2,1,4,-12,-2,2
117305992071,3,3,5,18,-1,5,7,18
117305998889,-45,-14,-14,-17,-14,-2,-7,-78
117305998889,-5,3,-1,1,-3,-3,-7,-31
117306014607,-3,1,-2,-9,0,8,-8,-4
117306014607,2,-3,-5,10,1,-12,6,-7
117306021401,3,3,1,21,4,-4,3,29
117306021401,-15,-1,-3,-15,-5,9,-10,-76
117306037778,6,10,-3,8,10,-1,4,13
117306037778,-25,-1,1,1,-6,-9,-13,-7
117306039351,-3,-1,-2,1,-4,-2,14,31
117306039351,0,6,2,5,5,6,-8,-16
117306051460,5,2,1,-1,-1,3,16,9
117306051460,16,-25,-4,-10,2,8,-8,-25
117306060389,1,-4,-9,-4,-8,4,-1,16
117306060389,-1,0,-2,-11,-9,-30,9,1
117306074633,-16,-15,-6,-7,0,3,-8,-18
117306074633,-6,4,-3,-2,-2,13,5,-7
117306081443,6,13,4,2,12,2,5,68
117306081443,-11,-6,3,1,-5,0,-12,-69
117306097783,4,1,-8,-24,-9,-19,-19,-24
117306097783,-11,6,0,-4,3,10,26,14
117306099414,30,4,1,-3,-3,33,13,75
117306099414,1,2,1,-4,0,-45,-8,-11
117306111407,-18,-5,-1,6,1,5,-2,8
117306111407,21,8,3,-4,-9,-9,-4,13
117306120421,-16,-8,0,23,4,1,-18,-48
117306120421,9,0,0,-24,0,10,22,36
117306134559,-2,-2,-2,-22,-10,3,-2,0
117306134559,-6,-4,-11,2,7,9,6,-1
117306141406,-3,11,-10,-16,-11,-29,-11,-28
117306141406,1,-11,2,20,4,6,-19,6
117306157776,-8,2,-1,19,0,-10,15,0
117306157776,-10,2,5,-18,3,13,-11,-26
117306159383,22,-2,6,-11,3,-5,2,-4
117306159383,2,-1,-4,10,0,6,2,16
117306171426,1,2,-1,-6,-4,2,-4,-6
117306171426,-2,3,3,-3,-10,-8,0,1
117306180323,-6,-2,0,0,-6,-12,3,-15
117306180323,3,1,-14,-43,0,12,4,5
117306194584,1,-3,2,20,0,8,3,0
117306194584,-2,1,6,51,6,-11,-5,3
117306201440,-6,-7,-13,-74,-10,-6,-11,-20
117306201440,-8,2,3,21,-1,16,-5,-3
117306217784,17,6,4,-6,4,-9,5,12
117306217784,3,-5,-5,0,6,-2,2,-9
117306219421,-5,-4,0,66,1,-1,-5,-7
117306219421,-3,4,-3,-23,-10,-12,-6,-2
117306231447,-5,5,7,-4,8,8,-3,-10
117306231447,2,2,9,-30,-11,-4,-2,4
117306240417,8,-6,-10,10,2,8,5,3
117306240417,-7,0,6,-3,1,-3,6,10
117306254594,-7,-4,-8,-21,-1,-1,-5,-19
117306254594,0,2,2,-23,-10,-16,2,1
117306261405,-5,-3,9,7,3,3,-3,-2
117306261405,0,-3,-7,-4,-1,-3,-5,3
117306277768,-2,-7,-12,29,6,4,1,2
117306277768,-4,-1,-7,-26,-7,-4,-5,1
117306279379,-3,3,9,14,2,-6,-9,-4
117306279379,1,-1,-3,-10,-3,2,8,11
117306291441,-2,1,8,38,8,5,-3,-4
117306291441,-5,8,-5,-29,-8,-4,-10,-3
117306300381,-1,-4,-7,-5,0,-4,2,0
117306300381,2,3,4,9,14,5,-1,2
117306314593,-2,-4,-1,-2,-10,-5,-1,-3
117306314593,-2,-1,2,14,3,-2,-6,-6
117306321439,-2,0,7,-7,-4,-8,3,0
117306321439,2,-2,-2,4,0,5,-5,-2
117306337720,0,4,4,-5,-2,-1,1,2
117306337720,0,-11,-6,11,8,7,1,4
117306339300,-4,-7,-3,-13,-7,-2,0,-3
117306339300,-4,-4,-8,14,-5,-11,-9,-17
117306351392,0,-1,6,-5,3,12,8,10
117306351392,1,-3,-10,0,-1,-8,4,6
117306360420,1,-3,-5,-4,-5,0,0,-3
117306360420,-2,-5,0,0,-4,-9,-2,5
117306374624,7,0,-3,-9,-2,0,-2,3
117306374624,-5,1,4,2,-1,0,3,9
117306381392,-3,-4,-8,-4,5,6,-8,-11
117306381392,5,6,16,10,7,0,6,-1
117306397754,-8,-3,1,-8,-6,3,1,-41
117306397754,14,2,-1,10,0,-7,-5,30
117306399378,-12,-3,4,1,2,-3,4,-17
117306399378,8,-2,1,1,-1,38,10,23
117306411449,0,0,-2,-5,-6,-49,-8,0
117306411449,-3,-2,-2,5,5,21,-4,-10
117306420419,-2,2,0,2,2,-5,-7,4
117306420419,-1,-1,-9,-2,-2,-6,9,-2
117306434599,-5,-1,2,-3,-5,-7,-10,6
117306434599,-8,-1,-5,-1,-3,10,-1,-58
117306441368,-2,1,4,-1,3,5,25,74
117306441368,4,-8,-9,1,0,-4,-14,-32
117306457716,-1,-5,-11,-6,-4,9,9,4
117306457716,-5,-3,2,3,-4,-5,-9,-7
117306459400,-13,7,1,-4,-2,-11,-16,-39
117306459400,-6,-16,-1,-3,-4,20,10,-40
117306471410,6,1,3,-4,-3,-24,-1,86
117306471410,-1,1,3,2,-5,-10,-4,11
117306480422,-32,-18,-8,-2,1,18,-2,-115
117306480422,20,3,7,6,-2,-26,-7,40
117306502738,-3,7,4,4,12,44,12,-85
117306502738,10,-10,0,-1,-1,-4,6,28
117306504374,14,-8,-6,-1,-8,-13,16,38
117306504374,-1,7,0,3,5,13,11,50
117306517728,34,-10,1,-2,-1,-5,-9,8
117306517728,-16,6,-1,-9,-9,-20,-8,-15
117306519328,-8,6,-3,0,2,28,3,-14
117306519328,-22,-7,-12,-6,-9,-16,-24,-61
117306531411,-14,6,0,-4,-13,-38,-30,-47
117306531411,-2,-3,-3,8,7,20,-4,-29
117306540369,52,-13,-7,2,11,6,14,84
117306540369,-32,-2,-2,2,-3,13,-16,-86
117306554624,-20,6,-1,-1,-5,13,3,45
117306554624,0,-9,-1,-2,-5,-33,-27,-38
117306561412,68,-3,-7,-8,-7,-3,-2,61
117306561412,23,15,5,3,7,0,19,50
117306577135,-41,-12,-6,-8,-5,4,19,-30
117306577135,10,-1,-3,-3,-4,-6,-10,24
117306583930,-49,19,8,-2,0,-7,-16,-128
117306583930,-3,-24,0,-6,-5,-7,-7,82
117306591420,84,1,-5,-2,7,5,30,64
117306591420,-23,13,0,1,2,0,12,-22
117306600414,-19,1,-1,-1,-1,-3,-2,-47
117306600414,-68,-7,-9,-8,-2,-8,-26,-65
117306614582,-56,-8,2,3,1,-1,6,2
117306614582,57,13,-5,3,18,26,63,73
117306621451,-7,13,-10,-5,-21,-28,-65,-65
117306621451,35,6,-6,-1,-3,-14,12,-106
117306637119,-14,-11,-11,-9,-13,-2,-34,-54
117306637119,26,-8,1,2,4,6,26,6
117306652261,39,22,8,2,6,9,3,28
117306652261,51,-6,6,-3,-4,23,35,1
117306652797,26,7,17,-1,-6,-64,-53,-51
117306652797,31,-5,-14,-2,-10,12,18,-30
117306660384,79,14,-17,-3,6,-3,73,79
117306660384,-74,-39,-21,-3,-3,-23,-82,-90
117306674589,20,4,-28,2,3,20,-50,-21
117306674589,-18,-3,-20,3,-3,0,-10,0
117306681392,-77,-18,-10,-3,-11,-41,-100,-65
117306681392,112,12,22,9,26,50,116,80
117306697103,47,-32,44,-5,3,24,53,12
117306697103,34,22,46,-12,-14,-28,-52,32
117306703833,-56,-19,39,-1,7,3,-27,-26
117306703833,-36,0,40,-3,-11,-10,-28,-14
117306720233,-14,2,18,-8,-12,-20,4,-21
117306720233,73,14,47,6,7,30,121,14
117306721854,13,-10,14,1,10,0,-18,12
117306721854,-25,15,13,-5,2,-4,-44,-30
117306734624,-50,22,24,-4,-8,-8,-76,-54
117306734624,-41,0,50,-11,-26,-27,24,-74
117306741433,-17,-20,60,0,-1,7,17,29
117306741433,32,0,43,4,10,5,-68,-35
117306757117,4,9,12,8,5,12,10,16
117306757117,-85,-17,-7,2,-8,-39,-102,-100
117306763922,15,2,-23,-3,-6,30,-18,49
117306763922,71,13,-43,4,3,-30,-10,124
117306780275,-92,-17,0,0,8,18,36,-7
117306780275,-37,10,27,-1,-3,-2,-35,-14
117306781836,-13,1,15,-12,-13,-20,-30,-18
117306781836,11,8,-23,0,-8,-11,0,5
117306794589,44,10,-80,2,2,23,36,32
117306794589,34,4,-102,-1,-3,-20,4,40
117306801439,10,3,-110,8,9,35,74,-3
117306801439,-42,12,-96,4,7,3,-1,-23
117306817130,24,2,-47,3,6,25,23,31
117306817130,7,-2,-42,-3,2,-4,-74,-1
117306823895,14,-5,3,3,-5,-17,47,4
117306823895,-41,-8,4,-12,-22,1,-12,-12
117306840247,5,-15,0,2,-3,-34,-38,-18
117306840247,-20,-23,-26,-5,12,-1,-47,20
117306841835,6,9,-24,4,7,14,-32,4
117306841835,-5,4,-35,-3,-5,-12,45,22
117306855056,9,-1,-17,2,9,24,10,21
117306855056,-13,-7,-5,-5,0,9,-8,-52
117306861420,-45,-2,11,1,-10,-28,15,-17
117306861420,-26,-5,17,-2,-4,1,22,-3
117306877119,1,-1,28,-2,-3,-24,-25,-6
117306877119,16,1,35,2,8,43,17,1
117306883943,-15,1,39,0,-4,-19,-2,-11
117306883943,-8,2,39,-10,-10,-2,-24,-1
117306900265,-5,2,14,-1,7,7,10,3
117306900265,-50,-22,-4,-1,-6,-17,-31,0
117306901897,16,3,-4,-2,-2,13,12,-6
117306901897,2,3,7,6,7,1,10,16
117306913851,-7,-1,7,2,3,6,4,-18
117306913851,-17,-7,-13,-2,3,3,7,-26
117306930372,11,-3,-4,-2,-5,-1,-19,0
117306930372,10,-4,-9,-4,-7,-15,-8,-19
117306937092,-4,-5,-12,-6,-9,0,-30,-7
117306937092,-10,-7,-5,5,10,2,13,-1
117306943883,-7,2,-5,-1,-2,-9,-18,1
117306943883,-6,0,-2,-1,8,15,42,17
117306960250,-4,2,-4,-2,3,1,5,-68
117306960250,26,-10,11,-3,-16,-28,4,37
117306961834,-8,-1,5,0,-3,-6,-32,-15
117306961834,-10,11,12,0,10,17,6,14
117306973917,-21,-3,2,0,-2,-6,-2,23
117306973917,-26,-17,-7,0,1,7,6,1
117306982941,78,10,-3,-4,-8,-2,4,82
117306982941,13,-4,5,5,8,-4,19,30
117306997521,-11,3,-3,2,1,44,31,7
117306997521,-51,2,-11,3,3,-14,-21,-12
117307005418,-17,-11,-8,-3,0,-10,1,-20
117307005418,33,-7,-10,-6,-17,21,2,-18
117307020319,44,2,80,2,9,-4,3,17
117307020319,15,5,113,4,7,2,-10,-8
117307021877,-9,-3,127,0,-3,-44,6,-36
117307021877,-8,2,91,-1,1,15,11,14
117307042715,-25,-3,-87,-8,5,51,-18,-19
117307042715,18,1,-126,-4,-13,-39,27,1
117307044354,-48,5,-128,1,14,15,-7,-93
117307044354,-5,-4,-128,-1,-13,-19,-2,-11
117307057038,-5,1,-114,1,-2,4,-4,15
117307057038,3,7,-128,-1,10,19,1,16
117307063900,-26,3,-128,-3,-8,9,4,-7
117307063900,-5,0,-84,1,3,-20,-9,60
117307080298,34,3,-116,0,-6,-18,4,37
117307080298,-25,4,-62,-3,-9,-23,-9,-8
117307081938,3,3,-70,-2,3,22,6,-8
117307081938,-9,-7,-71,0,2,11,-4,-28
117307093902,-14,2,63,0,-4,-36,-4,-8
117307093902,18,1,112,-3,-4,8,6,6
117307102920,18,-8,120,2,3,-3,5,39
117307102920,-17,-3,71,3,3,-8,-14,-25
117307117070,6,0,52,-3,-3,-3,10,0
117307117070,2,-4,16,-7,-2,17,-2,-49
117307131428,-12,-2,44,-6,-3,47,-20,-2
117307131428,12,4,70,-4,-8,-67,12,30
117307140231,14,8,104,6,0,-4,1,6
117307140231,-12,1,110,-2,0,28,17,-17
117307141873,-4,-1,80,-2,0,-5,-20,3
117307141873,8,-7,88,-3,-3,9,-13,2
117307153925,-30,-8,91,3,-2,-12,-18,-21
117307153925,11,3,70,1,-2,-12,11,16
117307162908,8,-12,58,-11,-6,-2,5,4
117307162908,-24,-8,42,0,6,31,-2,-31
117307177068,1,-6,13,-2,-7,-29,-3,2
117307177068,7,1,-2,3,0,-9,-13,3
117307183922,-30,-3,-6,1,-1,2,5,-84
117307183922,-11,-1,0,-4,-3,0,-16,-11
117307199360,-1,-3,-13,0,-4,-2,1,-6
117307199360,6,-1,-25,4,4,11,4,27
117307207934,-8,-3,-15,-5,-7,-8,2,3
117307207934,-1,3,-16,-4,-5,-14,-10,-15
117307213881,2,-4,-23,4,0,15,4,-9
117307213881,2,0,-16,5,5,0,-1,10
117307222876,-1,-2,-13,7,4,1,3,-5
117307222876,1,-1,-14,3,-2,5,-13,-25
117307237918,1,-3,-5,-15,-10,-10,-5,21
117307237918,-3,-3,-8,-9,-7,9,-10,24
117307243916,4,11,-5,1,-3,-34,7,14
117307243916,4,1,2,4,6,6,-2,7
117307259566,-16,-5,-1,4,5,11,0,-11
117307259566,2,-1,-8,0,0,10,2,-14
117307260377,-4,4,-6,-3,-5,2,1,24
117307260377,-3,-1,-8,-2,-7,-19,-9,21
117307282091,4,-1,0,7,3,-14,4,-9
117307282091,8,-1,-13,-16,-5,12,1,-2
117307282913,6,-1,-3,6,0,13,4,16
117307282913,-2,2,-1,16,13,-21,1,-4
117307297887,-7,0,-3,50,10,29,2,-6
117307297887,-2,-1,-9,-66,-15,-21,1,2
117307303884,3,-4,-1,19,1,-3,-4,-14
117307303884,-3,4,-7,-21,-9,3,5,0
117307321070,3,1,-2,2,-1,1,-1,-16
117307321070,5,3,-1,17,1,-7,0,28
117307321856,5,-5,-9,5,-4,-3,2,16
117307321856,-4,-2,-8,-24,-3,7,-5,-25
117307342036,-6,-11,-13,-58,-8,-15,-5,7
117307342036,-7,2,-5,23,6,11,2,-46
117307342854,10,0,-9,-5,2,10,3,14
117307342854,-3,-1,-3,23,1,-6,3,14
117307357913,-15,6,-5,4,-11,-18,-18,-34
117307357913,1,3,-1,15,10,1,3,4
117307363868,5,-2,-9,-63,-10,6,4,11
117307363868,-4,0,4,27,8,5,3,-17
117307379541,-4,-3,-11,-15,-2,1,0,-12
117307379541,11,-1,-3,29,-1,0,-2,42
117307380338,0,2,-2,16,3,-10,-2,-1
117307380338,1,1,-4,-17,-6,7,-1,-11
117307402058,5,2,0,-1,-1,0,3,14
117307402058,-6,-3,-2,11,0,-2,-2,-12
117307402844,-2,-3,-3,-9,-3,-1,1,2
117307402844,-7,-3,-3,-18,-5,-3,-4,-7
117307417836,17,-2,-3,20,1,-4,4,44
117307417836,-3,2,0,0,4,4,0,-9
117307423944,-2,-1,-1,-12,-4,-4,-6,-8
117307423944,-12,-4,-7,-49,-13,-2,-9,-52
117307439581,4,2,0,20,5,-1,3,16
117307439581,-6,-2,-5,11,-4,-1,-2,-11
117307440332,4,-1,-2,10,6,-1,0,22
117307440332,4,6,-1,6,-2,-1,-1,-5
117307462037,-7,0,1,-2,-2,1,1,-13
117307462037,1,-3,-4,15,-2,-2,-2,3
117307462795,-8,-2,-1,23,3,0,-5,-30
117307462795,9,2,2,1,7,-1,3,17
117307484591,-34,-3,-5,-15,-10,-2,-3,-23
117307484591,2,0,2,13,0,1,1,6
117307485370,-2,0,-5,-6,-5,-7,-5,-2
117307485370,-2,-5,-5,-1,-2,0,-4,-2
117307498877,6,-1,0,-9,-2,0,4,42
117307498877,-5,-13,-4,-4,-1,-2,-4,-21
117307506364,4,-1,2,-1,3,0,2,5
117307506364,3,-6,-3,11,-2,-1,0,7
117307522043,0,-5,1,43,12,1,-1,-13
117307522043,-3,13,-1,-49,-15,-5,-2,-7
117307522805,3,-4,0,1,4,2,2,5
117307522805,-3,-4,-3,23,-1,-1,-1,9
117307537891,-2,4,-1,-9,-3,2,0,-14
117307537891,-3,4,1,8,5,-1,-2,-4
117307543830,-8,-1,-2,-3,2,1,-3,-12
117307543830,0,-2,-1,-43,-11,-3,-2,-2
117307558900,-2,0,3,18,5,4,-1,-9
117307558900,0,-5,-5,-1,3,-2,-3,-4
117307566444,-1,-3,-7,-23,-11,-3,-2,12
117307566444,-4,-4,0,16,0,0,1,-2
117307582065,7,-1,-1,-5,-2,-1,1,1
117307582065,-5,-2,0,-10,-2,1,2,3
117307582837,10,0,-1,7,2,-1,1,-2
117307582837,-10,11,-2,-4,-1,-1,-2,-29
117307597894,13,1,-2,-29,-4,-1,2,35
117307597894,-8,12,-1,13,3,1,-3,-7
117307603857,4,-2,3,-6,0,0,0,-1
117307603857,-1,-4,2,8,1,0,0,-1
117307618952,0,-3,-2,4,2,-4,-3,-34
117307618952,0,0,-2,-20,-3,-2,-1,18
117307626363,-10,3,-2,3,-3,-3,-2,0
117307626363,7,-26,-1,6,0,0,1,11
117307642076,4,2,0,3,2,0,-2,-4
117307642076,4,-6,-2,-27,-10,1,2,-2
117307642833,-10,-41,-5,0,-1,1,-1,-6
117307642833,4,9,-1,-1,-2,-1,0,10
117307657947,-4,-3,-1,-8,-2,-2,-1,-2
117307657947,0,-12,-1,2,1,-2,-3,-8
117307663884,-2,6,0,6,-3,-2,0,2
117307663884,2,4,0,-6,1,0,2,7
117307678925,8,-5,-2,-1,-1,-1,-2,-5
117307678925,-5,4,-1,3,1,-1,0,5
117307686424,-5,7,-3,-37,-9,-3,-2,-12
117307686424,7,3,0,11,2,0,0,12
117307702136,-3,2,-2,-12,-3,0,-1,-4
117307702136,4,-5,2,2,1,-3,-1,-3
117307702871,-3,4,1,9,4,0,-1,0
117307702871,-2,-4,-4,-5,-5,-2,-2,-1
117307717902,-13,-5,-4,-9,-4,-3,-4,-1
117307717902,7,-3,1,10,1,-1,-1,-4
117307723919,4,6,4,11,1,2,1,3
117307723919,-12,-26,-4,-2,-1,-2,-3,-2
117307738922,-5,-2,-2,0,-4,-1,-1,-5
117307738922,-15,-9,-4,-4,-2,0,-2,-7
117307746482,-7,1,-1,5,-1,-2,-3,-12
117307746482,-1,4,1,3,0,-2,-2,3
117307762014,2,0,2,-5,-2,0,0,0
117307762014,4,-6,-2,-4,-3,-2,-1,-7
117307762822,3,7,1,6,1,-1,0,7
117307762822,-12,2,-3,5,1,0,-3,-3
117307777881,7,3,-1,-5,-2,-1,0,0
117307777881,2,5,0,-1,1,-2,-2,-4
117307783879,-1,7,-1,6,1,-1,-1,-4
117307783879,-9,-1,3,2,0,-1,0,5
117307798916,-1,-3,0,-4,0,-1,-1,-1
117307798916,-1,0,2,1,0,1,0,5
117307806368,9,5,-1,1,-1,-2,-2,2
117307806368,-1,-2,-4,1,-2,-1,-1,-2
117307822045,-1,-14,-3,0,-2,0,-1,1
117307822045,-4,-3,-1,-1,-1,1,-1,-2
117307822846,-9,-11,-5,-1,-2,-2,-3,1
117307822846,5,11,0,0,-1,-1,-1,-4
117307837897,-9,-2,-1,-2,-1,0,-2,0
117307837897,13,7,1,1,1,0,-1,-2
117307843899,1,-6,-1,0,-1,0,1,0
117307843899,4,9,2,1,-1,0,1,0
117307858869,2,-5,-3,-3,0,-2,-2,-2
117307858869,-3,-3,-2,-2,0,-1,2,0
117307866408,-2,0,-2,1,-2,-2,-4,2
117307866408,4,4,2,1,0,-1,-2,2
117307882063,-1,14,2,-2,-2,-1,0,-1
117307882063,-6,2,0,-2,-3,-2,-3,-4
117307882816,-4,-7,-2,-1,1,-2,0,2
117307882816,0,-4,-2,-2,-1,-1,-3,-3
117307897931,-1,3,-2,-1,-1,-1,0,0
117307897931,1,-5,-2,-1,-2,-1,-1,-2
117307903887,2,3,2,0,-2,1,-2,-7
117307903887,0,-1,-2,0,0,0,-1,1
117307918883,-6,22,-3,-3,-2,-2,-4,-2
117307918883,-2,3,1,-1,0,0,0,1
117307926389,1,-3,-3,-1,-2,-2,-1,-1
117307926389,0,6,0,-2,-2,0,-1,-2
117307942074,-4,-2,-2,-2,0,-1,-2,-2
117307942074,-3,-2,-3,-1,0,-2,-1,0
117307942860,-1,-2,-1,0,-1,-2,-2,1
117307942860,11,-1,-1,-1,0,-2,-1,-2
117307957927,4,-1,2,-1,-2,0,1,2
117307957927,-3,-4,-3,-3,0,-2,0,-3
117307963857,3,1,1,0,-2,-1,2,1
117307963857,-2,-3,-1,0,-3,-1,-1,-2
117307978917,-1,-9,-1,0,-1,0,-2,-1
117307978917,-5,-6,-2,-3,-2,-1,-1,-3
117307986446,-2,-1,0,0,0,0,1,1
117307986446,3,0,-1,-1,-1,-2,-1,-2
117308002104,0,-6,-1,-1,-2,-1,-1,-1
117308002104,-3,2,-1,-1,-1,0,-1,0
117308002896,-2,-3,-1,-1,-1,-2,-1,0
117308002896,-5,-3,-1,-2,-2,-1,-1,1
117308017868,-2,-4,-1,2,1,1,0,-1
117308017868,-3,-1,-2,-1,-2,-3,-2,0
117308023923,-1,-2,-1,0,-2,0,0,-1
117308023923,-13,-6,-3,-2,-1,-2,-2,-3
117308038901,-7,-18,-4,-3,-3,-1,-1,4
117308038901,-2,6,1,-2,-2,-2,1,-2
117308046383,0,1,0,0,-1,0,-2,-2
117308046383,-2,-5,0,-1,-1,0,-1,5
117308062013,3,-4,-1,-2,0,-1,0,-2
117308062013,6,-1,-1,-2,-2,-2,-2,1
117308062811,0,4,1,0,0,0,-1,-1
117308062811,0,5,1,-2,0,-1,-1,-4
117308077864,-1,2,0,-2,-1,-1,-2,-10
117308077864,8,-4,0,-2,-1,-1,-3,-11
117308083903,11,1,-1,-1,0,0,4,20
117308083903,-5,-3,-1,-2,-1,-2,2,1
117308098920,9,13,1,0,0,0,0,13
117308098920,4,-27,-1,0,1,2,2,-7
117308106399,-14,-1,-2,-2,-2,-2,-3,-7
117308106399,-4,1,-2,0,-2,-1,-2,-1
117308122075,2,-1,-2,-2,-2,-3,-1,5
117308122075,-2,5,-2,1,1,2,0,6
117308123305,-6,4,0,-3,0,0,0,-1
117308123305,2,-5,0,-2,-2,-2,1,-3
117308137894,-5,-1,-1,0,-1,0,-1,-6
117308137894,-6,18,0,-1,-2,-2,-1,0
117308143900,5,-9,-3,-3,-3,-1,0,-3
117308143900,-4,1,0,0,0,-1,-3,-5
117308158860,-2,-2,1,-2,0,-2,0,-10
117308158860,-6,1,-2,0,0,0,-1,10
117308166365,7,0,-1,-2,-2,-1,-2,-2
117308166365,4,6,2,-1,0,-1,-2,-2
117308182046,-15,-43,-7,-1,-3,-2,-2,9
117308182046,2,-3,0,-2,-1,-1,0,0
117308182856,-5,-2,-3,-3,-2,-1,-2,-6
117308182856,0,-1,-1,0,-1,-2,0,1
117308197859,3,5,-1,-1,0,-1,-2,-7
117308197859,-17,-2,-2,-3,-2,-3,-3,-3
117308203886,-4,-9,-2,0,-1,-2,-2,0
117308203886,-1,-1,-1,-1,0,1,-1,-2
117308218915,0,7,1,1,-1,0,-1,-2
117308218915,3,-2,-3,-2,0,-1,0,2
117308226346,0,4,-1,0,-2,-2,-1,-8
117308226346,-1,-5,-2,-2,-3,-2,-1,1
117308242098,-1,3,-3,0,-1,-2,-2,-4
117308242098,2,-1,0,-1,-2,0,-3,1
117308242865,-2,-2,-3,-2,1,-3,0,-6
117308242865,0,-4,-1,-1,-3,-2,0,0
117308257897,-2,1,-1,0,-2,-2,3,-1
117308257897,1,1,0,-1,-1,-1,0,-2
117308263940,-3,-2,-1,0,-1,0,-2,1
117308263940,5,0,0,-1,1,-1,-1,-10
117308278877,-3,4,1,-1,0,1,0,4
117308278877,1,-3,-1,0,-2,-2,0,1
117308286382,-3,3,0,0,1,0,0,1
117308286382,2,-11,-2,-1,0,-1,-2,1
117308302120,-2,0,-1,-2,-2,-1,1,-3
117308302120,14,5,0,0,-1,-1,0,-2
117308302804,-5,8,-1,-3,-1,-2,-2,2
117308302804,-4,-1,-2,-1,-1,0,0,4
117308317871,12,3,-1,-2,0,-1,-1,-1
117308317871,-13,-5,-2,-2,0,0,-1,-1
117308323863,-2,-3,-1,0,-2,-2,-1,-7
117308323863,-1,3,1,1,-2,0,-1,0
117308338870,-1,-1,0,1,-2,-1,-1,0
117308338870,-1,0,-3,-1,-2,0,-1,-4
117308346385,0,-3,-1,-2,-1,-3,-2,-1
117308346385,-1,-1,-2,-3,-2,-2,-1,1
117308361994,-11,-1,-1,-1,0,-1,-2,4
117308361994,0,-4,1,-2,0,-1,0,-1
117308362760,2,-3,0,0,-3,1,-1,-1
117308362760,-3,-4,-3,-3,-4,-1,0,-2
117308377844,2,4,0,-3,0,-4,-2,-4
117308377844,-5,-1,-2,0,0,-1,-2,-6
117308383881,3,0,0,-1,-2,0,-1,0
117308383881,-11,-14,-2,0,-1,-1,-1,-4
117308398929,-3,1,0,1,-2,0,1,1
117308398929,-3,-3,-3,0,-3,-4,-1,3
117308406402,12,-1,-1,1,-2,-1,0,1
117308406402,9,9,3,0,1,0,-1,-4
117308422046,-2,24,0,-3,-1,-1,-1,-4
117308422046,-1,-5,-2,0,-1,-2,-1,-2
117308422821,0,2,-1,-1,-2,-1,0,-2
117308422821,1,2,-3,0,-1,0,-1,3
117308437933,-2,-3,-1,-1,-2,-2,-3,-7
117308437933,2,0,-1,-2,-2,1,-1,0
117308443858,-5,-1,-1,0,-1,-1,-1,-1
117308443858,-4,4,-1,-2,-1,-1,-1,-4
117308458892,1,-7,-2,-1,0,-1,1,0
117308458892,-2,-2,-2,-2,-3,-2,-2,-3
117308466405,1,-5,-1,-1,-1,1,-1,-6
117308466405,-3,1,-1,1,1,-1,1,5
117308481385,2,-4,-2,0,-1,0,-1,-2
117308481385,0,-1,-1,-2,-3,-1,-1,3
117308488896,-2,4,-2,-2,1,-1,-2,-1
117308488896,-5,-10,-3,-1,-2,0,-1,-3
117308497888,1,-1,-2,-1,0,-2,-1,0
117308497888,-1,1,-1,0,0,-2,0,-2
117308503873,7,-1,0,-2,-1,-1,-1,2
117308503873,0,4,0,1,-1,0,-2,-1
117308518920,-1,-6,0,2,-1,0,-2,-2
117308518920,6,2,1,0,0,-2,-1,-2
117308526457,-3,-4,-2,0,0,-1,-1,1
117308526457,-4,-4,-3,-5,0,-3,-1,-1
117308541372,3,-1,0,-1,0,0,-2,-2
117308541372,-8,21,0,-2,-2,0,-2,-7
117308549579,-2,-1,-1,-2,0,0,1,0
117308549579,2,4,0,0,-3,-1,-1,0
117308556408,-9,-9,-3,0,-1,-1,0,2
117308556408,-3,-4,-1,0,-2,-1,0,-3
117308563896,-6,-4,-2,0,-3,-2,-1,0
117308563896,-1,3,0,0,-3,0,-3,-1
117308578916,4,4,0,0,0,-1,0,-4
117308578916,4,-6,0,-2,-1,-1,-3,4
117308586399,-13,-1,-1,-2,-1,-2,-2,-2
117308586399,-1,0,1,-1,1,-1,0,-1
117308601468,0,-2,-4,-2,-2,-1,-1,1
117308601468,-2,-4,-2,-1,0,-1,0,-2
117308609580,0,-2,-2,-1,-1,-2,-2,2
117308609580,-1,-1,-2,0,-1,-1,-2,-3
117308624552,0,-1,-3,-1,-3,0,-1,-5
117308624552,-8,-9,-4,-2,-1,-2,1,5
117308625364,16,9,1,1,0,0,1,-2
117308625364,-26,-35,-6,-1,-2,0,-1,-1
117308638900,-5,-1,-1,-1,-1,0,0,2
117308638900,-5,0,1,2,-1,0,-1,-3
117308646388,2,-5,-1,-2,-2,-2,-2,-2
117308646388,13,4,0,-3,-1,-2,-1,2
117308661451,-3,4,4,3,0,0,-1,0
117308661451,-1,-2,-2,-5,-3,0,-1,-2
117308669587,-15,-11,-2,0,-1,-2,-2,-6
117308669587,15,15,0,0,-1,-3,0,4
117308684585,-12,-15,-17,-15,-2,-1,0,0
117308684585,27,36,26,29,5,1,1,5
117308685344,-9,-15,-15,-20,-5,-4,-2,-1
117308685344,9,15,12,-9,0,1,0,-2
117308698961,-9,-10,0,6,2,-1,-2,-1
117308698961,10,9,5,2,-1,-1,-1,-1
117308706443,-21,0,-2,1,-4,-1,-1,5
117308706443,13,25,3,-1,1,1,1,1
117308721336,-5,-26,0,-3,-4,-3,-3,-1
117308721336,-10,-18,-17,-8,-2,-2,-2,-2
117308737304,2,5,4,8,2,1,0,-2
117308737304,-4,-7,-10,-17,-6,-2,-2,-1
117308744836,6,8,5,6,1,-2,0,-1
117308744836,-7,-9,-9,-8,-3,-3,-2,-4
117308745403,4,-4,3,1,0,0,-1,-1
117308745403,-6,1,3,13,0,0,-1,-1
117308759146,5,7,-5,-4,-4,0,-3,-8
117308759146,-7,-13,-1,-4,-1,0,0,7
117308766677,0,2,-1,-2,-4,1,-2,-1
117308766677,-7,-3,-1,8,1,-1,-2,-3
117308781601,8,-5,-1,-22,-4,-3,-1,-1
117308781601,-9,-6,-7,7,1,0,-1,-2
117308789838,17,8,2,-38,-4,-1,-1,1
117308789838,-15,-11,-5,16,2,-1,-1,-3
117308804773,1,-2,-1,7,-6,-3,-2,-1
117308804773,-2,11,6,17,1,0,-2,-2
117308805376,4,-5,-20,-3,-1,-2,-1,-1
117308805376,9,10,-1,24,-2,-2,-1,-3
117308818960,-1,4,1,-19,1,0,0,0
117308818960,-18,-5,-3,-6,0,0,-1,-2
117308826376,13,5,15,18,1,3,3,1
117308826376,0,30,-3,-19,-4,-2,-1,-3
117308850173,-6,-2,-8,23,4,0,0,-4
117308850173,1,-6,-4,-11,-8,-2,-2,5
117308850905,-13,15,4,3,0,0,-2,2
117308850905,-5,-27,-3,-2,-3,-2,0,1
117308864648,4,8,3,-7,-2,-1,0,2
117308864648,4,2,2,-7,0,-1,-2,-10
117308865410,-1,-11,-1,1,-1,-2,-1,0
117308865410,-9,-7,-4,-8,-4,-3,-2,-1
117308879125,-13,-5,-3,7,-1,-1,-3,-1
117308879125,5,1,3,-10,-2,-1,0,-4
117308886467,-18,-18,-8,8,-1,0,0,-4
117308886467,-6,-13,-3,-9,-5,-2,-3,0
117308901465,6,-2,-3,-1,0,0,0,1
117308901465,-7,6,-4,-4,-2,-1,-1,-1
117308909625,-18,1,5,1,0,-2,-3,-2
117308909625,9,-2,7,0,2,2,1,2
117308924625,1,7,3,-1,-1,-1,-1,-1
117308924625,4,1,0,-2,0,1,0,2
117308925356,5,3,-3,7,0,0,1,-1
117308925356,-4,-4,-4,-5,-1,-1,-1,-3
117308938887,11,13,9,8,1,1,0,-2
117308938887,-4,-12,-4,-2,-3,-1,-1,7
117308946426,6,-1,-1,-5,-1,-4,-1,-2
117308946426,1,-1,3,3,-1,-1,-2,-2
117308961705,2,4,-1,-4,-2,0,0,-1
117308961705,-1,-4,-3,-2,-1,-1,-3,-4
117308969598,8,19,1,4,0,0,-3,-1
117308969598,-2,-14,-5,-4,0,-2,-1,-2
117308984640,-12,-11,-5,0,-3,-3,0,-3
117308984640,-2,-8,-3,-5,-2,-2,1,-3
117308985443,1,7,-1,-1,-2,-1,-1,0
117308985443,-4,-7,-5,-4,-1,-1,-3,-4
117308998939,-3,-3,2,-5,-1,-1,-1,1
117308998939,5,4,-1,0,0,-1,-1,-1
