timestamp,emg1,emg2,emg3,emg4,emg5,emg6,emg7,emg8
60062317745,-5,-5,-3,-1,0,1,-1,-2
60062317745,6,6,1,-6,-1,-3,-4,1
60062318604,-5,-2,0,0,-1,-1,-1,-1
60062318604,7,4,-1,-3,1,-2,-1,0
60062332119,-1,-9,-2,-1,-1,-2,-1,-1
60062332119,0,2,0,-1,-1,-1,0,-1
60062340367,-2,-2,-3,-2,-1,-2,0,0
60062340367,-1,2,-1,-4,-3,-2,-1,-1
60062355247,0,2,-1,-2,-1,-2,-2,-1
60062355247,-3,-17,-2,0,1,-1,0,-1
60062356126,-7,-21,0,6,1,-1,-1,-1
60062356126,5,-1,-5,0,-2,0,0,-1
60062378508,7,1,3,-2,0,1,-1,0
60062378508,1,1,-2,2,-2,-2,0,-1
60062379329,-2,6,2,-2,2,0,-1,0
60062379329,-2,-4,-1,4,-1,-1,-3,-1
60062400985,-5,-4,-2,0,-3,-2,-2,-2
60062400985,1,9,1,-2,-1,0,-1,-1
60062401797,5,3,0,-1,-1,-1,-1,-2
60062401797,-4,0,-1,0,0,-1,-2,0
60062415339,0,1,1,0,-1,0,0,0
60062415339,1,4,-1,-3,-2,-2,0,-2
60062415995,2,3,-2,-2,-1,-2,-1,0
60062415995,-4,-4,-1,-4,0,-2,-2,-1
60062438536,-2,2,1,3,0,-2,-1,0
60062438536,-3,-3,-3,-1,-2,-2,-1,-1
60062439393,-12,-4,-4,-8,-3,-1,-3,-2
60062439393,-4,2,-1,-1,-1,-1,0,-3
60062452234,-6,-12,-1,-2,-1,-1,-1,0
60062452234,0,8,0,3,-2,-1,-2,-3
60062460473,1,2,0,-4,-3,0,-1,-1
60062460473,1,-1,-4,-2,-2,0,-1,1
60062475596,-1,0,0,-3,-1,1,-3,-3
60062475596,0,-5,-4,0,-1,0,1,1
60062476187,-1,7,5,8,2,0,-1,2
60062476187,7,3,-1,-4,0,-2,-3,-1
60062498500,0,-2,-2,-3,-4,-1,0,-1
60062498500,-2,-3,-1,0,0,-2,-2,0
60062499358,1,-2,-2,5,0,-1,1,0
60062499358,0,-4,-1,0,0,-1,0,-1
60062512173,-1,2,1,-2,0,-1,-1,1
60062512173,-1,-3,-2,-2,-2,-1,-2,-1
60062520509,0,-1,-1,-1,-2,-2,-3,-2
60062520509,-5,-3,2,-2,-1,-1,-3,-4
60062535393,-1,-1,-5,2,-1,-3,0,-1
60062535393,3,3,-1,-7,-1,0,0,-1
60062536004,0,0,1,8,-1,-1,0,-2
60062536004,-1,-1,-2,-5,0,0,-1,-2
60062558509,-2,-13,-2,-1,-1,0,-2,-1
60062558509,11,10,2,4,3,-1,0,0
60062559324,-1,-1,-3,-2,-3,-1,-1,-1
60062559324,-6,-7,-1,-2,-3,0,1,-1
60062581020,0,6,1,2,1,-1,-1,-2
60062581020,-3,-4,-3,-11,-3,-3,-2,-2
60062581856,4,-1,-3,1,0,-3,-2,-1
60062581856,1,3,0,0,-1,-1,0,-3
60062595453,-1,1,-1,-1,0,-1,-1,-1
60062595453,-5,-5,-6,-2,-3,-1,-1,2
60062596102,-3,2,2,-1,-2,-1,-1,-1
60062596102,-3,-4,1,1,-2,0,-1,1
60062618536,-2,-2,-2,1,1,0,-1,-1
60062618536,-3,-6,-1,-3,0,2,0,-2
60062619368,5,12,-2,-3,-2,-1,0,0
60062619368,-2,-5,-1,-1,0,-1,-1,-1
60062640992,-4,2,-1,-5,-2,-2,-2,0
60062640992,-1,1,0,2,0,-2,-1,-1
60062641782,-2,-2,1,-3,-1,1,0,-1
60062641782,3,0,0,1,-2,-3,0,1
60062655377,2,1,-3,-8,-5,-3,-1,-1
60062655377,-7,-1,-1,2,-1,-1,-1,-3
60062656128,1,-3,-1,1,1,-1,-1,1
60062656128,-4,-4,-2,2,-1,-1,-2,-1
60062677812,-1,-3,-4,-9,-5,0,0,1
60062677812,-7,0,0,-1,-2,0,-3,-4
60062678615,7,8,-3,-2,-2,-2,-1,-2
60062678615,-2,-6,-1,0,1,0,1,0
60062701033,1,1,1,0,-2,-1,-1,-1
60062701033,1,2,-1,-2,-1,-1,-1,0
60062701793,-2,-1,-1,0,0,0,-1,-1
60062701793,-1,4,-1,-1,-2,0,-1,-1
60062715384,-1,1,-2,-4,0,1,-1,-1
60062715384,0,-3,-3,2,-1,-2,-1,0
60062716029,-6,-9,-1,-4,-1,0,-1,-1
60062716029,-2,-4,-1,-2,-2,-2,-1,-2
60062738509,-1,1,2,4,2,0,0,0
60062738509,4,0,2,0,-2,0,-1,1
60062739328,-1,-3,0,0,0,-1,0,-2
60062739328,-4,3,-4,-3,-3,-1,0,-1
60062761229,-2,-1,0,0,-1,0,-1,0
60062761229,4,-3,-3,-2,-2,-2,-1,-1
60062761827,0,-4,1,0,-2,-1,0,-1
60062761827,-1,-3,0,-1,-2,-1,0,-1
60062775573,3,-3,2,2,-2,-2,-2,-1
60062775573,-4,-2,-2,-1,-1,0,0,-1
60062776102,-3,-5,-2,-4,-3,-3,-3,0
60062776102,5,8,-2,-3,-1,0,-1,-4
60062798570,1,-9,-3,2,-2,-2,0,1
60062798570,-8,-11,0,-4,-4,-1,-2,-1
60062799423,-2,-3,0,-1,-1,0,-1,-1
60062799423,1,3,-3,-2,-2,-3,-2,0
60062821144,7,16,1,1,3,0,-1,-3
60062821144,0,4,1,1,0,-1,-2,-1
60062821808,-9,-6,-8,-3,0,-1,0,0
60062821808,-12,-7,-2,-1,0,-1,-1,0
60062835506,-3,0,0,-1,0,-2,-1,-2
60062835506,0,2,-1,0,-1,-1,-1,-2
60062836190,-1,5,1,2,-2,-1,-1,-4
60062836190,-3,0,-1,-3,-2,1,-2,1
60062858561,-2,-2,-3,1,-2,-1,-1,-1
60062858561,-1,-1,0,-3,-1,0,0,0
60062859347,-3,-4,0,-2,-2,0,0,-1
60062859347,1,-2,-1,-1,-2,-2,-1,0
60062881003,-5,-4,-3,3,0,0,-1,-1
60062881003,-1,-2,-2,-9,-5,-2,-2,-2
60062881768,1,0,0,-1,2,-1,-1,0
60062881768,2,-2,0,0,0,-1,-1,-1
60062895493,-3,-8,1,-1,-2,-1,-2,-1
60062895493,2,11,-2,3,-1,0,0,-1
60062903061,0,-11,-1,-3,-1,-1,-1,0
60062903061,-2,-3,0,1,-3,1,-1,-1
60062918755,1,3,-3,0,0,0,-1,0
60062918755,1,0,-2,0,-1,-1,-1,0
60062919409,1,1,-1,-3,-3,0,1,0
60062919409,6,8,0,1,1,1,-1,-2
60062941287,-7,-21,-2,-3,-2,-1,-2,0
60062941287,-1,-2,1,1,1,-1,0,0
60062941884,0,-2,-2,-1,-2,-2,-1,-1
60062941884,-2,-1,-1,-4,-3,-2,-2,-2
60062955230,2,9,-1,-1,-2,-1,-1,-2
60062955230,0,-1,1,-2,-1,-2,-3,-1
60062962945,-3,-3,-2,-1,1,-1,-1,-2
60062962945,-2,-4,-7,-5,-3,-1,-1,-2
60062978822,-6,1,-1,-2,1,-2,-1,-2
60062978822,-3,-3,0,1,0,0,0,1
60062979415,1,4,0,0,-2,-1,-1,-1
60062979415,-2,-2,0,0,-1,-1,-2,-1
60063001060,0,0,-1,-2,0,-1,1,0
60063001060,0,-1,0,1,1,-2,-1,-2
60063001883,0,1,-2,-2,-5,-2,-1,-1
60063001883,1,-1,1,0,1,-1,-2,2
60063015411,0,-1,-1,-1,-3,-1,-2,-2
60063015411,0,-1,-1,2,0,0,0,-3
60063016148,2,0,-2,-3,-1,0,-2,-2
60063016148,-2,-2,0,3,-3,-1,-2,-2
60063038722,1,1,0,-1,-2,0,-2,1
60063038722,-1,-2,0,-2,-1,-2,-1,-1
60063039369,-2,-2,1,0,-1,-1,-2,1
60063039369,6,0,0,1,1,-1,0,0
60063061048,-4,0,-2,-2,-2,-2,0,0
60063061048,-5,-3,0,0,-1,0,0,0
60063061808,3,3,0,3,2,-1,1,-2
60063061808,-4,-21,-1,0,1,-2,-1,-2
60063075413,-3,0,-3,-3,-2,-3,-2,-2
60063075413,0,-2,-2,-2,0,0,-1,1
60063076116,0,-1,1,2,1,-2,-2,-1
60063076116,0,3,-3,-1,-2,-1,-2,-1
60063098619,0,6,-2,-1,-1,1,-1,-1
60063098619,0,-13,-3,-4,-1,-4,-4,-4
60063099434,-8,-6,-3,2,0,0,-1,-2
60063099434,2,7,0,-4,1,0,-1,0
60063128547,2,1,-1,-1,-1,0,0,-1
60063128547,-2,2,-1,-3,-2,-3,-1,0
60063129404,5,0,0,2,-1,-3,-1,-1
60063129404,-4,-2,-1,-2,0,-2,-2,-2
60063135453,4,-3,0,4,0,1,-1,-2
60063135453,-3,2,1,-1,0,0,0,-3
60063136148,-2,-3,-5,-9,-4,-1,-2,-2
60063136148,-2,1,-2,1,-1,0,1,-1
60063166219,-5,-6,-3,-3,-1,-1,-1,-2
60063166219,1,1,-2,3,-3,1,-1,1
60063166831,-1,0,0,-2,1,0,0,0
60063166831,-1,2,0,-4,-3,-2,1,0
60063181300,-2,-4,-1,2,0,-2,-1,-2
60063181300,-10,-2,-4,-5,0,-1,-2,-3
60063181866,1,3,-3,-2,-2,-2,-1,-1
60063181866,6,2,-3,-3,-3,-2,-2,-2
60063194643,3,16,2,-1,0,-1,0,-1
60063194643,-2,-5,-3,-1,0,-1,-1,-1
60063202889,-2,0,0,2,2,1,0,-1
60063202889,8,1,-1,-7,-6,-1,-1,-1
60063218480,-4,-2,-2,-1,-1,-2,0,-1
60063218480,6,9,-1,0,-3,-1,-1,0
60063219351,-7,-3,-3,1,-1,1,-1,0
60063219351,-3,-2,-1,1,1,-1,1,1
60063240982,1,-3,-1,-3,-2,0,0,-2
60063240982,3,2,0,-1,-1,0,2,-2
60063241779,-2,-9,-4,-6,-1,-3,-1,1
60063241779,-5,0,3,12,0,0,-1,-2
60063254668,1,-2,0,-8,11,-1,2,-1
60063254668,-3,-3,-6,-34,-20,-2,-3,0
60063262772,-1,3,-2,-3,-2,-1,-4,-3
60063262772,-4,-2,1,6,4,0,0,0
60063278543,-2,-4,1,15,-1,-1,-2,-3
60063278543,-2,-2,-1,-4,3,-1,1,-2
60063279360,-2,4,0,-3,-1,-2,-1,-1
60063279360,-2,-3,-2,-8,-6,-1,-1,0
60063301005,-2,-1,3,14,-1,0,-2,0
60063301005,-3,-1,-2,5,2,-1,-3,1
60063301818,-12,-22,-4,-3,-3,-1,-3,-3
60063301818,-7,-20,-1,-1,3,0,-1,-3
60063314659,7,-1,-2,-13,-4,-2,-1,0
60063314659,-2,-2,-1,4,1,-2,0,-1
60063330384,0,3,-1,-5,-1,-3,1,0
60063330384,1,5,-1,0,-1,-1,0,-1
60063338503,-3,-5,-3,-8,-4,-2,-2,-1
60063338503,1,-2,2,8,3,0,0,-1
60063339226,4,6,1,-1,-1,-1,0,-1
60063339226,-1,0,0,2,-2,-1,1,-1
60063360988,-1,4,-2,-10,-2,0,0,-1
60063360988,-1,0,-2,4,2,0,-3,-1
60063361788,1,2,0,-2,-6,-1,-1,-3
60063361788,-5,0,-1,1,0,0,0,1
60063374689,-2,-2,-2,-15,-2,-2,-3,0
60063374689,0,0,1,11,6,0,-2,-1
60063382822,1,-2,-2,-17,-7,-1,-2,-1
60063382822,-1,-1,-1,5,1,-1,-1,-1
60063398501,-3,-5,-2,9,-2,-1,-2,-1
60063398501,2,-1,-1,-7,-2,0,0,-1
60063399370,-4,2,1,22,6,0,1,-1
60063399370,-6,3,-1,-3,-3,-3,-3,-2
60063421016,-8,-21,-4,-4,-2,-2,0,-1
60063421016,-3,1,2,4,1,0,-2,-1
60063421817,-2,0,0,10,1,-1,2,-1
60063421817,3,1,-1,4,2,-2,-1,-1
60063434622,-2,3,-3,0,-2,0,-2,1
60063434622,-1,-1,1,-5,-4,-1,0,-1
60063442830,1,-2,-4,7,0,0,-2,0
60063442830,0,2,0,-6,-2,0,-1,-2
60063458504,2,8,-2,-9,-2,-2,-3,0
60063458504,-2,1,-3,-3,0,-2,2,1
60063459341,4,6,0,-6,-1,-1,-2,-1
60063459341,-4,-5,-2,-6,0,0,1,-1
60063480988,-2,-1,-4,6,-3,0,-3,-3
60063480988,0,-3,2,5,-1,-1,-1,-1
60063481818,-2,-3,-4,-6,-2,-3,-1,-1
60063481818,0,3,-1,-7,1,-2,-1,-2
60063494615,0,0,-1,4,0,0,0,-1
60063494615,-2,-3,-1,-1,-4,-1,-1,0
60063502841,1,-3,2,-2,1,-1,0,-1
60063502841,1,0,-4,-3,-2,-4,-2,1
60063518517,0,0,-2,-4,0,-1,0,-4
60063518517,-1,-5,-2,-6,0,-2,-2,-2
60063519354,11,9,5,-10,-2,2,0,1
60063519354,-1,-2,-1,6,1,-2,-1,-1
60063541008,-2,-4,3,-3,0,-4,0,-1
60063541008,2,3,-1,8,1,0,-1,0
60063541751,-4,-5,-6,-19,-5,-3,1,-1
60063541751,-5,-2,0,17,3,-3,-2,-2
60063563509,12,28,1,-27,-12,-2,0,-2
60063563509,-3,-5,-2,1,2,1,0,0
60063565097,-3,1,1,13,3,-1,-3,-1
60063565097,-1,-5,-1,-14,-4,0,-1,-2
60063577139,0,3,4,19,4,0,-1,0
60063577139,0,-2,0,-4,-2,-2,0,0
60063586156,-3,-3,-4,8,0,-1,-3,-1
60063586156,2,3,1,-8,-3,-1,-1,1
60063601070,-3,-10,-2,-4,0,-2,-1,0
60063601070,-3,0,0,5,-3,-2,-1,-1
60063602616,-3,-5,-3,-1,2,-3,-1,0
60063602616,1,-2,-1,-3,0,-1,1,-2
60063623526,-1,-6,-4,-5,0,0,-2,-1
60063623526,-5,-1,-1,0,0,-2,-1,-2
60063625124,0,-1,0,-2,-2,-1,-1,-2
60063625124,-1,-2,1,-7,0,1,-1,1
60063637152,-5,-6,-2,20,-2,-1,-1,-1
60063637152,2,0,-3,-24,-2,-1,-1,-2
60063646146,0,3,-1,-1,0,-1,-2,0
60063646146,-3,-3,-2,-3,-3,-1,-2,1
60063660996,-5,-8,0,17,5,-1,-1,-1
60063660996,0,0,-3,-18,-11,-3,-2,-3
60063662627,-1,-3,-1,1,-1,-1,-1,1
60063662627,2,-1,0,-3,0,-2,-1,-2
60063683501,0,2,-5,-8,-3,-1,-2,-1
60063683501,-7,-21,-3,13,2,-1,0,-2
60063685036,0,0,1,-6,-3,-1,-1,-1
60063685036,0,1,1,1,-4,-3,-3,-1
60063697876,-1,-2,-2,-5,1,-1,1,-1
60063697876,-2,2,0,9,1,-2,-2,-1
60063704663,0,-1,-3,-1,-2,-1,0,-2
60063704663,-4,-4,0,1,0,1,-1,-1
60063721040,-4,-3,-3,-13,-1,-2,1,0
60063721040,0,3,-1,2,-2,-1,-1,-1
60063722642,-3,-2,0,9,1,-1,-2,-1
60063722642,1,3,-4,-2,-1,-1,-1,-2
60063743497,-1,-1,0,6,6,0,-2,-1
60063743497,4,3,-2,5,-9,-2,-1,-2
60063745065,-3,0,0,0,0,0,2,-1
60063745065,-2,-1,-3,-2,-1,0,-1,-1
60063757804,-1,0,1,-3,-1,-1,-1,-2
60063757804,-2,1,1,8,4,-1,-1,-2
60063764665,-2,-3,1,-5,-2,-2,-2,-1
60063764665,-1,-1,-2,-12,-3,-4,0,-2
60063780962,-2,-3,-1,2,0,2,2,0
60063780962,1,3,0,-4,-1,0,-1,0
60063782604,0,-2,-1,0,-2,-1,0,-3
60063782604,-1,-1,2,6,1,0,-2,-2
60063803469,2,2,-2,15,-6,-5,-5,-1
60063803469,-2,-3,-3,-16,-1,-2,-2,-1
60063805131,-1,-1,-1,2,-1,-1,-1,-1
60063805131,-3,0,0,3,0,1,-1,1
60063817860,-3,-1,-1,-2,-1,-1,1,-2
60063817860,-2,0,0,11,1,-1,-1,-1
60063832117,-1,1,-1,-8,-2,-3,-1,-1
60063832117,0,-3,-2,-3,-2,-1,-1,-1
60063841031,0,0,3,-6,-3,-2,-1,0
60063841031,1,3,2,8,5,0,1,2
60063842602,-3,-3,-2,-31,-4,10,-1,-1
60063842602,-3,-2,-2,21,-4,-17,-3,-2
60063863506,3,-3,-1,-15,0,6,-3,1
60063863506,-1,0,2,7,3,0,-2,-3
60063865131,-1,0,-1,0,0,-2,-1,-3
60063865131,-1,-1,-1,-15,0,6,1,0
60063877811,-3,-3,-1,-3,-3,-5,3,-2
60063877811,-1,-2,-2,7,-3,-6,-6,-1
60063884621,-1,-1,-3,0,-2,-1,0,-1
60063884621,0,-1,-2,0,-1,3,3,-3
60063900971,-1,-2,-3,-10,0,0,-1,-2
60063900971,-2,-1,0,-16,-4,1,2,-1
60063902596,-2,0,0,15,0,-6,-1,-2
60063902596,-1,-1,-2,-3,3,-3,-3,-2
60063923524,-3,0,-1,-1,-1,1,1,0
60063923524,-1,-1,-2,-15,0,4,-2,-2
60063925126,0,-2,-2,16,1,-14,-5,2
60063925126,0,-1,0,-4,-2,7,0,0
60063937141,-2,0,-1,-2,-5,-1,-1,-3
60063937141,1,2,0,6,0,2,0,0
60063946154,-1,-3,-3,-39,-4,-1,1,-1
60063946154,0,2,1,-6,2,8,1,3
60063960959,-1,-4,0,24,-3,-16,-5,-2
60063960959,-3,-5,0,4,5,-4,-4,-1
60063962662,13,7,-3,-6,-11,0,1,-1
60063962662,-2,-1,-2,-20,-1,3,-1,-1
60063983510,-4,-4,-1,6,2,8,3,1
60063983510,1,3,-2,-11,-2,0,0,0
60063985010,-3,-5,2,28,6,-14,-7,-1
60063985010,-1,-1,-2,-1,-3,-3,-1,-3
60063997144,-1,-1,-2,-15,-6,-1,-4,-3
60063997144,-3,-2,-2,-5,-1,7,-1,-2
60064006200,6,1,0,-8,1,3,2,4
60064006200,4,2,2,7,-1,-2,1,-1
60064020991,0,-1,1,-16,1,-3,2,0
60064020991,-7,-5,-3,2,-7,-7,-4,-4
60064022594,-21,1,-2,-3,-2,11,1,-5
60064022594,4,1,-2,14,0,-15,-3,0
60064043566,4,-1,-2,-5,-2,-2,-9,-2
60064043566,-8,-6,-6,-19,-6,0,5,-6
60064045127,8,7,2,15,0,-5,0,12
60064045127,25,4,0,7,1,2,-3,0
60064057132,-46,-10,-2,-24,7,10,5,-10
60064057132,3,3,-3,-4,-6,-4,-3,-2
60064066120,-7,-12,0,29,1,-3,-4,-8
60064066120,2,4,-2,2,0,0,-3,3
60064080996,37,7,0,-31,1,9,9,10
60064080996,20,4,-4,5,3,-8,4,5
60064082604,-21,-5,5,43,-5,-1,-5,-11
60064082604,-8,-6,-6,-8,2,12,-3,6
60064103530,-3,0,2,8,-1,-18,-7,-7
60064103530,15,1,-2,-19,2,6,1,6
60064105101,7,1,-6,-35,-4,0,1,-3
60064105101,-19,-21,0,44,2,-20,-5,1
60064117140,18,4,0,-4,0,16,6,7
60064117140,11,1,3,7,-5,-3,1,8
60064126161,27,6,-1,-19,3,17,-2,30
60064126161,-12,-7,-3,5,-4,-26,-10,-31
60064141012,-20,1,-1,-28,-3,10,10,13
60064141012,25,-1,0,36,0,7,2,0
60064142635,-17,-7,-2,-2,1,-24,-8,-22
60064142635,-13,3,0,-56,-8,11,1,1
60064163486,5,-2,-4,48,4,-12,-7,-2
60064163486,-22,-1,-3,-12,-2,18,6,3
60064165043,75,12,4,-11,-9,-6,6,23
60064165043,-78,-9,0,19,0,-17,-11,-24
60064177128,-66,-14,-12,-47,-20,6,-2,-36
60064177128,-6,1,-1,12,11,22,-3,4
60064186158,13,-3,-7,-37,-7,4,12,-4
60064186158,7,5,-3,2,-6,-3,2,12
60064201014,-1,-1,5,55,12,-25,-16,-4
60064201014,1,1,0,-10,-13,-5,-2,-3
60064202636,-15,-7,-6,-10,2,12,0,-6
60064202636,38,16,1,-7,-2,0,3,10
60064223489,12,-6,-2,-29,-10,-10,-7,11
60064223489,-5,-4,0,22,6,-12,-3,22
60064224990,-10,4,3,7,9,11,-1,-30
60064224990,26,1,1,-20,4,20,16,10
60064237130,-4,-3,-4,-10,-8,-6,-1,5
60064237130,-14,-1,7,27,7,-10,0,-4
60064246116,-29,-10,-9,-9,-21,-4,6,6
60064246116,-2,-3,-1,2,-5,10,-17,-18
60064260467,26,3,-1,39,11,-11,-7,3
60064260467,13,2,0,-38,-9,-10,-7,-11
60064267146,-35,-7,-5,25,22,10,4,10
60064267146,15,0,2,-72,-35,-9,-13,-13
60064283499,3,1,-3,29,-1,8,2,6
60064283499,-19,-6,0,42,13,2,3,-11
60064285105,5,3,3,6,2,-11,-3,1
60064285105,7,9,-1,18,14,4,2,10
60064297085,-6,-3,-5,-32,-3,-17,-11,-7
60064297085,-8,-2,-1,18,-14,-2,-10,-8
60064306153,3,-2,2,-14,-2,3,5,9
60064306153,4,1,-1,-3,-7,1,8,-3
60064320361,20,6,-1,-29,-11,4,6,-2
60064320361,-40,-11,-6,15,18,-9,-1,-10
60064327118,0,1,-5,-27,-20,16,-3,-4
60064327118,2,-7,-1,34,5,-5,-2,-2
60064343937,8,2,2,7,5,-2,7,15
60064343937,11,2,0,-52,-14,-1,-10,2
60064345576,-7,0,1,-46,5,-11,-2,-12
60064345576,-12,-15,-13,23,-27,-2,-5,-10
60064357159,7,-5,1,99,28,14,-3,19
60064357159,4,3,1,-30,-4,-16,11,6
60064366113,3,2,5,17,6,0,-2,-1
60064366113,3,-2,-1,-38,12,1,5,-2
60064380381,-9,3,-1,-65,-29,-2,-11,-16
60064380381,38,10,-2,67,10,1,11,19
60064387127,-70,-7,-8,-4,-1,-8,-4,-31
60064387127,-22,-7,-1,36,11,-2,-5,-2
60064403466,-2,3,-5,-94,-27,1,-1,-18
60064403466,-11,-6,4,60,37,-2,-9,0
60064405119,32,6,2,-19,-11,-2,-9,-4
60064405119,13,5,-1,20,10,4,2,15
60064417090,-39,0,1,-3,-9,-2,2,-12
60064417090,16,1,-3,-58,-15,6,6,8
60064426154,27,0,1,60,8,-7,-9,13
60064426154,16,-1,1,-2,6,3,23,10
60064440380,-19,-6,0,22,9,0,0,-39
60064440380,-27,-6,-11,-45,-29,-8,-8,-28
60064447120,-3,-3,1,-18,-9,-4,-4,14
60064447120,14,14,-7,-15,1,-2,-8,-4
60064463471,32,6,2,33,8,4,5,30
60064463471,-19,-6,-3,11,-2,-2,-5,-14
60064465019,9,1,0,36,6,0,1,0
60064465019,20,12,5,-20,-11,-4,2,34
60064486028,18,-4,1,52,17,4,0,-2
60064486028,-47,-6,-1,-19,-2,0,-21,-49
60064487625,36,12,2,-36,-9,1,13,10
60064487625,-7,-15,-4,33,7,-3,-7,4
60064500374,12,5,-4,-45,-4,5,3,-30
60064500374,68,19,6,27,-1,-6,3,43
60064507151,-36,-8,3,18,4,1,-15,-33
60064507151,17,-7,4,-25,-5,7,23,12
60064523501,-5,-6,-3,2,7,3,1,16
60064523501,78,17,0,-51,-20,0,14,59
60064525167,-51,-17,-1,25,10,-9,-23,-89
60064525167,7,-5,-3,11,6,2,12,33
60064545992,75,20,6,-31,-5,-3,2,30
60064545992,-124,-40,-1,65,10,2,0,-27
60064547568,33,-1,-19,-62,-17,-3,-2,1
60064547568,12,-8,-8,81,17,-6,-41,-105
60064560375,-66,18,22,10,16,5,18,-17
60064560375,54,-6,-1,-13,-8,-5,6,79
60064567198,100,28,28,6,0,2,10,82
60064567198,-75,-2,-27,-54,-11,-1,4,6
60064583505,10,18,25,28,-10,1,-1,-86
60064583505,103,67,10,-13,5,4,-2,-29
60064585115,-73,-69,-13,106,41,3,27,92
60064585115,-62,-1,25,-36,-17,-2,-4,30
60064605994,-6,-7,-57,-5,-12,-9,-7,49
60064605994,21,28,26,-54,5,4,5,13
60064607562,20,-1,-13,71,17,-1,-6,-44
60064607562,23,32,29,-56,-19,-4,2,23
60064619652,12,-39,-43,-12,4,-5,-8,9
60064619652,43,-16,-2,13,-17,-8,-6,-20
60064628620,-37,1,-16,-88,-30,6,-6,-6
60064628620,25,-2,4,-2,2,1,9,-2
60064643525,15,-4,10,-3,-2,-1,-8,8
60064643525,-2,-19,-23,-47,3,2,-2,-8
60064645148,12,31,15,-29,-22,-2,7,-3
60064645148,-8,-20,-5,25,13,-7,-6,-12
60064666002,-41,-7,1,-52,-13,-10,-2,6
60064666002,-37,-17,-12,4,-3,8,-17,-18
60064667602,-41,1,0,14,14,-11,-29,-55
60064667602,-30,0,-1,8,4,18,8,-11
60064679666,10,-2,8,-8,-7,-1,0,11
60064679666,-37,-8,2,-10,-13,-9,8,-13
60064688694,13,9,-2,-24,-19,-8,-16,-17
60064688694,30,6,-9,-18,12,-4,-6,-6
60064703499,-25,-27,6,17,4,-3,-1,1
60064703499,-25,-15,-8,13,-12,-9,-19,-24
60064705024,13,12,-7,3,9,4,23,23
60064705024,-11,-13,2,1,-18,14,-4,-10
60064727381,9,6,5,31,33,-5,-1,13
60064727381,-16,2,2,-20,-2,44,10,-6
60064729024,11,1,4,-15,-12,-20,-9,3
60064729024,11,2,-1,-13,-8,-4,8,5
60064739750,-33,-9,-6,-3,4,-3,-18,-39
60064739750,2,-3,0,3,-3,-16,-4,6
60064748700,3,-3,3,-9,4,14,14,6
60064748700,-3,-5,-3,-52,-15,-16,-12,-1
60064763501,11,3,3,34,-9,-1,4,11
60064763501,-23,-4,-7,-28,14,-3,-6,-30
60064765155,4,-7,-2,42,2,-2,4,16
60064765155,25,3,-4,2,2,-7,-6,-5
60064786024,-34,-2,-1,-17,-7,7,3,-1
60064786024,-17,-7,-1,-2,1,-5,6,-7
60064787599,11,2,-1,-11,2,-1,-4,-4
60064787599,-11,-2,-1,4,-7,-3,-7,-14
60064799628,29,4,1,23,8,3,8,16
60064799628,-35,-12,-5,7,-1,-7,-12,-30
60064808585,-4,12,3,-24,-7,-2,8,19
60064808585,17,3,0,13,16,15,11,16
60064823492,-32,-4,1,17,-5,-5,-3,-8
60064823492,6,-2,-3,-19,-2,2,4,22
60064825102,-17,-2,-4,8,3,3,-6,-19
60064825102,-16,-4,-2,11,-2,-7,2,-8
60064846029,36,3,2,-12,-7,1,-3,14
60064846029,-24,2,1,6,7,0,2,6
60064847668,-9,-7,-2,-45,-12,-4,-1,11
60064847668,-1,3,-5,38,-7,-2,-2,16
60064868539,10,-4,-3,-19,-4,-7,-4,8
60064868539,7,6,8,22,9,-6,-10,0
60064870127,15,-5,-3,-12,-1,4,5,-7
60064870127,-1,-11,-3,-8,3,4,3,-4
60064883530,7,3,2,-5,-8,-5,-4,-11
60064883530,-1,0,-1,20,1,0,-1,-1
60064885142,4,-11,-3,-1,-3,-7,-9,-7
60064885142,8,0,-1,2,10,0,0,0
60064906003,3,-1,-2,-6,-12,-1,-6,-30
60064906003,4,-5,-5,4,4,-2,7,14
60064907603,-4,-3,-1,4,-3,-2,5,8
60064907603,1,-7,-7,-11,-5,-6,-8,-1
60064920129,7,8,1,-11,2,10,13,14
60064920129,9,1,-1,9,8,-4,-8,16
60064928653,-11,-5,-3,9,-4,4,8,-4
60064928653,-5,-14,1,3,-3,-4,-4,-5
60064943479,-2,-3,-1,-5,0,-1,-4,0
60064943479,1,0,-3,-23,-7,-8,-5,-7
60064945090,-12,-6,-3,19,1,-2,-6,-1
60064945090,-3,0,-3,-8,-1,-3,1,-18
60064966026,28,13,3,1,-5,0,-4,20
60064966026,-46,-30,-3,-19,-6,-1,5,-21
60064967672,-23,-1,1,33,14,2,-8,-15
60064967672,11,5,0,-3,-6,-4,0,0
60064979652,-40,1,4,11,4,0,-3,34
60064979652,78,29,1,-4,-4,-1,-4,5
60064988633,-65,-18,1,-11,3,0,3,-15
60064988633,26,23,3,0,1,1,-2,22
60065003435,11,-2,-2,-13,0,-1,-2,-8
60065003435,32,6,4,11,3,-2,-1,13
60065004997,-24,-3,-4,14,-2,-4,-8,-11
60065004997,5,10,6,0,-1,1,-1,-8
60065025967,-52,-16,-7,-13,-9,-5,-11,-35
60065025967,44,-3,-4,11,1,0,17,19
60065027573,7,-22,9,-4,-1,3,3,72
60065027573,-14,-7,6,-12,4,0,-6,-69
60065039621,58,-4,-33,-6,-4,1,13,9
60065039621,-95,-7,14,9,3,-3,-16,-65
60065048604,38,45,-7,-2,3,2,0,17
60065048604,47,1,-5,7,-5,-4,-10,-17
60065071459,-46,-17,19,-10,-2,-4,-7,-64
60065071459,54,5,-33,-10,-8,-4,9,84
60065073079,51,18,32,-23,-5,-3,2,-20
60065073079,-82,-27,-49,-4,6,-2,-12,-47
60065085940,62,22,-3,0,-1,0,6,17
60065085940,-4,-7,-6,0,-5,-3,1,-42
60065087599,17,25,2,-3,-2,2,-5,-39
60065087599,-10,-4,-3,4,0,-2,-7,48
60065099650,7,-5,17,-15,6,1,11,30
60065099650,-55,-3,-6,7,-5,-3,-13,-70
60065108626,3,-7,-9,-8,-5,-5,-2,22
60065108626,-10,-5,2,-6,-3,-3,5,-11
60065123464,17,9,-15,-13,-8,10,2,4
60065123464,-14,11,13,5,13,-2,-3,3
60065125088,5,0,4,13,-10,-6,-9,-42
60065125088,27,5,5,-15,-16,8,19,53
60065146014,-48,0,5,-8,7,-20,-15,-18
60065146014,12,-5,-5,-2,0,-3,0,5
60065147622,-20,-17,-15,-10,6,7,1,3
60065147622,1,0,9,34,5,10,-19,-8
60065159677,0,-4,-3,5,0,10,38,43
60065159677,-14,2,16,5,-6,4,-2,-7
60065168626,-10,-5,-10,-10,-3,-15,1,4
60065168626,13,9,8,-38,-11,1,13,15
60065182822,-6,-5,3,18,4,-10,-29,-38
60065182822,-5,-11,-13,24,2,-9,-9,3
60065189565,6,-4,-1,-3,-7,5,11,12
60065189565,-8,-4,-3,-10,-5,-9,-14,-5
60065205972,0,-3,0,18,-1,-1,-4,10
60065205972,-5,-1,3,-24,-16,3,12,16
60065207577,-4,-19,-4,-3,4,3,-5,-2
60065207577,-8,-4,5,16,13,-5,0,0
60065219656,-11,0,-1,12,6,-1,-6,-8
60065219656,13,7,3,-13,1,9,8,11
60065228653,-3,2,-3,12,-1,-4,-9,-16
60065228653,-4,-3,-5,-1,-4,-9,0,4
60065242853,7,-4,3,11,-1,4,5,2
60065242853,4,-3,-7,-59,-8,-1,-6,-2
60065249658,-3,1,-3,14,-2,-4,-3,2
60065249658,-7,-4,1,10,5,1,9,7
60065265983,-1,-4,0,19,1,2,-5,-1
60065265983,-3,-4,3,-4,-3,-8,-2,-2
60065267608,3,0,-5,3,12,13,-1,-3
60065267608,9,5,2,1,-3,-11,2,11
60065279672,5,1,-3,-11,-1,-12,-13,-2
60065279672,-44,-5,3,10,3,4,7,-15
60065288591,0,2,-4,-10,-8,2,4,5
60065288591,-1,15,4,1,1,5,-2,-3
60065302800,28,3,-1,10,-1,-1,1,11
60065302800,22,14,-2,2,-5,-6,0,10
60065309659,-13,-4,-4,-17,-6,-11,-2,-12
60065309659,-13,0,-3,-11,2,7,1,-6
60065325978,-13,-3,-3,15,2,-2,-3,-5
60065325978,-4,0,-1,1,-5,0,-2,2
60065327588,6,0,-2,-15,-3,-2,0,-2
60065327588,1,-9,-3,-5,-2,-6,-4,2
60065339692,-11,-5,0,-10,-6,-4,-1,-4
60065339692,3,-4,-2,24,6,8,2,2
60065348625,7,-4,-1,1,0,-3,-4,6
60065348625,-5,-9,-4,-21,-9,-6,1,-4
60065362845,4,4,-3,-3,-1,-4,-3,-2
60065362845,-2,-3,1,0,5,0,-1,1
60065369600,-3,1,2,1,-2,9,-3,-11
60065369600,4,0,0,12,15,3,4,40
60065385998,5,0,1,-7,-8,-1,2,-6
60065385998,5,-3,-3,-4,-6,-6,-7,-2
60065387612,-29,-9,-6,-6,-1,-7,-3,-42
60065387612,4,6,-12,5,-5,1,-4,3
60065416117,-14,-3,5,6,0,-1,-2,-10
60065416117,-5,-2,-2,-5,-13,-6,2,15
60065417693,-22,0,-14,-12,-2,1,-8,-5
60065417693,3,-4,16,14,1,0,2,-3
60065422810,-14,-7,19,2,2,8,4,-18
60065422810,9,-1,4,-21,-9,-4,-3,23
60065429619,10,1,-12,7,4,-5,-2,9
60065429619,-1,-9,19,19,-3,-3,-1,-13
60065445989,-13,4,-10,7,13,2,0,9
60065445989,-7,-6,-2,-2,-2,1,-4,-17
60065447595,12,3,6,-19,-5,-9,-2,5
60065447595,-6,0,-14,-11,-7,3,-2,6
60065469138,-3,-7,-8,-2,-2,6,-2,-47
60065469138,17,11,3,11,0,-5,6,-5
60065470788,-9,-4,3,1,-2,-7,-9,6
60065470788,0,-2,-4,2,5,-1,7,-4
60065482852,53,6,0,-5,-3,10,5,32
60065482852,-78,-20,-11,-13,5,-3,-12,-48
60065489627,26,2,5,8,-2,-2,6,9
60065489627,-8,-19,-2,-3,1,0,-2,1
60065506007,-21,2,-3,-3,0,0,-4,-10
60065506007,33,4,-4,-2,-1,-10,3,46
60065507602,3,0,4,-8,1,9,4,13
60065507602,-19,-1,-2,9,-1,-3,-10,-31
60065528449,14,1,-11,-3,-7,-5,5,18
60065528449,8,-1,-4,17,2,-3,-3,1
60065530075,-3,-1,5,-26,-7,0,0,-9
60065530075,-26,-10,-2,6,2,4,-1,-8
60065550983,-17,-2,-4,-4,-3,-4,-2,-8
60065550983,5,2,6,9,0,2,-1,-4
60065552597,-3,-3,-2,-7,-4,-6,-1,6
60065552597,14,5,-3,-14,-5,-4,0,16
60065565969,-6,-4,-1,-9,-1,-1,-2,-22
60065565969,-7,-9,0,6,6,2,-2,-2
60065567613,4,-15,-3,2,-1,2,3,8
60065567613,6,5,-3,-17,-6,2,-2,1
60065588512,-14,-3,-5,-37,-5,-20,-8,-3
60065588512,21,7,4,3,3,9,4,2
60065590120,-1,6,2,10,4,-2,1,-6
60065590120,6,1,0,20,5,0,-2,-8
60065602129,-3,-8,-2,-8,-4,0,1,10
60065602129,3,5,-1,4,0,-1,0,-8
60065611109,-10,-11,-3,11,-7,-4,-5,2
60065611109,4,5,2,23,0,-3,-3,-8
60065626009,8,0,-4,-9,-8,-8,-2,10
60065626009,0,-2,1,0,8,12,2,3
60065627609,3,4,-1,-2,0,-2,-1,-3
60065627609,4,1,1,7,-1,-3,2,-3
60065648449,-4,-2,-3,16,3,3,-3,5
60065648449,-2,-2,-10,-13,-11,-7,-3,-2
60065650076,-2,4,2,6,2,-1,0,-10
60065650076,1,0,-3,-13,-3,-1,2,5
60065662096,-2,1,3,0,3,1,1,7
60065662096,-1,0,1,10,1,1,0,-4
60065678647,2,4,-2,4,1,0,-1,0
60065678647,-10,-20,-2,-29,-6,-6,0,-2
60065685987,-1,-1,-1,6,2,1,-1,-1
60065685987,8,2,1,23,3,-1,-3,2
60065687641,3,1,-1,-26,-4,-1,-1,5
60065687641,-2,1,-9,-64,-3,-3,-1,-1
60065708467,4,1,0,27,-4,1,-2,3
60065708467,-5,-5,-12,-91,-22,-6,-2,-5
60065710012,-3,0,2,28,7,-2,-2,1
60065710012,-1,1,-1,21,-1,-1,-1,-4
60065722152,0,0,3,3,4,0,0,0
60065722152,0,1,2,13,7,0,0,-1
60065731101,-1,1,0,6,-2,-1,-1,1
60065731101,2,3,1,3,4,-1,-1,-1
60065746049,8,0,-6,-33,-2,1,-1,4
60065746049,-5,-2,2,11,-4,-2,0,-2
60065747592,-1,-2,-5,-30,-7,-6,-1,-1
60065747592,0,2,4,50,6,0,-1,-1
60065775944,2,-1,1,-28,-8,-2,-2,-1
60065775944,0,-2,1,16,6,0,-1,-2
60065777570,1,0,0,6,1,0,-1,-2
60065777570,0,0,-4,-4,-5,-1,0,-2
60065782123,-5,0,2,1,3,1,1,-1
60065782123,0,0,-1,8,0,0,-2,0
60065791113,-4,-3,1,13,0,0,0,0
60065791113,0,0,1,3,3,-1,-3,-2
60065805982,-9,-3,-10,-55,-11,-1,-1,-1
60065805982,-1,-1,-4,0,1,1,-1,-4
60065807586,0,0,0,45,3,-2,-1,0
60065807586,-3,-1,-6,-52,-8,-3,-2,-4
60065828490,-4,0,4,27,2,1,-1,-1
60065828490,-2,-1,-7,-14,-9,-4,-3,3
60065830119,0,-1,2,36,4,1,-1,-6
60065830119,-1,-2,-3,1,-4,-4,-2,-2
60065842177,6,0,4,43,8,0,2,6
60065842177,-8,7,3,4,3,0,-1,-18
60065851124,19,-14,-7,-14,-4,-3,-3,89
60065851124,-8,5,10,3,5,2,6,-17
60065865982,9,6,-3,11,-7,-3,-3,-4
60065865982,-3,-4,0,17,7,-2,0,18
60065867597,15,15,-1,-26,1,2,1,-15
60065867597,17,-12,1,1,-13,-7,-5,28
60065888503,-23,-4,-3,-7,7,3,2,-2
60065888503,10,0,6,12,-7,-1,2,19
60065890120,-18,1,-1,-41,-1,-1,-3,-19
60065890120,3,2,-6,-2,-1,-2,-2,-4
60065902121,0,7,-37,-11,-7,-5,-3,-12
60065902121,-13,-3,0,19,8,1,-1,-24
60065911145,-11,-6,-3,-9,-5,-4,-2,-15
60065911145,-7,2,4,13,2,-1,-3,-18
60065925972,5,-2,7,-10,-1,0,-2,5
60065925972,-1,0,-11,-13,1,-3,-4,-25
60065927594,0,-3,-6,-56,-15,-4,0,-10
60065927594,-15,0,-6,10,0,0,-2,-8
60065948462,-9,-1,10,20,4,0,0,-18
60065948462,8,-4,3,-12,-3,0,-1,18
60065950104,-1,7,5,19,4,2,-1,-16
60065950104,1,-13,0,8,-1,0,-1,9
60065978454,-1,-4,3,-5,2,-3,-1,19
60065978454,2,-1,2,13,0,-1,-1,4
60065980073,-21,2,-4,-6,-3,-1,-3,-7
60065980073,5,6,1,-13,-2,-1,1,45
60065985978,10,2,5,10,-1,0,2,-11
60065985978,-10,-6,-4,-9,-1,0,1,-7
60065987610,-2,-7,1,25,1,-2,0,-1
60065987610,2,-9,-2,15,13,2,0,3
60066008470,-5,-4,-10,-65,-23,-4,-5,10
60066008470,-4,2,2,23,3,-1,-2,0
60066010128,4,-4,4,-6,1,1,1,-8
60066010128,-10,3,-9,4,-2,-3,-2,-12
60066022150,10,8,5,17,5,-1,-3,-10
60066022150,1,-9,-6,-28,-3,-2,-3,6
60066031107,1,7,1,10,-2,-1,-1,6
60066031107,0,-2,2,2,-2,0,0,-14
60066045996,-8,-8,2,10,1,-1,1,9
60066045996,10,-3,-3,-11,-6,-3,-4,-24
60066047602,11,5,3,25,6,0,2,-7
60066047602,8,1,-5,-28,-12,-2,-3,1
60066068468,6,-1,0,8,2,1,1,10
60066068468,3,17,3,-2,0,0,-2,6
60066070035,-1,-8,-5,9,0,-1,-2,-2
60066070035,-6,2,-1,-23,-1,-2,-2,-17
60066082141,-9,-1,2,-17,-4,0,-5,-13
60066082141,2,-2,-4,-3,-3,-2,-3,-8
60066091119,-6,-4,-1,3,0,1,0,8
60066091119,1,1,-1,8,-2,-1,0,12
60066105275,-3,-1,3,10,3,-1,-1,-7
60066105275,-14,-2,-2,-7,-1,-2,-1,0
60066112153,2,-2,-1,-5,-3,-1,-1,5
60066112153,-9,-2,-1,14,-1,-3,-1,-25
60066128500,3,-5,3,10,1,0,0,5
60066128500,9,4,5,1,1,5,5,1
60066130082,-7,-1,-2,-6,-2,-1,-2,-3
60066130082,1,2,0,4,0,-1,-2,-4
60066142128,-2,-27,-1,3,-2,-1,-2,-3
60066142128,6,3,1,-2,-1,-1,-1,12
60066151138,3,1,-2,-4,-1,-1,0,-2
60066151138,-1,-3,-2,-4,-1,0,-1,0
60066165403,-14,0,-5,5,0,0,-2,7
60066165403,0,-2,-1,2,-3,-2,0,4
60066179600,4,-9,-3,-5,0,-2,-1,-1
60066179600,-7,6,2,0,-1,-2,0,-3
60066188475,8,22,-2,4,-2,-4,-5,-4
60066188475,-6,-8,1,-1,-1,-3,-3,-9
60066190048,-1,0,-1,-4,-1,0,0,8
60066190048,6,3,-1,0,-1,-1,1,5
60066202112,-1,1,0,5,0,0,1,-5
60066202112,0,-9,-6,-3,-2,-2,-1,1
60066211104,-1,-9,-2,-4,-1,-1,-1,-2
60066211104,-11,-5,-3,1,0,-1,-4,-1
60066225300,3,-1,-1,0,-2,0,-1,3
60066225300,-18,-13,-4,-2,-1,-1,-3,-2
60066232154,-12,-4,-2,-2,-2,0,-2,-5
60066232154,-4,1,-1,0,0,1,0,-2
60066248450,5,-1,-3,1,0,-1,1,4
60066248450,9,7,1,-1,-1,0,-2,12
60066250084,-4,5,0,-2,-2,1,1,-4
60066250084,-9,-3,-1,-1,-1,-2,-1,-4
60066262124,-6,-1,-1,1,-1,-3,-1,-1
60066262124,3,-7,0,-1,-2,-1,0,-1
60066271137,5,5,-1,-1,0,-3,-3,1
60066271137,5,-1,-2,-2,-2,0,-3,-2
60066284635,-6,-3,1,2,-1,-1,1,-5
60066284635,1,6,-1,0,0,-1,0,1
60066293623,-3,-14,-2,-2,-1,-1,-3,-4
60066293623,-21,-10,-2,-2,-1,-2,1,21
60066308476,12,18,4,2,-2,-1,-2,-5
60066308476,4,-6,0,-3,-3,-1,-2,3
60066310084,10,13,-1,-3,-3,-1,0,2
60066310084,-9,-23,-2,0,1,-1,-1,3
60066322155,2,4,0,1,0,0,1,3
60066322155,-7,-1,-2,-1,-2,-3,-1,0
60066331074,-5,2,0,0,0,0,0,-13
60066331074,19,7,-2,-3,-2,-2,-3,9
60066345266,-6,-19,-5,0,-1,-2,0,-1
60066345266,1,0,-1,0,-1,-3,-2,-5
60066352151,-1,-1,-3,-3,-1,0,-1,-1
60066352151,5,9,0,-1,0,-1,-1,-11
60066368452,-3,-5,-1,-1,-1,-1,-1,0
60066368452,-3,3,1,0,2,-1,-1,-4
60066370077,-5,-8,-1,-1,-2,-1,-2,0
60066370077,2,3,-1,0,-2,-1,-1,-5
60066390994,-1,-5,-2,-2,-1,1,-1,0
60066390994,-8,-6,-4,-3,-1,-2,0,-3
60066392600,0,5,0,-1,-1,-1,0,-2
60066392600,3,-1,1,-2,-1,-1,-1,-6
60066405970,-3,2,0,-2,-1,1,-1,4
60066405970,-1,-12,1,-1,0,1,1,-2
60066407603,-10,-1,0,-1,0,0,1,-1
60066407603,-1,1,1,0,-1,1,0,-4
60066428500,-5,-3,-2,0,-1,-2,-2,-2
60066428500,0,5,0,-2,-3,0,-1,2
60066430140,1,-2,-2,0,-3,-3,1,-2
60066430140,0,0,-1,-1,-2,-2,-1,-6
60066450987,-1,0,0,-3,1,-1,1,-1
60066450987,5,0,-2,-1,-1,0,-1,-2
60066452592,-1,1,0,0,-2,-1,-1,-2
60066452592,6,2,-3,-2,-2,0,-2,12
60066465985,1,-3,-3,0,-1,-2,-3,-3
60066465985,-1,3,-1,0,0,-3,-1,0
60066467671,-2,-2,-1,-1,1,-2,-1,-1
60066467671,10,-1,-3,-2,-1,-1,0,-17
60066488514,-2,-2,0,-1,-1,-1,-1,13
60066488514,-3,-3,-3,-2,-3,-1,-9,-14
60066490141,-4,-1,-1,0,-1,-1,7,10
60066490141,-3,0,2,-2,1,-1,-3,-8
60066510973,-22,-2,-3,-2,-1,0,-1,-38
60066510973,-2,2,-1,0,-1,0,-2,-1
60066512585,-3,-3,-1,-1,-1,-1,-2,0
60066512585,-2,-1,-1,-1,-2,-3,-1,-5
60066525291,-1,2,0,2,0,0,0,6
60066525291,-6,-4,-4,-2,-1,-4,0,3
60066532151,0,-2,2,-3,0,-2,-3,-10
60066532151,2,-2,-1,-3,-1,-1,2,4
60066548458,-4,-2,0,3,1,-1,0,4
60066548458,1,2,1,-1,-2,-1,-1,0
60066550042,-18,0,-2,-1,-1,-1,-3,-17
60066550042,-2,-3,-2,-1,-2,-1,-1,-2
60066571000,27,33,0,-6,-2,-1,-1,2
60066571000,-22,-1,3,1,2,1,2,2
60066572610,2,0,-2,0,0,1,-1,1
60066572610,-7,1,0,0,-1,-1,-1,-5
60066585378,0,-3,-2,0,-2,-4,-3,-2
60066585378,2,2,-1,-3,-2,-1,1,-1
60066592132,8,0,0,-1,-2,0,-3,0
60066592132,-3,1,-1,0,-1,-1,-2,2
60066608453,2,-11,-2,-1,0,-1,0,6
60066608453,7,-1,-2,-2,-1,-1,-1,-1
60066610023,3,-6,-5,-1,-2,-2,-3,2
60066610023,3,-1,0,2,0,0,1,3
60066630952,1,-9,-2,0,-1,-3,-1,0
60066630952,0,-3,0,-1,-1,0,0,2
60066632611,1,4,1,0,-2,0,-1,1
60066632611,4,-3,-3,-1,-2,-1,-2,7
60066645348,-8,-3,-1,-1,0,0,0,-9
60066645348,-7,3,-2,-1,-2,-2,-4,-12
60066652129,5,12,-1,-2,-3,-2,0,-15
60066652129,3,-1,0,-1,1,-1,-2,34
60066668457,-3,0,-1,-3,-2,-2,-4,-2
60066668457,4,-3,0,0,-1,-1,0,-6
60066670036,13,14,0,-3,-2,0,-1,11
60066670036,-9,0,0,1,0,-1,-1,-22
60066690966,3,11,3,-1,-3,0,-1,-1
60066690966,-2,-3,-3,-1,-1,-1,-1,6
60066692585,-1,-5,-1,-2,2,-1,-2,4
60066692585,3,7,-2,-2,0,-1,0,-4
60066705350,4,-8,-3,-1,-1,1,0,7
60066705350,6,4,1,-2,0,-2,1,-3
60066712130,-12,-10,-1,-1,0,-1,-1,-1
60066712130,-10,-3,-1,-1,-1,-1,-2,-12
60066728453,-6,-9,-2,-2,-3,-3,-1,1
60066728453,-1,-2,-2,0,-2,-1,-1,2
60066730094,-3,-3,-3,0,-2,-2,-2,-3
60066730094,-4,-5,-3,0,0,-2,0,0
60066750944,5,-12,-3,-1,-1,0,0,9
60066750944,1,-3,-1,0,-2,0,-1,-2
60066752599,4,-8,-1,-2,-1,-2,-2,-6
60066752599,-3,2,0,1,-1,-1,-3,2
60066765303,-7,1,1,0,1,1,-1,-10
60066765303,3,-9,-2,-1,0,-2,-1,4
60066772217,2,0,-2,0,-1,0,-2,-5
60066772217,0,-18,-1,-1,-2,-1,0,0
60066788485,-10,-2,-2,-2,1,-2,-2,-5
60066788485,-8,-8,-1,0,-1,1,2,1
60066790096,4,3,2,1,0,-1,-2,5
60066790096,-1,1,0,-1,-1,-2,-1,-6
60066811460,-13,-9,-4,-2,0,-3,-2,-8
60066811460,8,4,-1,-1,1,0,0,1
60066813005,-6,-5,-1,0,-1,0,1,2
60066813005,4,0,-1,-1,-1,-1,-1,-3
60066825307,4,1,0,1,-3,-1,-1,1
60066825307,-4,4,1,-1,-2,1,-3,-2
60066832173,-5,-7,-4,-3,-1,-1,-1,-2
60066832173,-2,3,0,-2,-1,0,-2,2
60066848426,3,1,0,-1,-2,1,-1,-1
60066848426,-2,-4,-2,1,-1,-2,-1,-1
60066850099,-4,0,-1,0,-1,0,-2,4
60066850099,0,2,-2,1,0,-1,0,-14
60066870988,0,-7,-3,-2,-2,0,1,9
60066870988,8,11,2,-1,0,0,0,0
60066872609,-3,-5,-1,0,1,-2,-1,0
60066872609,4,1,1,-2,-3,-1,-1,3
60066884713,-1,2,-1,-2,-1,0,-3,-5
60066884713,10,6,1,0,-1,-2,-3,-9
60066893572,-5,-18,-3,-2,0,-1,2,6
60066893572,-15,-3,1,-1,1,0,0,0
60066916010,8,-4,-3,0,0,-3,-1,1
60066916010,6,5,1,0,-1,0,1,3
60066917627,1,3,-1,0,-2,-3,-3,-5
60066917627,3,-3,-2,-3,-1,-2,-1,2
60066931005,-4,-1,1,-1,0,0,-1,-4
60066931005,-5,-15,-1,0,0,0,-2,5
60066932608,0,0,-3,-1,-2,-2,-1,-4
60066932608,-2,-1,-2,-1,-2,-1,-1,2
60066944642,-6,6,-1,-3,-2,-3,-1,-3
60066944642,-2,0,-2,-2,-3,-1,-1,-10
60066953650,-2,2,1,-2,1,0,-3,0
60066953650,0,-2,-3,-2,0,-2,0,-4
60066968525,-2,-2,-4,-1,0,0,-1,0
60066968525,-7,0,-2,1,0,-3,-1,-1
60066970053,2,0,2,0,0,-4,0,2
60066970053,-2,1,-2,0,-1,-2,-2,-3
60066990990,-4,-6,0,1,0,1,-1,2
60066990990,1,1,0,-2,0,-1,-1,3
60066992630,10,2,-2,-4,-1,-1,0,6
60066992630,0,1,0,1,0,-1,-3,-11
60067013479,3,5,1,-2,-1,-3,0,2
60067013479,-9,-4,-2,-1,0,-1,-1,-2
60067015120,6,9,-1,-1,-3,0,-3,-5
60067015120,4,-3,-3,-3,-2,0,0,6
60067028499,-1,6,2,0,-1,1,0,-9
60067028499,-6,-3,-2,-3,-3,-4,-2,-1
60067031828,-1,11,0,0,-1,-2,0,1
60067031828,6,-1,-1,-1,-1,-2,-1,2
60067050932,0,-2,-4,0,-2,-2,-2,-2
60067050932,0,4,-2,-2,0,0,-2,1
60067053189,-8,-4,-1,-2,0,-2,-1,-3
60067053189,-5,-3,-2,0,-1,0,-2,1
60067064607,0,-4,0,-1,0,-2,-1,2
60067064607,-1,-2,0,-3,-2,-2,-1,-2
60067073657,-3,-6,-2,0,-2,-1,0,-2
60067073657,-7,-4,-1,-1,-3,-3,1,-2
60067088500,17,1,-1,-3,-3,-2,-3,5
60067088500,-5,-4,-2,-3,0,1,0,-8
60067090171,-4,1,2,0,-2,-1,-3,-8
60067090171,2,2,-1,-1,-1,-1,-2,2
60067111008,0,-3,-1,0,-1,-1,-2,4
60067111008,0,-3,-3,1,-2,0,-1,1
60067112604,-1,-5,-2,-2,-2,-1,0,-1
60067112604,-13,4,-2,-3,-1,-4,-3,-4
60067124672,-2,3,0,-2,-3,-2,0,2
60067124672,-12,-20,-3,1,-2,0,-3,-7
60067133611,-5,2,-2,-1,0,0,0,-1
60067133611,7,0,-1,-1,-1,0,-1,-1
60067148450,2,6,-1,-1,0,0,1,0
60067148450,-1,-10,-3,-1,0,-2,-1,-1
60067150063,-3,-3,-2,0,-3,-1,-1,-1
60067150063,-3,-4,0,0,-3,-2,0,0
60067170982,-4,-1,-1,-2,-4,-1,0,-12
60067170982,1,3,1,1,-2,-2,-1,4
60067172596,-5,6,0,-1,0,0,-1,0
60067172596,-4,-9,-2,0,-1,1,0,2
60067184673,-4,-5,0,1,0,-1,-1,-14
60067184673,2,6,-1,-2,-1,0,-3,3
60067193635,0,-4,-2,-1,0,-1,0,2
60067193635,-2,6,0,-3,0,-1,1,0
60067216441,-5,-6,-2,-1,0,0,-1,3
60067216441,-2,2,-2,-2,-2,-2,-1,-1
60067218012,3,-4,0,-1,-1,0,0,-2
60067218012,-3,-2,-1,-2,-2,-1,-1,-4
60067231033,-1,-7,-2,-1,0,-2,-1,2
60067231033,3,4,0,0,-1,-1,0,1
60067232580,-5,-4,-3,-1,-1,-3,-4,-2
60067232580,1,0,0,0,-1,-1,0,4
60067244602,-5,-1,0,-3,-1,0,-2,0
60067244602,11,7,0,-2,-2,0,-1,-1
60067253614,-2,-9,-2,-3,-2,0,-1,-8
60067253614,17,28,4,2,0,0,-1,2
60067268522,-9,-21,-2,0,-2,0,-2,-2
60067268522,1,2,0,-2,-1,-1,-3,2
60067270041,5,0,-2,-1,-2,-1,1,1
60067270041,-4,-9,-1,-1,1,0,-2,-3
60067290997,-2,5,-4,-3,-1,0,-1,-3
60067290997,0,1,-2,-1,-1,-1,-1,-1
60067292648,-9,-10,-2,2,-1,-2,-1,0
60067292648,-4,-1,0,-1,-1,-1,0,-2
60067313507,2,4,1,-1,-1,-2,1,4
60067313507,-7,-7,-5,-2,-1,-1,0,-4
60067315032,-3,3,1,-1,0,0,0,0
60067315032,-2,-6,-3,-1,-1,0,-1,-1
