timestamp,emg1,emg2,emg3,emg4,emg5,emg6,emg7,emg8
59578226001,-1,1,-2,0,-1,-3,-3,-1
59578226001,-3,2,0,0,0,-2,1,-1
59578241322,-9,-24,-3,-4,-1,-2,-4,1
59578241322,-2,3,4,2,-2,-1,-2,0
59578242498,-2,1,0,-2,-3,-1,0,-4
59578242498,2,-3,-1,0,-2,-1,-3,-1
59578263384,-10,-22,-3,-3,-2,-1,0,4
59578263384,10,-5,0,-1,1,0,1,-8
59578265058,0,-1,-3,-3,1,-1,-1,-1
59578265058,-8,-1,-1,-1,-1,-1,-3,-3
59578277019,7,12,3,-1,-1,-1,-1,2
59578277019,-9,-5,-2,-1,-1,1,0,-1
59578286025,2,3,-1,-1,0,0,0,-2
59578286025,-3,-6,-1,-2,-1,-1,0,0
59578300899,1,9,3,0,1,0,-3,-2
59578300899,-4,-3,-1,-1,0,-2,-1,0
59578302487,4,-2,1,0,0,0,-4,-1
59578302487,1,-6,-1,-2,-2,0,0,1
59578323339,11,1,0,0,0,0,1,-2
59578323339,1,10,2,0,-2,0,-1,2
59578325014,0,-3,-2,-1,-3,-1,-1,2
59578325014,-1,-1,0,1,1,0,-1,-3
59578337031,-1,-1,-3,-4,-2,-2,-2,-3
59578337031,-1,-1,-1,-1,1,-1,-1,-1
59578346060,-1,-6,-3,-2,-3,-2,-3,0
59578346060,-4,-3,-4,-4,-2,0,-1,-1
59578360963,-1,5,-1,0,-2,0,0,-1
59578360963,-3,-2,-2,-3,-3,-1,-3,-3
59578362603,-3,4,2,0,-3,-1,-2,-2
59578362603,5,0,-6,-3,-2,-2,-2,-3
59578383492,-6,1,-2,-1,-1,0,-1,0
59578383492,2,1,0,-1,-1,1,-2,1
59578385070,1,2,0,0,-1,-3,2,-1
59578385070,-1,0,0,2,0,1,-1,0
59578397335,-1,1,-4,-4,-2,-2,-1,-3
59578397335,-6,-2,-2,-1,-1,-2,-2,-2
59578406011,1,3,2,-1,0,0,0,-2
59578406011,-1,-1,1,-1,0,-1,-2,1
59578421071,1,2,-1,-1,-3,0,0,-3
59578421071,-12,-6,-1,0,0,-1,-1,-2
59578422541,0,-2,-4,-3,1,-2,-3,1
59578422541,1,3,-2,1,-1,-1,-2,-1
59578443552,2,5,1,-1,-1,-1,-3,-1
59578443552,3,-12,-3,-2,-3,-1,-1,2
59578445033,0,1,0,-1,0,-1,0,-3
59578445033,-2,-2,0,0,0,-2,-1,1
59578465850,6,0,-3,-2,-1,-2,0,-2
59578465850,3,3,-3,-3,-1,-2,-2,-2
59578467511,-7,-1,-1,-1,-2,-2,-2,-2
59578467511,1,-2,1,-1,-1,1,-1,-2
59578480952,-8,-5,1,-1,-1,-1,1,-3
59578480952,0,1,-2,-1,0,-1,-2,-1
59578482532,3,2,1,-3,0,-1,0,0
59578482532,-3,-1,-6,-2,-2,-1,0,-1
59578503389,-8,-23,-3,-2,-1,-2,-3,0
59578503389,5,5,-1,0,0,-2,0,0
59578505018,-15,-5,-3,-1,0,0,-1,-1
59578505018,3,5,2,-2,0,-1,1,-1
59578525825,-7,-5,-2,0,-2,-1,-3,-3
59578525825,1,3,1,1,-1,-2,-1,-2
59578527440,-1,-6,-3,0,-2,0,-1,-2
59578527440,-1,-1,1,1,-1,-1,0,-1
59578540890,4,7,-2,-1,0,0,-1,0
59578540890,-14,-20,-1,-1,-3,1,0,-2
59578542497,1,3,-1,1,0,-1,-2,-2
59578542497,-1,0,1,-1,-2,-1,-1,-2
59578563361,2,5,-3,0,-2,-2,-2,1
59578563361,0,4,-2,-1,-1,-2,-2,-2
59578565008,1,-1,1,-2,-2,-3,0,0
59578565008,-2,-5,-3,-3,-3,0,0,0
59578585898,-5,-3,0,-1,0,0,-1,-1
59578585898,9,19,1,0,-1,-4,-1,0
59578587523,-1,-7,-5,-1,-3,-1,-3,0
59578587523,0,3,0,1,0,-2,-1,-2
59578600272,-1,-2,-2,0,-1,-1,-1,-1
59578600272,-5,5,-3,-3,-3,-1,-2,-4
59578607026,5,0,-1,-1,0,-1,-1,-3
59578607026,-3,-3,-1,-1,-1,-1,0,-1
59578623706,-9,4,-1,-1,-3,-3,0,-4
59578623706,-2,-11,-2,-1,-2,-1,-1,1
59578625041,-5,3,2,-1,-2,-1,-1,-2
59578625041,-5,-9,0,-2,-1,-2,-3,-1
59578646187,-1,0,1,-2,-1,-1,-1,-1
59578646187,2,2,-1,0,1,0,0,-1
59578647497,-6,-3,-1,-2,-1,-1,0,-2
59578647497,5,2,-1,-2,1,-1,-3,-2
59578660309,-1,-2,2,0,0,0,-1,-2
59578660309,2,-2,-1,-1,0,0,-2,-1
59578667336,1,3,-1,0,-1,0,-1,0
59578667336,-4,-2,-2,0,-4,-3,-1,-1
59578683640,1,-1,-2,-2,-2,-1,-2,-2
59578683640,-1,-2,1,0,-1,-1,-1,-1
59578685085,-3,-13,-1,-2,-1,-1,-1,1
59578685085,0,4,1,0,0,-3,-2,-3
59578706085,1,-1,-4,-3,0,-2,-1,0
59578706085,-5,-13,-1,-2,0,0,-1,-1
59578707552,2,0,0,5,1,-2,0,-4
59578707552,-1,0,1,-7,0,0,-2,0
59578720254,-2,-1,-2,1,-3,-1,0,-1
59578720254,-1,4,0,1,0,-2,-1,-2
59578727296,0,-1,-2,-1,-2,-2,-1,2
59578727296,-1,-2,-1,2,0,0,0,-2
59578743590,-5,0,0,-4,-1,-1,0,-2
59578743590,9,3,1,8,-1,-1,-2,0
59578745065,-3,-3,1,-3,0,0,-2,-3
59578745065,1,-2,0,0,0,1,-2,1
59578766130,3,4,1,-2,-2,-1,-2,1
59578766130,-14,-15,-3,-5,0,-2,-1,-1
59578767523,8,-5,-3,1,1,-2,-2,-1
59578767523,-3,-3,-2,-1,0,-1,-2,-1
59578780440,3,-3,0,-2,-1,-2,0,-3
59578780440,4,1,-4,-4,-1,0,-1,-1
59578787256,-2,-2,-1,-3,-3,-2,-1,0
59578787256,-3,0,-2,-5,-3,-2,0,0
59578803620,-5,-5,-1,2,1,0,-1,0
59578803620,1,4,2,0,-3,2,0,1
59578805083,-2,-2,-4,-5,-1,-1,0,-1
59578805083,1,3,-2,1,-1,0,0,-1
59578826143,0,0,0,0,0,0,-1,0
59578826143,1,1,-2,-4,0,-3,0,1
59578827535,-7,5,1,0,-1,-2,0,-1
59578827535,2,1,1,1,-1,-2,-1,-2
59578840567,0,-1,-2,-3,0,0,-1,-2
59578840567,-3,-1,-4,-5,-2,0,-1,-3
59578854731,-4,-5,0,0,0,1,0,0
59578854731,0,-1,-2,0,-3,-3,1,-1
59578871124,-3,-3,-3,0,-1,-4,-2,-3
59578871124,-2,1,2,-2,-1,-1,-2,-1
59578872532,-1,2,0,-2,-2,-2,-1,0
59578872532,-2,-24,-2,-3,-2,1,-1,-2
59578885884,10,5,-1,5,0,0,1,1
59578885884,-1,-2,0,0,-4,-3,-2,0
59578892322,-3,1,-2,0,0,0,0,-1
59578892322,-7,-5,-3,-3,-3,-3,-4,-4
59578900340,-4,-2,-1,-1,0,-1,-3,0
59578900340,4,4,-1,1,0,-2,-1,1
59578907207,3,-2,1,-2,-2,0,1,-2
59578907207,-1,6,0,1,-1,-1,-1,0
59578923583,-3,-5,-2,0,1,-1,-2,0
59578923583,-2,3,-2,-1,-1,-2,-2,-1
59578925035,1,7,-2,-1,-3,0,0,6
59578925035,-3,1,-1,-1,0,-1,1,-6
59578946136,-4,-2,1,-3,-4,0,1,-3
59578946136,-2,-3,-2,-1,-1,0,0,-1
59578947621,1,-3,-2,1,0,-2,-1,-1
59578947621,-3,-1,-2,-2,-1,-1,-1,0
59578959760,-1,-1,0,-2,0,-1,-3,-1
59578959760,-1,-3,-2,-1,-2,-2,-1,-3
59578968681,0,-1,-1,0,0,-1,-1,-5
59578968681,0,10,2,0,-1,-1,-1,0
59578983573,0,-15,-1,-4,-2,-1,-1,0
59578983573,3,12,0,-1,-3,-1,-3,0
59578985045,-12,-7,-2,1,-1,-3,-3,-5
59578985045,1,4,-2,0,-1,0,2,0
59579005911,-2,0,-2,-2,1,0,-1,1
59579005911,1,10,1,1,1,0,2,-1
59579007529,-5,-9,-3,-4,-1,-1,-2,-2
59579007529,-2,-2,-4,-2,-1,-2,-3,-1
59579019540,-1,-1,0,0,-1,-1,-3,-2
59579019540,-3,-8,-1,-1,-1,-1,-1,-1
59579028626,-2,6,-1,0,-2,0,-1,-2
59579028626,3,-3,1,-1,-2,0,1,2
59579043574,-2,2,-2,0,-2,-2,-1,-1
59579043574,2,-3,-2,-2,-2,-1,-1,0
59579045047,0,0,-2,-2,-1,-2,-2,1
59579045047,0,-4,-3,-1,-1,-1,-1,-1
59579065912,-2,0,-1,-1,-1,-1,0,-3
59579065912,-4,-5,1,0,-2,-1,-1,-1
59579067559,2,-1,-2,0,0,-1,-1,-1
59579067559,-2,-2,-2,-2,-2,1,-1,-2
59579079551,-2,9,-3,-3,-3,-1,0,0
59579079551,-3,-7,1,-1,1,-2,-2,-3
59579088580,3,-1,1,-2,-1,1,-1,-2
59579088580,-12,-5,-6,-3,0,-1,-3,-5
59579103523,2,11,-2,-1,-2,-1,-1,0
59579103523,-4,-15,-2,-2,-1,-1,-1,-1
59579104992,3,-1,-1,1,-2,-3,-2,0
59579104992,4,0,3,-1,-1,0,0,0
59579126086,0,-3,-1,0,-2,-2,-2,-1
59579126086,-4,-1,-2,-2,-3,-1,-1,6
59579127564,6,0,2,-2,-1,0,0,-5
59579127564,2,-1,-2,-2,-3,-2,-1,2
59579139802,0,-7,-2,1,0,0,-1,-2
59579139802,0,2,-1,-2,-2,-2,-2,-2
59579148584,-4,-1,1,-1,-1,-2,1,-1
59579148584,-1,2,1,0,0,-1,-2,-1
59579164059,-2,-5,1,-1,0,0,-1,-1
59579164059,-5,-2,-2,-2,1,0,-2,-2
59579169555,0,8,0,0,-2,0,-2,0
59579169555,0,5,0,1,-1,0,-2,-2
59579185961,-5,-14,-2,-1,1,-1,-1,-3
59579185961,10,7,-1,-1,-1,0,0,-4
59579187506,-3,-3,-1,-4,-1,0,0,-2
59579187506,5,10,0,4,-1,-2,-1,2
59579199751,-3,0,1,1,3,0,-1,0
59579199751,-6,-20,-6,-13,-4,-1,-1,-2
59579208643,-2,-4,-5,2,-3,-3,-3,-2
59579208643,-1,-1,-3,4,0,-2,-1,-2
59579223661,2,-1,0,-4,0,0,-2,-2
59579223661,-2,1,0,7,0,-3,-2,-1
59579225088,1,0,0,-8,-2,0,-1,-1
59579225088,-5,-10,-1,-1,-1,-3,-1,-1
59579246148,1,3,-2,-1,-4,-2,-2,0
59579246148,0,0,-1,-7,-3,0,-1,-2
59579247564,-4,-3,-2,1,-2,-1,0,-2
59579247564,1,4,-2,3,1,1,-2,-2
59579259833,-4,-2,2,-1,0,-1,0,0
59579259833,-1,4,0,0,-1,-1,-1,-1
59579268559,-1,-3,-1,-2,0,-1,-2,0
59579268559,2,2,-1,-3,-2,-1,-1,-2
59579283581,-1,-8,-2,-3,-2,-1,0,-1
59579283581,-2,1,0,0,0,-2,-3,-1
59579285039,-4,1,-1,1,-1,-1,1,1
59579285039,-1,-1,-3,-5,-1,0,0,-11
59579306125,1,2,-1,1,-3,-2,0,1
59579306125,3,6,1,2,3,1,-1,0
59579307587,0,-16,-2,-2,-1,0,-2,0
59579307587,-6,-8,0,-2,-1,-2,-1,2
59579319574,-15,-6,-6,-4,-4,-1,-1,-3
59579319574,0,6,1,1,-1,1,1,-3
59579328581,4,7,-1,-1,-1,-1,-1,0
59579328581,-3,-7,-3,-2,0,-2,1,0
59579343379,1,2,1,-1,-1,-2,0,-2
59579343379,-6,-17,-3,-4,-2,0,-2,0
59579345005,-3,1,0,0,0,-1,-1,-4
59579345005,1,2,-1,-3,-3,-2,-1,1
59579373379,1,3,0,0,1,-2,0,-1
59579373379,0,1,-3,-1,-1,-1,-2,0
59579375026,0,2,0,2,0,-1,-2,-1
59579375026,7,-8,-1,0,-3,0,0,0
59579379484,3,3,-6,-3,-1,-2,-2,-1
59579379484,-3,-2,-1,0,-1,1,-2,-1
59579388525,0,-1,-4,-1,0,-2,-3,2
59579388525,0,1,1,1,-1,-1,0,1
59579403371,1,-2,-2,1,-1,1,-2,-3
59579403371,0,-1,0,0,0,-2,1,-2
59579404991,-2,4,-5,-4,-1,0,-2,-2
59579404991,-9,-10,-1,0,-1,0,-2,-4
59579425922,3,2,2,-1,-1,0,-1,0
59579425922,-4,-2,-2,0,-1,-1,-1,-1
59579427576,-1,-3,-1,-1,-2,-2,0,-1
59579427576,-2,0,-1,-2,-2,-2,-3,3
59579448430,0,-1,1,2,2,-2,-3,0
59579448430,-15,-18,-3,-2,-1,-1,-1,-1
59579450064,2,2,2,-3,-1,-1,1,1
59579450064,-1,2,0,-2,-2,1,-1,-1
59579463565,-2,2,-2,-4,-4,-2,1,-1
59579463565,4,5,2,1,-2,0,-2,-1
59579465030,-2,0,-2,-2,-1,-2,-2,-2
59579465030,-3,-4,0,-1,0,-1,0,-1
59579486164,-3,-3,-1,0,-1,-1,-1,-2
59579486164,5,4,0,-3,-1,-1,-2,-3
59579487578,-1,-1,2,-1,-2,-1,-1,-2
59579487578,0,8,-4,0,-1,-2,-1,0
59579508428,2,-3,-2,0,0,-1,0,1
59579508428,0,1,-1,-2,-2,-1,-1,0
59579510011,-1,-1,-2,1,0,1,-1,0
59579510011,-1,2,0,-6,-4,-2,-1,-2
59579523488,0,-2,-2,-1,-2,0,-2,-2
59579523488,-8,0,-3,-4,-4,-1,-1,-2
59579525035,5,21,0,2,0,1,-2,-3
59579525035,-2,-11,0,0,2,-2,0,0
59579546160,0,1,-3,-1,-3,-1,-2,-1
59579546160,1,2,0,-1,-1,0,0,0
59579547547,3,4,0,-1,-2,-1,-2,0
59579547547,4,-2,0,-1,-1,-1,1,2
59579576159,2,4,4,1,0,0,-1,2
59579576159,5,1,-1,2,-2,0,0,2
59579577596,-6,-10,-2,-2,-3,-3,-2,-2
59579577596,-6,-7,-4,0,0,-1,-1,-2
59579582896,-2,-6,-1,-3,-2,0,-3,-2
59579582896,0,1,-3,-1,1,-1,-1,-1
59579589779,0,-6,-2,-1,-2,-1,-1,-1
59579589779,-2,2,-2,-3,0,0,-3,0
59579606168,-2,-3,-2,-1,-1,-2,0,-2
59579606168,5,1,-1,1,0,0,-2,-2
59579607592,-2,-5,-3,-1,-2,0,0,-3
59579607592,-1,4,0,-2,0,0,-1,-2
59579628622,-6,-23,-2,0,-2,-3,-3,-2
59579628622,-5,0,-2,-1,0,-1,-2,-2
59579630071,-4,-6,-4,-2,-1,-2,0,-1
59579630071,0,2,-1,-2,-1,0,-2,1
59579642974,0,5,-1,-2,-1,0,-1,-2
59579642974,2,-1,0,5,-1,-1,-2,-1
59579649732,-2,-5,1,-5,-1,0,-3,-1
59579649732,-6,-9,-2,-1,-1,-3,-1,-1
59579666125,8,11,2,4,2,-1,2,-2
59579666125,-5,-4,-1,-3,-1,-1,-1,0
59579667507,8,14,-1,-1,1,0,0,-3
59579667507,0,-7,-2,3,-4,-2,-1,-1
59579688681,-1,-1,-3,-2,-3,-2,-2,0
59579688681,-2,-1,0,-1,-1,-2,1,-1
59579690040,7,-3,-3,0,0,-2,-2,0
59579690040,-3,5,-2,-4,0,1,0,-1
59579702824,5,0,1,3,0,-1,0,0
59579702824,-1,-1,0,-8,-2,-2,-2,-3
59579709788,-8,-8,-4,-2,-2,-1,-2,1
59579709788,-2,-7,-3,5,0,-1,-3,-2
59579726091,1,5,0,-2,-3,0,-2,0
59579726091,3,3,-1,6,-1,-3,-2,2
59579727527,-8,-8,1,2,-1,-1,1,-2
59579727527,-2,1,0,-2,-2,-1,-2,-2
59579748539,1,2,-3,0,0,-1,1,0
59579748539,-2,-2,-3,1,1,0,-3,-4
59579750064,0,4,0,0,0,-2,-2,1
59579750064,-11,-2,-4,-7,-4,-2,-2,-4
59579762822,-4,-4,2,-2,-1,-2,0,-2
59579762822,-1,-1,-5,-8,-2,-2,1,-1
59579777263,-2,-4,2,0,-3,-1,-2,-1
59579777263,1,1,3,4,0,0,-1,0
59579786009,-3,-3,-1,-6,-1,0,-1,-1
59579786009,-1,-2,-1,1,-1,-2,1,0
59579787540,-2,-3,-2,3,-3,0,-3,-2
59579787540,1,2,-1,-1,-1,-3,0,0
59579808576,-3,2,0,1,2,-2,-1,-1
59579808576,1,14,4,28,5,-1,1,-1
59579810009,-2,-5,-2,-21,-11,-2,-2,-3
59579810009,0,1,-5,-20,1,0,0,1
59579822995,-2,-1,4,22,-1,0,-1,0
59579822995,-3,-4,0,0,0,-1,-2,-2
59579829768,-3,-2,1,13,2,0,-2,0
59579829768,4,2,1,12,2,-1,-1,-2
59579846161,-2,-4,-6,-9,-5,-3,-3,-2
59579846161,-5,5,8,11,4,1,2,-1
59579847552,-1,-1,-2,-3,4,-1,0,2
59579847552,1,-3,2,-20,-8,-1,-2,-1
59579876169,-1,-1,-2,-1,5,1,-1,0
59579876169,-1,-7,-1,24,-7,-2,-1,-2
59579877561,-2,-2,0,-40,-3,-3,-1,-3
59579877561,1,2,0,7,5,-4,0,0
59579882254,-1,0,-3,1,0,2,-2,-1
59579882254,-3,-6,-9,-18,-4,-2,-5,-2
59579891155,2,7,1,32,-1,2,1,-2
59579891155,2,1,2,23,6,-2,-1,-1
59579906162,-6,-3,-15,-80,-14,-8,-2,-1
59579906162,-4,-6,-1,15,1,6,0,2
59579907597,2,-3,-1,-2,-4,-4,0,1
59579907597,1,-3,3,22,-1,-1,-3,-2
59579928557,11,9,5,38,6,-1,-1,1
59579928557,-1,0,-3,-19,-3,-5,-2,-3
59579930062,-4,-5,-3,-5,1,-1,-2,-1
59579930062,-1,0,-4,-12,-3,-3,0,-2
59579942352,-2,-1,3,9,2,-1,-1,0
59579942352,1,-5,-8,-26,-2,6,-2,-3
59579951017,-2,1,1,14,1,-1,0,-2
59579951017,2,-5,-3,4,-2,-10,-2,-1
59579966090,-2,1,1,16,4,-5,-3,-4
59579966090,-2,-24,-2,-30,-7,3,0,0
59579967535,-3,2,0,12,5,11,2,-3
59579967535,-5,1,-2,-15,-4,-1,-4,-3
59579988639,-5,-5,-3,9,-7,-3,-5,-7
59579988639,3,4,1,10,2,-6,0,5
59579990052,1,0,-3,-1,-3,-9,-4,-1
59579990052,-3,-4,-2,-14,-7,-10,0,0
59580002077,3,11,0,-25,4,23,1,-6
59580002077,-6,-1,-2,10,-3,-8,-2,1
59580011051,1,0,2,-4,-2,2,-3,1
59580011051,4,6,-2,-2,2,6,0,0
59580026128,-1,-2,1,16,3,-12,1,-1
59580026128,-2,1,1,-10,3,0,-3,-1
59580027572,-6,-6,-3,-16,-8,-1,7,-3
59580027572,5,2,-1,-1,1,3,-7,-5
59580048511,1,11,1,-16,-1,-2,1,2
59580048511,2,0,-2,-3,-3,7,-1,-4
59580050003,-5,-3,1,19,2,-11,-5,-2
59580050003,-1,-1,-2,-21,-4,8,7,3
59580062302,-4,-7,-6,16,-2,-9,-6,-1
59580062302,-1,1,3,8,3,5,4,-2
59580078585,4,1,-1,5,-1,-11,1,5
59580078585,-6,-3,-7,-11,-3,8,2,-1
59580086166,-4,-7,0,2,-6,-21,-9,-8
59580086166,1,2,2,4,1,10,1,3
59580087531,-4,-11,-3,2,-1,-1,0,4
59580087531,12,10,4,-3,2,-3,1,-4
59580108416,-6,-5,-3,3,-1,-1,4,6
59580108416,2,4,1,-10,-8,-7,-3,-13
59580110020,1,4,-1,0,5,7,-7,-3
59580110020,-6,-7,-2,17,-3,-9,-9,0
59580131186,-2,-4,-6,-14,-2,12,10,-2
59580131186,1,6,0,15,5,-7,-1,-6
59580132554,2,-2,-2,-29,-8,13,6,2
59580132554,-5,0,0,2,-1,-2,-6,-4
59580145472,2,-3,2,2,-4,-26,-7,2
59580145472,-6,-6,-3,8,-3,-2,-5,-4
59580152095,0,-2,-6,-12,-3,-5,-4,-3
59580152095,-3,-2,-4,-6,1,2,-4,5
59580168366,1,-1,1,13,4,15,7,-1
59580168366,1,-1,1,4,6,9,5,6
59580170001,0,0,2,2,1,-6,-8,-5
59580170001,-6,-3,0,5,-7,-6,5,-6
59580182264,-3,-3,-3,-4,0,14,0,0
59580182264,10,19,-2,-21,-10,-35,-18,0
59580191044,-2,-3,-1,7,2,5,11,-3
59580191044,0,-2,1,2,6,16,1,1
59580205477,1,-1,0,2,-1,5,3,-1
59580205477,-2,-4,-1,-8,-5,-5,-1,1
59580212038,-1,1,0,-3,-4,-6,-3,-5
59580212038,-2,-4,-3,4,-1,-6,-1,-5
59580228658,2,3,-3,-13,1,19,-2,2
59580228658,-3,-1,-2,3,-2,-7,3,0
59580230018,-10,-3,-1,-3,-4,-18,-5,2
59580230018,1,-1,1,19,5,3,1,-6
59580242279,1,1,-1,-6,-10,5,-2,1
59580242279,2,-4,-3,-21,-3,-2,-1,-1
59580251125,-4,-5,1,1,6,5,9,-1
59580251125,-5,-2,4,1,-3,-5,-6,4
59580265445,-7,-17,-1,3,-5,-36,-12,-5
59580265445,2,0,-1,3,8,43,16,4
59580272277,-21,-8,-1,-2,-1,4,-3,2
59580272277,7,9,0,-15,-6,-7,1,1
59580288468,1,-1,0,17,-4,-14,-9,-3
59580288468,4,-1,-4,-38,-3,-8,-5,-1
59580290014,2,5,1,13,7,10,3,0
59580290014,3,1,-3,-17,-6,-5,-4,2
59580302118,-3,-5,1,5,-3,-7,0,-2
59580302118,7,6,-2,8,-6,2,3,-2
59580311083,5,3,-3,-9,6,15,-2,0
59580311083,-3,-1,4,4,2,-24,-1,1
59580325209,4,5,2,16,4,1,1,2
59580325209,-5,-6,-3,-1,3,28,6,-5
59580332082,3,4,0,-4,-2,-22,-14,-2
59580332082,3,1,2,11,-3,1,2,-1
59580348442,0,0,0,-4,1,9,3,1
59580348442,-6,-3,-2,2,-3,-8,6,-1
59580349990,0,-2,1,5,-4,1,1,0
59580349990,-4,-5,-11,-32,3,23,-4,-2
59580371151,-1,5,4,-11,0,-20,-8,-2
59580371151,-11,-20,-3,11,-6,-3,-5,-3
59580372563,12,11,-2,-11,-3,-5,0,-2
59580372563,-14,-7,5,21,-1,-11,-3,-2
59580385347,0,1,-9,-32,-5,19,1,0
59580385347,-9,-7,-3,5,2,-38,-16,0
59580392147,3,-1,1,12,-2,16,11,1
59580392147,0,-5,-1,-5,-3,10,7,-5
59580408474,-2,0,-2,29,10,14,1,1
59580408474,3,5,3,2,-11,-16,-8,0
59580410031,-10,-9,-10,-48,-5,3,-1,-8
59580410031,1,2,2,-3,2,-18,-6,1
59580431167,-2,-6,-3,-22,-5,0,8,3
59580431167,-2,1,0,10,5,15,2,-6
59580432579,4,-3,3,-17,-6,-30,-9,-2
59580432579,-8,-3,-7,-2,-6,19,-7,-7
59580445473,0,3,0,5,-3,-18,7,3
59580445473,-3,-12,2,-13,-3,-6,-9,0
59580452320,7,4,3,19,10,22,3,2
59580452320,2,0,2,-14,-6,-17,-3,2
59580468600,0,3,0,7,-4,2,5,-3
59580468600,2,5,1,9,0,-6,-5,0
59580470080,0,-2,-4,4,4,14,-1,1
59580470080,1,-5,-6,-4,1,1,13,5
59580490937,-5,-4,0,24,7,7,-3,-4
59580490937,-1,-2,-9,-65,-16,-9,-3,1
59580497296,0,-4,0,14,-1,-6,-4,-3
59580497296,-6,3,0,9,2,-6,-8,-3
59580504681,-3,-3,2,-25,-1,2,2,-4
59580504681,-8,-1,-9,-2,-4,26,5,-6
59580513501,3,-15,1,14,-3,-63,-7,7
59580513501,0,1,3,-2,1,13,6,1
59580528648,-3,-3,0,8,7,25,-3,-1
59580528648,2,7,9,18,14,-2,4,4
59580530060,-2,-1,-3,1,-13,4,2,-3
59580530060,-1,-2,-7,19,0,2,-1,-6
59580551000,-3,-3,7,-13,2,-18,-11,2
59580551000,7,-1,-8,-1,-5,-2,-9,-7
59580552535,-5,2,0,4,-6,25,1,5
59580552535,5,2,0,10,12,-20,15,12
59580564515,1,0,-8,4,-8,9,1,4
59580564515,-3,-5,2,6,-4,-4,-3,-1
59580573598,-5,-3,-2,1,-5,-4,-8,-11
59580573598,-3,-3,0,16,1,-8,-12,-3
59580588593,0,2,0,-13,-4,2,-1,-6
59580588593,2,10,-4,34,11,-1,4,6
59580590018,-1,0,-1,-12,-6,7,2,-6
59580590018,-1,-3,-9,-22,-12,-3,-12,-2
59580611173,0,-1,1,10,11,-5,-3,-1
59580611173,3,2,2,-27,-9,-7,0,1
59580612629,0,1,-1,21,7,11,4,-9
59580612629,1,-1,-1,-13,-14,-7,0,0
59580624694,1,0,-2,7,1,-19,-10,-4
59580624694,-6,-1,-3,-3,10,16,-3,4
59580633611,-1,2,1,14,-1,-12,-4,-8
59580633611,-3,-4,-7,-44,-13,1,8,4
59580656110,-2,-2,4,15,-2,8,1,10
59580656110,-1,-4,-1,-20,-4,-14,1,-3
59580657497,-1,-5,-9,-26,-9,-11,-1,-2
59580657497,1,0,-1,16,8,27,0,-8
59580671122,0,-1,-5,-13,1,-1,-2,-7
59580671122,-1,-2,7,12,-3,-8,1,4
59580672491,-2,14,3,30,5,-6,-10,-3
59580672491,0,-2,1,-6,0,0,-4,-6
59580684726,0,-1,-2,-18,-17,-14,9,3
59580684726,-1,-1,6,42,11,19,1,-13
59580694256,7,2,0,-14,15,4,19,19
59580694256,-1,0,3,25,-3,0,-13,-6
59580708677,-5,-4,5,-20,1,-2,-6,-7
59580708677,-1,0,-6,3,-9,-23,-6,-10
59580710049,1,-5,-1,-8,-15,7,-12,-7
59580710049,-6,-1,-2,30,14,19,15,11
59580731087,-3,-2,-2,-40,-15,-16,-13,-13
59580731087,12,3,0,14,9,1,11,10
59580732538,2,12,-10,-7,7,2,-11,-5
59580732538,7,-2,4,3,1,-3,12,15
59580744690,2,3,-2,24,0,6,2,-11
59580744690,5,-2,1,-23,-2,-2,1,9
59580753525,-2,3,8,4,0,-2,-5,-5
59580753525,5,2,-7,-19,-11,-12,-6,-10
59580768562,-11,-4,-4,4,6,13,-5,6
59580768562,2,4,2,-13,1,-16,-1,6
59580770062,-4,-10,-10,2,-11,2,1,0
59580770062,-10,-11,-7,-26,-7,-6,-8,-9
59580791101,10,1,-1,-34,-1,3,16,3
59580791101,-21,-13,1,22,-4,-2,-4,-13
59580792531,-5,-9,-9,-3,3,10,8,29
59580792531,7,3,6,8,10,-6,-1,-6
59580813661,-14,4,2,8,-8,19,-11,-14
59580813661,0,-9,3,-9,3,-18,2,-2
59580815079,-1,3,2,-6,-17,-12,-2,23
59580815079,-3,-6,2,3,10,25,10,-12
59580828571,-6,-6,-9,-6,1,-1,25,30
59580828571,14,8,-7,5,-11,-2,-21,-15
59580830081,-10,-9,-2,5,-1,-6,15,1
59580830081,4,7,2,-3,0,3,-11,2
59580850973,5,-3,-4,1,-3,-17,-2,-36
59580850973,-30,-16,-4,-11,9,13,28,40
59580852539,11,-3,1,-8,-1,0,-23,-9
59580852539,-16,2,0,4,-3,-11,-21,-31
59580873627,-19,-10,-2,3,6,5,-1,57
59580873627,-14,-5,2,2,-1,-13,-26,-29
59580875064,13,-5,8,2,3,4,9,18
59580875064,-14,-5,-3,9,-8,-2,-11,-19
59580888525,14,3,-2,0,-5,-11,-4,-6
59580888525,8,12,1,2,3,9,5,-32
59580890115,-3,-2,-1,-1,2,10,-6,-10
59580890115,2,3,-5,-7,-6,-21,26,8
59580911050,-8,-11,-3,7,1,-11,-19,-17
59580911050,-3,-1,-6,-5,-1,20,17,-35
59580912545,14,3,-6,-6,1,1,47,23
59580912545,20,6,7,-1,7,1,16,18
59580924582,9,5,4,2,-8,2,4,-1
59580924582,6,1,1,-7,-8,-13,-9,7
59580933610,-9,1,1,-4,6,-7,-11,-35
59580933610,-14,-8,-5,2,-3,27,5,18
59580948965,-4,-4,-7,0,-7,-40,-8,23
59580948965,1,7,-1,2,4,11,-8,-1
59580950456,-5,-1,2,4,7,16,-6,-21
59580950456,-6,4,-7,-18,-9,-3,-17,-17
59580971624,2,-3,-1,3,1,-6,-9,-31
59580971624,7,3,1,-4,-9,-9,13,49
59580973018,-6,3,5,3,-4,2,0,-19
59580973018,5,3,3,2,3,-19,-13,-9
59580984683,-29,-3,-7,-2,2,16,-11,-86
59580984683,39,0,-3,-5,-1,-1,54,72
59580993595,33,-12,-2,0,7,5,-1,60
59580993595,-32,-5,2,2,-3,3,-6,5
59581008373,6,1,1,-3,-6,-13,-1,-10
59581008373,-10,-10,-4,-2,1,7,-34,-12
59581010006,-13,9,-4,-7,-9,-24,-16,-31
59581010006,9,5,4,4,3,1,-8,-20
59581030957,11,0,1,-2,5,29,23,59
59581030957,-4,1,4,5,-5,-20,-10,-1
59581032516,-2,-1,-4,-5,-4,-11,-25,-25
59581032516,13,-7,-6,-6,-2,-13,-10,29
59581044611,11,1,-3,-9,1,7,8,43
59581044611,-10,1,-1,8,-2,2,1,-4
59581053598,-13,-6,-7,-6,-8,0,-1,11
59581053598,-11,-9,-4,-1,-5,-16,-14,-22
59581069210,2,2,4,6,13,25,19,2
59581069210,1,-14,-9,-8,-10,-9,-7,12
59581074887,-12,2,4,1,5,-13,-17,-6
59581074887,16,5,0,3,4,28,0,9
59581091121,0,4,3,7,-5,-23,-5,-19
59581091121,-6,11,2,-6,-1,-5,-8,5
59581092510,-10,3,5,7,-5,-25,-11,-5
59581092510,2,-3,7,-3,7,20,10,25
59581104658,-7,-1,0,1,-3,4,-6,-15
59581104658,-9,1,4,8,12,18,-7,-6
59581113607,17,0,-3,-5,-9,-11,-6,-6
59581113607,-4,4,-3,-1,-2,-13,-6,5
59581128540,2,-1,-3,-1,-9,6,-3,11
59581128540,3,0,0,-1,9,1,-5,-48
59581130041,-12,-2,3,2,1,5,1,-30
59581130041,-14,-5,-2,1,2,15,11,-35
59581151127,-3,-2,0,2,-3,-28,-21,0
59581151127,-6,-2,-3,-4,-5,8,-11,-6
59581152591,-12,-6,-3,-4,0,21,1,-50
59581152591,19,-6,-6,-2,-6,-26,-2,18
59581164723,-10,-2,4,-1,2,11,-8,3
59581164723,13,11,-3,0,-6,-18,6,32
59581173593,-10,-16,-2,0,1,4,-7,5
59581173593,-2,0,-3,-2,-1,5,36,-17
59581188553,10,0,-5,-1,-5,-11,2,14
59581188553,-9,-2,-1,-3,6,-2,-17,-44
59581190007,0,2,-3,-5,-7,19,31,103
59581190007,3,1,1,3,-5,-6,-13,2
59581211107,3,4,4,2,7,-24,2,-21
59581211107,-10,-2,1,0,-5,23,-6,-10
59581212505,-3,1,-4,-1,1,-14,-10,-7
59581212505,1,-2,-3,-4,0,2,-6,5
59581224804,1,-5,-9,-7,-9,-3,-6,47
59581224804,5,-5,-2,-1,-4,3,3,-3
59581233614,2,-2,0,-1,6,-11,12,-5
59581233614,13,2,1,2,3,-5,-5,7
59581248478,-13,-18,-1,-2,-3,2,-19,-41
59581248478,4,-9,-5,-1,-1,-4,10,23
59581250043,6,3,0,-4,1,20,-1,-14
59581250043,-3,1,0,2,3,-10,12,-5
59581271107,-3,2,7,0,1,-9,-6,-11
59581271107,-6,-4,-9,-6,-6,5,4,-14
59581272544,-5,-10,-1,2,-1,-1,8,-6
59581272544,6,1,-3,-5,-2,-4,-18,-8
59581284698,6,4,1,0,2,14,12,1
59581284698,-5,-4,0,-2,-5,-10,-16,13
59581293568,5,4,-2,1,4,1,9,-11
59581293568,-11,-4,-3,0,-14,-15,-20,-3
59581316127,2,-1,-5,-8,21,40,16,17
59581316127,-6,2,4,6,-11,-26,-8,-40
59581317558,-8,-1,1,-2,-3,-7,-7,-16
59581317558,-5,-5,-4,-8,-4,13,4,-1
59581330962,-1,1,-3,3,2,-6,5,-1
59581330962,-7,-6,-1,4,1,1,-5,-24
59581332572,4,-2,0,1,2,5,10,24
59581332572,-1,-1,3,1,-4,-5,4,1
59581353428,-5,-2,-4,-7,-9,-3,-5,-13
59581353428,-1,0,2,4,11,1,7,4
59581355011,-3,-2,-8,-19,-11,-16,-7,2
59581355011,-1,1,0,-22,2,9,1,-4
59581368450,-2,-1,-3,1,-3,-4,0,5
59581368450,6,-11,1,20,2,1,5,10
59581369998,-11,0,-8,-9,-6,-4,-8,-11
59581369998,-2,5,1,-7,0,-3,3,3
59581391455,1,-19,-1,-17,-6,-7,-1,-2
59581391455,-14,0,-2,8,-2,-1,-3,1
59581393036,7,2,-3,10,0,7,9,7
59581393036,-1,-1,0,3,5,-1,-2,0
59581413494,-7,4,1,15,-4,-5,-7,-6
59581413494,-5,-5,0,-25,-6,-16,1,-34
59581415096,3,-5,4,2,9,10,3,-3
59581415096,-21,-2,3,6,-7,4,4,1
59581427777,0,-7,-9,5,1,8,-2,-6
59581427777,-1,5,-4,-9,-1,-20,-3,4
59581434577,-4,5,8,17,5,5,-5,-2
59581434577,-3,-6,-4,17,-4,-5,1,20
59581450960,-3,3,-2,43,10,5,-3,-10
59581450960,-6,0,-4,-42,-16,6,1,13
59581452550,5,0,5,74,-6,-12,-11,-1
59581452550,-3,-1,0,29,12,8,8,10
59581473461,8,4,-3,-29,-10,-8,-1,-4
59581473461,-2,2,5,15,16,9,5,12
59581475001,6,-6,-2,-35,-5,-7,0,0
59581475001,7,1,-6,-18,-11,-2,-8,-6
59581487745,-11,4,2,-3,2,-4,-7,-1
59581487745,-5,-4,0,-3,1,12,3,3
59581494562,-1,2,4,20,1,-5,-4,-8
59581494562,7,0,-8,-41,0,-4,1,0
59581518478,2,-1,4,0,2,1,2,-16
59581518478,-2,-2,-8,-5,-4,16,0,7
59581519983,-2,3,-6,4,-5,-11,-4,0
59581519983,2,3,2,-2,-1,0,-2,-7
59581533381,4,2,3,20,-9,-3,2,-1
59581533381,-1,-1,-5,-10,0,-1,-3,0
59581534967,-6,-3,1,1,1,-2,3,-3
59581534967,-2,-2,-4,5,-5,-6,-3,-7
59581547032,2,2,3,-9,-1,-3,-6,3
59581547032,2,2,-6,3,2,1,5,5
59581556045,-4,-13,-5,-56,-6,-2,-4,4
59581556045,-5,-3,-1,2,-3,-8,-2,-2
59581570910,-5,0,-1,8,0,11,-4,-4
59581570910,5,5,3,2,4,-5,4,3
59581572506,-1,14,-3,6,3,-9,-10,-14
59581572506,-3,3,1,0,-4,-1,9,-6
59581593480,-10,-5,-3,10,-6,-12,-9,-18
59581593480,10,1,5,-9,-1,3,4,16
59581595011,3,0,-4,-9,10,22,4,-15
59581595011,3,-4,0,25,3,-1,-5,14
59581607207,-7,2,-1,-13,-8,1,-3,-3
59581607207,-5,6,-4,3,-6,-21,-7,-11
59581616006,2,0,-6,9,0,2,0,2
59581616006,-2,-3,-9,1,4,0,2,0
59581631140,13,1,0,-1,5,10,9,14
59581631140,-2,-3,2,1,-5,-6,-7,1
59581632582,-1,-1,3,-9,-2,-3,0,8
59581632582,0,4,2,-2,1,9,-1,19
59581653633,0,1,-2,-7,-4,-31,-20,21
59581653633,-2,-6,5,6,-3,7,5,-7
59581655121,-4,4,0,3,3,2,3,14
59581655121,-1,1,0,-11,-8,3,-1,-2
59581667261,-14,-12,-3,-6,-4,-6,2,5
59581667261,-1,-3,-2,17,15,2,1,-2
59581676066,-6,-3,-1,-4,-2,11,1,-3
59581676066,5,-7,3,-3,-2,-3,-2,-2
59581691147,-3,1,-16,-13,-5,-7,-2,-4
59581691147,-4,-6,0,2,-12,-13,-6,-1
59581692579,6,-2,2,-12,-4,4,1,-65
59581692579,-15,-10,-10,10,2,-3,6,25
59581720919,4,-9,-4,-17,13,22,4,-12
59581720919,1,1,-8,6,-3,-4,7,55
59581721685,-6,-4,-8,-6,-9,-19,-22,-16
59581721685,-4,-2,1,4,-9,-12,0,-20
59581743585,10,4,1,1,8,19,8,5
59581743585,2,-14,-3,3,-3,-10,-2,-10
59581744220,5,1,-2,-4,-3,4,0,6
59581744220,22,-3,0,20,3,-2,14,91
59581750190,-25,1,-1,-19,-10,-18,-5,25
59581750190,-3,2,-1,3,7,38,5,-25
59581750992,5,-3,-7,-6,-4,-23,-3,20
59581750992,-6,0,1,-6,-1,-6,-3,-68
59581772923,6,18,2,16,3,9,-3,-24
59581772923,-7,-1,-1,-9,-5,-8,-10,-32
59581773517,-14,-3,-7,4,-3,5,-3,19
59581773517,4,0,0,-5,1,-11,-11,-36
59581795229,-1,-1,2,5,1,7,10,0
59581795229,3,1,-1,-3,-2,-12,-9,-4
59581802957,2,-2,5,-18,5,1,7,-17
59581802957,-4,4,-2,-2,-5,9,-7,-17
59581818411,4,-2,0,7,-5,-17,1,-27
59581818411,5,2,1,-2,4,9,9,47
59581819276,1,-5,-5,11,-6,-8,-2,-5
59581819276,5,-2,-2,-10,4,2,-4,20
59581833011,-2,-4,0,-5,-4,-3,13,3
59581833011,0,-1,-1,0,3,13,-7,-24
59581833513,-6,-2,2,8,-4,-12,-1,12
59581833513,-7,-3,-3,-10,3,-1,-3,-12
59581855461,-8,-15,-1,4,-5,-16,-5,-56
59581855461,19,1,-2,1,2,-2,3,31
59581856080,0,2,2,-1,0,14,3,1
59581856080,-6,0,1,-9,-1,3,-3,-5
59581870477,3,-1,2,-1,1,3,-5,-8
59581870477,-8,-3,-2,5,-2,-10,-1,-12
59581871004,1,-2,-4,-16,1,14,-3,3
59581871004,9,3,6,10,-6,-21,-2,16
59581892928,8,5,0,10,3,-8,-4,25
59581892928,-4,-2,0,-15,-4,12,1,-14
59581893562,3,2,-4,3,4,6,7,18
59581893562,-8,-1,0,-2,1,5,-9,-19
59581915246,0,2,0,-3,-2,-11,-7,8
59581915246,4,1,0,-3,-2,-5,-2,-1
59581916001,-3,-2,-1,-3,-2,2,-4,-2
59581916001,-4,1,2,5,7,-2,-5,-13
59581930465,4,2,3,1,-4,-6,2,12
59581930465,-56,-36,-4,-2,-1,11,-8,-43
59581931034,-6,1,2,2,3,-5,2,-3
59581931034,2,5,0,-5,-4,7,-3,-15
59581952932,-8,-3,-2,-2,-1,7,-2,5
59581952932,11,6,-6,-3,-3,-8,-9,15
59581953539,0,-2,3,1,-5,-10,-6,0
59581953539,-21,-12,-7,-11,-1,9,5,4
59581975388,3,-1,0,4,5,-6,1,5
59581975388,12,12,-4,3,-5,-4,1,-10
59581976073,8,8,-3,1,2,-1,0,13
59581976073,39,14,1,-3,1,-5,3,9
59581990382,-9,3,2,-3,-6,15,0,-3
59581990382,-5,0,8,3,0,-13,-7,-29
59581991069,-12,-5,-13,-1,8,5,4,-3
59581991069,-6,2,-1,2,0,5,-1,-6
59582012794,4,2,-2,-7,1,-1,0,3
59582012794,-8,-3,-3,5,-7,2,-1,-2
59582014348,8,-4,4,-2,-4,-12,-7,1
59582014348,-3,-2,0,4,4,-10,-2,-6
59582035456,-5,-7,-2,-3,-2,12,-6,-34
59582035456,12,6,-2,-10,-2,-2,5,-1
59582036085,-5,-1,2,1,-1,3,0,-2
59582036085,-9,-7,-4,-2,-1,8,1,9
59582050443,0,1,-4,-2,-8,-24,-4,9
59582050443,10,1,-3,2,3,18,3,10
59582051007,-12,-4,2,-3,4,-5,0,-2
59582051007,-6,-3,0,6,-3,-1,-2,-18
59582072977,9,-6,-3,-2,0,8,4,17
59582072977,-3,3,-1,-9,-2,-7,1,5
59582073551,1,-3,0,0,-3,-10,-5,0
59582073551,-1,-13,-5,4,-1,13,-1,-18
59582095318,3,4,0,0,1,-9,0,5
59582095318,-6,-3,-4,-5,1,-6,-4,-32
59582096024,2,0,1,2,-5,0,2,28
59582096024,-8,-10,1,-5,-2,-2,-1,-5
59582110444,1,-2,-2,-4,4,9,2,32
59582110444,20,4,6,10,3,-2,0,-11
59582111131,1,-5,-3,-2,-2,-6,-2,-7
59582111131,-3,1,-3,-2,-3,-13,-2,5
59582134224,-2,4,-1,1,3,15,-1,2
59582134224,0,1,0,-5,-3,-6,-1,20
59582134978,-1,3,1,3,-1,8,1,-6
59582134978,2,1,0,-3,-5,-4,-1,15
59582155463,-5,-1,-4,-10,-1,-4,-4,-16
59582155463,-2,1,1,-2,2,1,-1,6
59582156013,4,-4,-3,1,-2,-1,0,-7
59582156013,-8,-1,-3,-5,-6,3,-7,-28
59582170139,13,9,2,-7,1,-16,-2,-14
59582170139,0,2,1,7,-1,6,2,6
59582170911,11,-5,-2,-2,0,-3,-4,8
59582170911,6,8,-1,3,1,4,3,0
59582192987,-8,-1,1,4,-2,4,-2,-2
59582192987,-6,-2,0,-1,0,-6,-1,8
59582193561,1,2,-1,-4,1,-1,-3,-13
59582193561,8,0,0,-2,-2,-4,-2,29
59582215228,10,7,3,2,0,3,1,-1
59582215228,-10,-28,-3,1,-1,-7,-2,5
59582216011,-7,0,0,2,0,4,2,-8
59582216011,5,3,-1,-3,-1,-6,0,6
59582230233,-9,-8,-2,4,-4,-1,2,5
59582230233,-1,4,0,-1,-2,0,-6,-1
59582230975,-2,2,1,7,-4,-9,-5,-3
59582230975,-9,-7,-2,-5,2,3,1,0
59582252879,-7,-27,-2,-4,1,2,-1,-3
59582252879,1,3,1,4,1,-4,0,3
59582253516,-8,0,-2,-28,-11,-4,-2,-4
59582253516,12,11,1,3,1,-4,4,-4
59582275248,-18,-3,-1,2,-2,4,-3,-4
59582275248,-3,2,-6,-2,-2,-5,-4,0
59582276049,-1,0,1,4,-1,-2,0,1
59582276049,-4,-2,1,1,-2,-1,0,-6
59582290433,-5,6,-1,1,-1,1,0,3
59582290433,-1,0,-1,-1,-3,-1,1,-1
59582291019,5,1,2,17,3,1,0,-4
59582291019,1,4,4,-21,-7,0,0,-3
59582312944,4,0,-2,-7,-2,-4,0,0
59582312944,1,-18,-4,4,-3,-2,0,8
59582313540,-7,0,0,5,3,2,1,-2
59582313540,-8,-5,-1,-9,-1,-3,-4,2
59582335453,0,-2,-2,13,0,-1,-2,3
59582335453,4,11,2,-25,2,1,1,3
59582336004,-4,-21,-9,28,-8,-2,-3,2
59582336004,-10,-4,-3,4,-1,-4,-2,-21
59582351744,2,5,1,0,0,-2,0,1
59582351744,0,-1,2,-4,2,1,-3,-2
59582352626,8,3,-1,-7,0,-1,-2,-4
59582352626,-4,0,-1,3,-1,-1,-1,0
59582372925,-3,-7,-3,10,1,-1,-2,0
59582372925,-5,4,-5,-9,-5,-3,0,-2
59582373479,0,2,1,-12,1,1,0,4
59582373479,-1,0,-3,3,-4,-1,-1,5
59582395273,1,0,4,2,1,3,1,-3
59582395273,0,0,0,19,2,-1,-2,8
59582396007,-4,1,-2,-41,-9,-1,-1,-2
59582396007,-7,-5,0,5,4,-1,-1,2
59582410447,5,-1,0,-13,-2,-3,-1,-7
59582410447,-1,0,-2,14,0,0,-2,-1
59582410965,-5,1,1,-10,0,-1,1,0
59582410965,8,3,0,15,4,-3,0,1
59582432648,2,-1,-4,-22,-6,-2,-3,2
59582432648,3,6,3,8,0,0,0,-5
59582440479,-6,-1,-4,-19,0,-1,0,1
59582440479,1,-2,-1,1,-2,0,-2,-1
59582455459,-3,-1,-3,4,-1,1,-1,-1
59582455459,-4,6,-1,5,-1,-1,-1,-5
59582456061,2,-11,0,0,2,-1,1,-3
59582456061,-1,-1,1,4,0,0,-3,1
59582470379,-2,-1,0,-4,-3,-4,-1,1
59582470379,-17,-5,-2,-9,-1,-1,-3,-4
59582471001,-4,6,-1,10,1,-1,-3,5
59582471001,-4,-10,-3,-10,-2,-1,-3,-6
59582492857,3,0,-4,-1,-3,-1,1,2
59582492857,2,-5,-2,-8,-2,-2,-1,-2
59582493535,-6,1,0,1,2,-1,1,-1
59582493535,10,-8,0,5,-3,-2,0,19
59582515223,-10,3,-2,-4,-1,0,-1,-16
59582515223,3,1,-2,-12,-2,-2,-1,-1
59582516067,1,-2,-1,8,-2,0,-1,-1
59582516067,11,17,0,1,-3,0,-2,2
59582530410,-14,1,1,10,2,-1,-1,-8
59582530410,2,-2,-2,6,1,-1,1,1
59582531068,3,3,0,1,0,-3,-1,-3
59582531068,-4,2,-3,3,-2,-3,-2,-5
59582552979,1,-10,-1,-11,-2,-2,-2,10
59582552979,13,5,1,2,0,1,1,5
59582553511,-6,4,-3,6,-2,-2,-3,-2
59582553511,2,-3,-2,-9,-1,1,1,20
59582575454,0,-11,-1,9,1,-1,0,-12
59582575454,9,10,-2,-9,-2,-3,-1,0
59582576062,-21,-17,-1,0,0,-1,-2,-11
59582576062,11,2,2,-5,-1,-1,-1,0
59582590206,-3,12,0,-2,0,1,-3,-5
59582590206,-4,-1,-2,-3,-3,0,-2,-1
59582590981,15,19,2,1,1,-1,0,15
59582590981,-22,-3,-1,1,0,-1,-1,-27
59582612663,7,3,1,-4,-1,1,3,39
59582612663,30,-11,1,2,-2,-1,-3,-30
59582613477,-17,0,-2,1,-2,-1,-1,2
59582613477,3,3,0,-7,-3,-1,-3,-8
59582643443,10,-10,-4,0,0,-2,-2,13
59582643443,-22,-7,-1,-3,-2,0,-5,-35
59582644111,10,-6,0,1,0,-1,4,5
59582644111,0,-2,-4,-4,-3,-1,2,10
59582650154,-3,9,-2,-1,-1,-1,-2,-20
59582650154,-1,-10,-6,-1,-3,-2,-3,39
59582651000,10,6,1,-3,-3,0,-3,-8
59582651000,5,-3,-1,-3,-2,-4,-2,-3
59582672662,-1,7,-1,4,0,-2,-2,-3
59582672662,-14,-2,-2,-1,0,0,0,-2
59582673458,8,-2,-1,-1,-2,0,-3,3
59582673458,-2,3,1,0,1,0,0,2
59582695746,-1,-6,-2,-3,-1,-2,1,-1
59582695746,-2,1,-1,0,-2,0,0,-2
59582702895,-19,-1,0,0,-2,-1,0,-6
59582702895,-13,-18,-4,-4,1,-1,-2,-11
59582710247,14,0,-3,-3,-3,0,-3,19
59582710247,0,9,-1,1,1,0,-2,4
59582711034,4,7,-1,0,-2,-1,-3,-3
59582711034,9,-4,-4,-1,-3,0,-3,8
59582732892,-11,-23,-2,0,-1,0,0,-8
59582732892,1,-1,2,-2,-3,-1,1,31
59582733510,5,-1,-3,-2,1,-1,-1,9
59582733510,-15,-16,-1,-1,0,-3,-3,-13
59582755495,3,6,0,0,-3,-1,-2,-9
59582755495,-6,1,-2,-2,0,0,-1,-7
59582756070,-18,-20,-3,0,1,-2,-2,-10
59582756070,-1,-6,3,-1,1,-1,1,7
59582770404,3,7,3,0,1,0,-1,-7
59582770404,-17,-8,-5,-1,-2,-1,-3,-10
59582771049,2,2,-1,-3,0,0,1,0
59582771049,2,23,2,0,-1,-1,-1,-5
59582792934,2,-3,-1,1,-1,0,-1,-1
59582792934,-22,-18,-3,-3,-2,-3,-2,-5
59582793514,9,2,2,0,-1,-1,-2,-4
59582793514,-1,0,-3,0,-2,-1,-2,-19
59582815247,-7,-4,-1,-1,-1,0,0,-4
59582815247,3,5,-2,-2,0,-1,-1,2
59582816015,0,-4,-3,0,-1,1,0,-6
59582816015,0,2,0,-3,-1,-1,1,1
59582829811,-2,2,-2,0,-2,0,-3,-10
59582829811,13,-3,1,0,-2,-3,-1,4
59582854380,5,5,-2,-1,-1,-1,-1,-1
59582854380,-5,-5,0,1,-2,0,-2,-5
59582855689,1,1,1,-1,0,-1,-1,2
59582855689,27,32,-1,-1,-1,-1,1,9
59582856519,-8,-8,-1,-1,1,0,-3,-9
59582856519,1,2,-3,-3,-1,0,-1,5
59582875418,2,5,-1,-3,-2,-3,-4,-14
59582875418,-5,-1,0,0,1,-2,-1,-3
59582876033,-5,3,1,-2,0,-1,1,-19
59582876033,1,8,0,-2,-2,-2,-1,-3
59582889807,-11,-12,-3,0,-2,1,-1,2
59582889807,-6,-8,1,-1,-3,1,-2,-5
59582897913,9,-3,-2,-1,1,1,-2,8
59582897913,-9,-9,-2,-1,2,2,-3,11
59582912827,-2,2,0,0,0,0,1,7
59582912827,8,4,0,0,-1,-1,0,-2
59582913615,9,-1,-2,2,0,-2,0,4
59582913615,-1,0,0,-3,-2,-3,-1,-14
59582936001,0,0,1,-2,-3,-1,-1,1
59582936001,0,-29,-4,-4,-1,0,-1,-5
59582936677,0,1,0,-4,-3,-2,0,16
59582936677,0,0,0,1,-1,-1,-1,1
59582949775,-3,4,0,0,1,-1,0,-3
59582949775,0,2,-1,-2,-1,-1,0,-4
59582958026,0,12,-5,0,-1,-2,-2,-2
59582958026,-7,-10,-2,-1,-2,1,-2,0
59582972784,-4,-6,0,-1,-3,-1,-2,0
59582972784,-3,4,-3,-1,-2,0,-2,13
59582973505,-6,-3,0,-1,-2,0,-3,-2
59582973505,3,6,-2,0,1,-1,0,4
59582996121,7,6,-3,1,0,-2,-1,-2
59582996121,-8,-3,0,-2,-1,-1,-3,-6
59582996720,12,-8,-5,-3,-3,-2,-3,-3
59582996720,-2,-2,0,0,1,-1,1,-3
59583009508,10,-13,0,0,1,-1,0,3
59583009508,7,8,-1,1,1,-2,1,-6
59583017745,0,-9,-3,-2,-4,-2,-3,2
59583017745,1,-1,-1,-1,-1,-1,-3,-1
59583032767,-6,-3,-2,-3,0,-2,-2,-3
59583032767,-7,0,2,0,-2,0,0,-1
59583033481,-2,-4,-2,0,1,-2,-3,-5
59583033481,6,1,-1,0,0,-3,-1,5
59583056045,12,16,2,-1,-2,2,2,6
59583056045,-12,-2,1,3,0,3,0,-23
59583056652,-6,0,-1,-3,-3,1,-3,-3
59583056652,-5,-6,1,0,-3,-17,-2,24
59583069799,2,11,1,-2,-2,0,-3,0
59583069799,2,0,1,0,0,-1,2,3
59583078028,-7,-6,2,0,0,3,0,-9
59583078028,-6,-1,-1,0,-1,3,-1,-6
59583092901,-11,-2,-3,2,0,-3,-2,-4
59583092901,10,7,-1,-2,-2,-2,-1,8
59583093602,2,1,1,1,0,0,-2,2
59583093602,2,3,-2,-3,-2,2,1,-2
59583116093,-14,-11,-1,-1,0,-2,0,-3
59583116093,-9,-6,-1,-1,-1,1,-2,-4
59583116698,3,-4,-3,-1,0,-3,1,3
59583116698,0,1,0,-1,-1,1,-2,-7
59583129579,3,-5,-1,-1,-2,0,-2,-15
59583129579,8,14,-1,-1,0,-3,-2,-1
59583137783,-11,-12,-1,-2,0,-2,-1,10
59583137783,3,2,0,-1,-2,3,1,-10
59583152945,-7,-4,-2,-1,-1,0,0,2
59583152945,4,-4,-2,0,-2,-2,-2,-4
59583153576,0,4,-1,-2,-1,-2,3,4
59583153576,-2,0,-3,3,2,2,-1,-4
59583176105,-10,-9,-4,-5,-3,-2,-2,1
59583176105,-6,-5,-2,0,0,-2,-1,0
59583176708,4,1,-1,-3,-2,1,0,-4
59583176708,-1,-6,-2,-2,-1,-4,-2,1
59583198561,2,3,-2,-2,-1,-3,-1,-6
59583198561,-13,-5,0,-2,2,0,2,2
59583199199,0,2,2,2,-2,-2,0,-2
59583199199,-1,-3,-5,-3,-2,-2,-1,-4
59583212684,-7,-7,-2,0,-2,0,-1,-2
59583212684,-8,-2,-1,-3,-3,0,-2,-4
59583213454,5,0,-1,0,-2,-1,-1,6
59583213454,-3,5,-3,-2,0,1,1,-3
59583235964,12,4,0,-1,-2,0,0,6
59583235964,0,5,-1,0,-2,-2,-3,-1
59583236717,-3,-1,-1,-1,2,-1,-2,-1
59583236717,4,10,6,1,0,1,1,3
59583258458,-11,1,-4,-3,0,-3,0,-8
59583258458,-20,-22,-3,-1,-2,-2,0,0
59583259218,-2,11,2,1,-2,0,-1,-6
59583259218,-5,-5,-2,-3,-2,0,-2,-2
59583272893,6,6,0,0,0,-1,1,2
59583272893,3,-3,-2,-2,-2,-1,-1,3
59583273480,-18,-8,-4,-4,-2,-5,-1,-2
59583273480,-5,-25,-5,-3,-4,-1,-4,-4
59583296104,-1,0,-1,0,-2,0,-3,-2
59583296104,6,2,-2,-1,-1,-1,-2,5
59583296691,-3,-3,-2,2,0,-1,-3,-3
59583296691,4,4,2,-1,-1,-2,1,-11
59583318419,-2,-4,0,-1,-2,-2,-1,5
59583318419,1,-1,-2,2,1,-2,-1,-5
59583319207,-3,-5,-4,-5,-2,-1,-4,-3
59583319207,1,-1,0,0,0,-2,-2,1
59583332943,-11,3,0,1,0,0,-1,-11
59583332943,1,-1,2,0,-1,-1,-2,5
59583333513,2,1,2,0,-1,-2,0,-4
59583333513,6,2,-3,-1,-1,0,-1,12
59583355934,-19,-4,1,-1,0,0,0,-28
59583355934,2,-5,0,-3,-1,-1,-2,5
59583356733,0,-8,-3,-3,-2,-2,0,-4
59583356733,-3,1,-3,-1,-1,-2,-4,-3
59583378529,6,0,0,1,-1,-1,-2,9
59583378529,3,7,-1,-1,-1,1,-1,-2
59583379201,-1,7,1,0,-1,0,-1,-8
59583379201,-7,-3,-2,-3,-2,-2,-1,-1
59583392927,-2,-7,-1,-3,-1,-3,-2,3
59583392927,8,14,1,0,1,-3,-2,-2
59583393552,-8,-8,0,-3,-3,-1,-1,0
59583393552,3,4,1,1,-1,0,-2,-4
59583416067,14,0,-5,-3,-2,-3,-1,20
59583416067,-9,-3,0,-1,-3,1,0,-7
59583416693,7,1,1,1,-1,-2,-2,1
59583416693,-6,-2,-1,-3,-2,-2,-1,-4
59583438598,-3,-21,0,-1,-2,-2,-2,5
59583438598,-2,-6,-4,-1,-1,-3,-1,-4
59583439180,3,0,-1,0,0,1,0,-1
59583439180,3,6,2,0,-2,-2,-1,2
59583460933,3,2,0,1,0,-1,-2,2
59583460933,-1,-3,-2,-2,0,0,-2,-3
59583461668,-2,1,-1,-1,0,-1,-1,0
59583461668,-2,-4,-2,1,2,0,-1,0
59583476060,3,2,0,-2,-1,-1,-1,-2
59583476060,-2,-7,0,-1,-2,-2,1,1
59583476671,5,7,-1,-1,0,2,-2,-3
59583476671,0,-3,-1,0,-1,-1,0,18
59583498436,-3,1,-1,-2,-3,0,0,-20
59583498436,0,3,1,-3,-1,-2,-2,-1
59583499174,-5,-4,-2,-1,-2,-2,-1,0
59583499174,5,2,2,-2,-3,-3,1,-11
59583512981,-10,4,-3,2,1,-2,-2,2
59583512981,-2,-9,-2,-2,-1,-2,-2,-1
59583513550,8,0,-2,1,1,-2,-3,8
59583513550,-6,0,-2,1,1,1,0,-13
59583536137,5,1,-2,-2,-2,0,0,4
59583536137,-1,4,-1,0,0,0,-3,-4
59583536668,0,-2,-3,-1,-2,0,0,-2
59583536668,-6,-5,-2,-4,-2,-2,-1,4
59583558439,3,-1,0,0,-2,0,0,-1
59583558439,1,-3,-2,-2,-2,-1,-1,1
59583559168,1,3,2,1,0,0,-1,-5
59583559168,-6,-2,-3,-1,-1,0,-1,-3
59583572837,-2,1,-1,-2,-1,1,-1,-27
59583572837,2,-5,-2,-1,-1,-3,0,19
59583573513,-7,-3,-1,2,1,-1,-2,-6
59583573513,-5,-4,-1,-1,-1,-1,-2,-2
59583595934,-2,-16,0,1,1,-2,-1,-1
59583595934,0,-1,-3,-1,-3,-1,1,-5
59583596696,-4,2,-1,-2,-2,-3,-1,0
59583596696,14,-6,-1,0,1,-1,0,10
59583618419,-5,4,1,2,-1,1,0,2
59583618419,-1,0,-2,-1,-1,-2,-2,-3
59583619189,1,11,1,-2,-1,-3,-1,-1
59583619189,-1,-5,-1,-1,-1,0,0,-4
59583632667,-3,-3,-4,-2,-1,-1,-2,6
59583632667,-1,2,0,-1,1,-2,1,-6
59583633505,1,4,1,-2,0,0,0,1
59583633505,-1,-1,-4,0,-1,-1,-2,7
59583663455,2,3,0,-1,-2,-3,-1,17
59583663455,-6,-4,-4,-2,-2,-1,0,-11
59583664162,6,-5,-4,-1,-1,-3,-1,-3
59583664162,-10,-18,-2,-4,-3,-1,0,-4
59583677507,6,-4,-1,-3,-2,0,1,6
59583677507,-3,5,0,0,-2,1,-3,-1
59583685210,-2,-3,-1,-2,-2,0,-1,-1
59583685210,-1,6,-2,-1,-1,0,-2,-4
59583692732,16,8,1,1,-1,-3,-1,3
59583692732,-2,-4,-1,-1,-2,0,-1,-5
59583693466,1,-3,-1,-3,-1,-1,0,11
59583693466,-11,-1,-7,-1,-3,-2,-5,3
59583715920,0,4,-1,-2,0,0,0,-15
59583715920,4,3,0,0,-1,0,0,0
59583716640,-5,-4,0,-1,-1,-1,-2,1
59583716640,1,2,3,0,0,-1,-1,-3
59583738482,-3,3,-1,-3,-2,-1,0,3
59583738482,-3,-1,0,0,-1,-2,-2,-1
59583739988,-1,-1,-1,-3,-2,0,-1,-2
59583739988,4,4,-3,0,-1,-2,-1,-8
59583752634,-8,-2,-2,-2,-1,-1,-1,-1
59583752634,2,0,1,0,1,0,-2,1
59583753421,-1,1,-1,1,0,-3,2,3
59583753421,-5,1,0,-1,-3,-2,-1,-4
59583775847,-2,1,1,2,0,-1,-2,2
59583775847,-1,-4,-3,-1,-2,-2,-1,-1
59583776738,-5,-2,-2,0,0,0,-1,-5
59583776738,3,7,2,-1,1,-3,-1,-1
59583798417,10,-1,-3,-2,-2,0,-3,-2
59583798417,-2,-4,-1,0,1,0,-1,1
59583799139,4,1,0,-1,-3,-1,-2,3
59583799139,11,-2,-1,-1,-2,1,2,14
59583812015,1,-2,2,1,0,-1,-1,6
59583812015,7,5,-2,-2,-1,-1,-1,-1
59583820234,-34,-33,-3,-5,-2,0,-2,3
59583820234,-4,-3,-2,-2,-1,0,-2,-7
59583835879,-3,9,-2,-1,-2,-4,-2,-4
59583835879,5,6,1,-1,0,-1,0,2
59583836642,5,2,-4,-5,-1,-1,0,-5
59583836642,-3,-2,2,-2,-2,0,-1,-4
59583858416,-7,-2,-1,-1,2,2,0,-3
59583858416,-9,-7,-5,-2,-2,-2,-2,-3
59583859101,9,2,0,1,0,-1,-3,-6
59583859101,-6,1,-2,-1,-1,-1,-1,4
59583872079,1,2,2,-1,-2,0,0,-1
59583872079,-1,-4,-1,-2,-1,-2,-1,2
59583881059,-4,1,0,0,-2,-3,-2,-4
59583881059,4,6,1,3,0,-2,-1,1
59583895955,-3,-4,2,-1,0,-1,-2,-1
59583895955,-8,-4,-1,-4,-1,0,0,-1
59583897591,2,1,1,1,-1,-1,0,-3
59583897591,-4,1,0,2,0,-2,-2,-8
59583918400,-3,-3,1,-1,-2,-1,-1,1
59583918400,-2,-1,0,0,-1,-2,-4,-1
59583919925,6,6,1,-2,-3,-1,1,-2
59583919925,-7,-2,-1,0,0,0,0,-19
59583932038,-3,-3,-3,0,-2,-1,-1,-9
59583932038,0,2,-2,-1,-3,0,-2,1
59583941074,-1,-1,-1,-1,0,-1,1,-2
59583941074,1,-1,0,-3,0,0,-2,6
59583955824,6,-14,-2,-1,0,0,0,6
59583955824,-8,-1,4,1,0,-3,1,-10
59583957403,4,0,-4,-2,-1,-1,-3,16
59583957403,-8,-2,2,-1,0,-2,-1,-20
59583978630,5,10,0,-1,-3,0,-2,0
59583978630,7,-14,-4,-3,-4,-1,-5,2
59583980047,2,11,4,1,1,0,1,-7
59583980047,2,2,-1,-1,-1,-2,-2,8
59583992038,-5,1,-4,1,-1,-2,-2,-3
59583992038,-15,-5,-2,-2,-3,-1,1,9
59584001092,-1,4,0,-4,-3,-2,-2,-4
59584001092,0,-9,-2,-1,0,1,-4,1
59584015910,6,-4,0,-1,-2,-1,0,3
59584015910,5,1,-1,-2,0,-1,0,-2
59584017559,-5,-22,-3,-3,0,-2,-1,1
59584017559,1,-3,-1,-3,-2,0,-2,7
59584038601,-5,-3,0,-2,-1,-1,-3,0
59584038601,-1,5,3,1,2,0,0,-20
59584040025,1,2,-2,-1,-4,0,-3,-3
59584040025,0,0,-1,-2,-1,-3,-1,-2
59584052145,-5,-5,-1,-2,1,-1,-2,-1
59584052145,5,2,-1,0,0,-2,0,4
59584061062,-5,-2,-1,1,-2,-2,-2,-7
59584061062,1,0,-1,-2,-1,-1,-2,-2
59584090883,-4,4,-1,-1,-2,0,0,2
59584090883,-5,6,1,-2,1,-1,-1,-8
59584092454,-1,3,-1,1,0,1,-2,-6
59584092454,1,-3,-1,1,-2,-1,-1,9
59584098382,-4,1,-2,-2,-2,-2,-1,-1
59584098382,1,-3,-1,0,1,-1,-3,2
59584099991,1,8,-1,-2,-1,0,0,-3
59584099991,-6,6,1,-1,0,-2,-1,-5
59584112280,-11,-6,-2,0,-2,-2,-3,-8
59584112280,1,-5,0,1,-2,-1,-2,1
59584121074,7,14,-2,-3,-1,-1,-1,-1
59584121074,-2,-5,1,1,-1,-1,-1,3
59584135954,4,2,-2,-3,-1,0,0,2
59584135954,6,3,-1,2,-1,2,0,4
59584137454,10,6,3,2,0,-1,-1,6
59584137454,-1,-3,-2,-5,-3,-2,-3,-4
59584157698,0,-1,0,0,1,0,-1,-5
59584157698,-1,1,-3,-2,-2,-1,-2,0
59584166059,0,-11,-2,-2,0,0,-3,3
59584166059,-3,-3,-2,-1,0,1,-1,-1
59584180969,0,0,-1,-1,-2,-1,0,-1
59584180969,-2,-4,-1,-2,0,-2,0,1
59584182591,-6,-5,-1,0,-1,-2,-2,-3
59584182591,-2,-4,-1,1,-3,-1,-2,-1
59584196049,1,-1,-2,-1,-1,-2,-2,0
59584196049,1,0,0,-3,-3,-1,-2,-1
59584197526,-5,-4,-3,-1,-1,-3,1,-1
59584197526,2,0,0,-1,1,-2,0,-2
59584218354,0,-2,-3,-2,1,-2,-1,-4
59584218354,-5,-3,-1,-1,-1,-1,-2,-1
59584219989,-1,-5,-1,0,0,0,1,-3
59584219989,-1,2,-2,1,-2,-2,0,0
59584240818,2,6,-2,-1,1,0,0,1
59584240818,1,15,-1,-2,-1,-2,-1,-1
59584242479,4,0,-1,-2,-2,0,1,17
59584242479,-2,4,1,-1,0,2,0,-13
59584255881,-5,-4,0,0,0,0,-1,0
59584255881,5,0,-1,0,-1,0,-3,1
59584257489,-4,0,0,0,-1,-1,-2,-6
59584257489,0,-4,-2,-1,-3,0,2,-3
59584277712,4,-1,-1,0,-1,-2,-2,0
59584277712,-5,-8,-2,-1,1,-2,0,1
59584293557,-11,-7,-6,-3,-2,-3,-3,-8
59584293557,-13,-2,-3,0,-2,-1,-1,-7
59584301105,-1,-3,-2,-1,-1,-1,-1,-2
59584301105,-3,-5,2,0,-1,-2,0,-3
59584302545,2,-2,-3,-5,-2,1,0,-3
59584302545,6,3,-3,-4,-2,-2,-1,5
59584315240,-5,-2,0,0,-3,0,-4,2
59584315240,7,-7,-3,0,-2,0,-2,16
59584322313,-7,-1,3,1,0,1,-2,-11
59584322313,2,-1,-1,-2,1,-2,-1,5
59584338642,0,-2,-3,-2,-2,-2,-2,-3
59584338642,3,4,-1,-1,-1,-2,0,2
59584340009,1,-1,0,0,-1,-1,-2,1
59584340009,0,-6,-1,0,-1,-2,-1,3
59584361147,-6,-1,-2,-3,-1,-1,0,-2
59584361147,-4,0,-1,-2,-1,0,0,-8
59584362514,1,-3,-2,-1,-2,-2,-1,-1
59584362514,-2,0,0,1,-1,-1,-1,6
59584383589,1,2,-2,-2,-3,-2,-1,-4
59584383589,-3,-2,-3,-1,-2,-1,-1,-3
59584384996,-4,-1,2,-2,-1,-1,-1,1
59584384996,5,-2,-2,-1,-1,0,0,4
59584398424,-2,1,-1,0,-2,0,-3,-2
59584398424,-2,-1,-4,-3,-1,-2,-3,-3
59584400014,-8,2,-2,0,-1,-2,-2,-10
59584400014,-1,0,-1,-2,-1,-2,-2,-1
59584420916,-12,12,1,0,0,-1,-1,-6
59584420916,-10,-1,2,1,2,-1,-1,-9
59584422562,-11,-3,-8,-6,-3,-4,-2,2
59584422562,-1,-3,0,-3,-2,-2,-1,-4
59584435244,6,0,1,0,0,-1,2,1
59584435244,4,9,2,0,-1,-1,-1,5
59584442284,-2,-1,-1,1,-3,-2,-2,2
59584442284,-2,-4,-2,-2,-2,0,-1,-7
59584458570,1,-4,-2,0,-2,-2,-2,-2
59584458570,-3,-3,-2,-2,-2,-1,0,0
59584460054,10,2,-3,-1,-1,-1,-3,0
59584460054,-4,-4,-2,-2,0,-1,-1,-2
59584481184,5,-1,-1,1,1,1,0,2
59584481184,8,-2,-1,-4,-3,-1,-1,13
59584482586,-1,0,2,2,1,1,2,-10
59584482586,0,1,-3,-1,-3,-1,-2,3
59584495262,-4,-8,-5,-3,1,-1,-3,-3
59584495262,1,-4,-2,-2,-2,-1,-2,1
