timestamp,emg1,emg2,emg3,emg4,emg5,emg6,emg7,emg8
117354452377,0,-1,-2,2,0,-1,-2,0
117354452377,-1,-1,-2,2,-1,-1,-1,-1
117354453237,0,-2,-2,-3,-1,-1,-2,-3
117354453237,-1,-1,-1,1,1,-2,-1,0
117354454083,-1,-1,-1,2,-1,-1,0,-2
117354454083,-3,-2,0,-2,-1,0,-1,-1
117354457455,-1,1,0,2,-1,0,-4,-2
117354457455,8,-1,-1,-3,-2,-2,-2,7
117354464029,1,-2,0,8,0,-2,0,-2
117354464029,-1,-2,-1,-1,-1,-1,-2,-3
117354472714,-4,-6,-2,-2,-1,0,2,1
117354472714,-3,0,-1,1,-1,1,1,-5
117354480541,-4,-2,-1,-4,0,0,0,-3
117354480541,-1,0,0,1,-1,-1,-4,1
117354493973,-2,-3,-2,-9,-1,0,-1,-2
117354493973,-1,0,-3,-2,-1,-1,-2,-2
117354505397,0,0,-2,-7,-2,0,-2,2
117354505397,0,-2,-2,-2,-1,-2,-1,-3
117354509059,2,0,-1,0,0,-1,-1,-1
117354509059,-3,-1,-1,-3,-1,0,0,-3
117354524152,-2,-1,0,-3,1,1,-3,-3
117354524152,-1,1,-3,-1,-2,-1,-1,-1
117354570754,-1,-1,-1,-1,-1,0,-1,0
117354570754,-1,0,-1,-1,-2,-1,0,-1
117354571527,-1,-1,0,5,0,-1,-1,0
117354571527,-2,0,-2,-19,-3,-2,-2,-4
117354572370,-1,0,-1,-1,1,-2,-1,1
117354572370,-1,-1,-2,3,-2,-2,-2,-1
117354573134,0,-1,-1,-4,0,2,1,0
117354573134,-2,-3,-2,2,-3,0,0,-2
117354585243,-1,-2,-3,-2,-3,0,-1,-2
117354585243,1,-3,-1,0,-1,-2,-1,0
117354591208,0,-1,-1,0,0,-1,0,-2
117354591208,0,-2,-1,2,0,-1,-2,0
117354600202,-2,-1,-1,-4,-2,-1,-2,-2
117354600202,-1,0,2,4,0,-1,-1,-1
117354613734,0,1,-1,-5,-1,-1,0,0
117354613734,-2,-2,-4,1,-2,-1,-1,-2
117354622735,-1,0,-1,10,5,0,0,0
117354622735,-2,-2,-4,1,-9,-1,-2,-3
117354628755,-1,-2,-2,-7,0,-1,-3,-1
117354628755,0,0,1,7,0,2,-2,0
117354643728,0,-1,-2,-18,-4,-5,-2,-4
117354643728,-3,-1,-2,0,0,-7,-4,-1
117354660211,-1,-1,-1,5,2,-1,-2,-3
117354660211,0,-1,4,30,5,1,3,0
117354661714,-1,-2,-6,-70,-8,0,-2,-1
117354661714,-2,-1,1,30,-7,-2,-2,-1
117354673725,-2,-2,-4,-49,-7,-10,-1,-3
117354673725,-2,-1,-2,33,-5,3,-4,-3
117354682901,0,0,3,22,6,1,1,1
117354682901,1,0,-1,-28,-2,5,0,1
117354688822,0,0,1,23,-3,-2,-1,0
117354688822,2,2,2,-2,15,6,1,3
117354703863,-1,-3,-5,-3,-11,-3,0,-3
117354703863,2,-1,0,9,-6,-5,-1,0
117354711389,-3,-2,-1,7,5,6,1,-2
117354711389,0,-1,-2,-20,0,-8,-3,-1
117354720256,-1,-1,1,16,1,-14,-12,-1
117354720256,-3,-3,-5,-21,-10,3,6,1
117354734036,-2,0,0,7,1,-1,4,0
117354734036,-1,0,-3,-21,2,2,-1,-1
117354742788,-1,-1,0,23,11,16,4,3
117354742788,-1,0,1,-6,4,-7,-3,-3
117354748935,-2,-3,-1,5,-5,-3,-14,-4
117354748935,-4,-4,-1,14,-6,-16,4,-2
117354763978,-4,0,1,19,-3,11,-2,-7
117354763978,3,2,-1,-25,7,-9,-3,3
117354771394,0,-2,-3,8,4,-4,-4,2
117354771394,0,0,-4,-38,-7,10,3,2
117354780312,0,1,0,15,15,-4,-7,-9
117354780312,0,-1,6,13,-25,-2,12,7
117354793983,-2,-5,-11,-9,13,7,1,-3
117354793983,-1,1,4,18,-3,-7,-7,1
117354802748,-4,-2,-5,-45,-33,-6,0,-5
117354802748,-3,-1,-3,18,10,-8,2,-1
117354808853,3,0,1,-15,-10,32,-7,1
117354808853,-8,-4,0,8,-3,-30,0,-7
117354823955,4,2,0,19,12,24,2,6
117354823955,-3,-1,-2,12,-1,-21,-9,-11
117354831275,0,-2,-1,3,2,-27,2,8
117354831275,-5,-2,-4,12,4,15,8,-3
117354840287,1,-4,-2,-18,-41,-48,15,6
117354840287,-3,-4,-4,-1,18,51,-19,-4
117354853879,-1,1,4,27,24,21,9,-3
117354853879,-1,-1,-7,-34,2,-2,-6,1
117354862849,7,0,3,5,4,-17,5,3
117354862849,-5,-2,-1,14,0,2,-11,-5
117354868744,0,6,3,11,-20,-29,-5,-2
117354868744,1,-1,-5,-83,-13,19,11,-2
117354883841,-4,-1,3,-16,11,0,-1,-2
117354883841,2,-5,-19,-33,1,22,-1,2
117354891508,-3,-1,4,31,-1,-39,-14,-13
117354891508,-1,1,1,4,-11,-14,7,0
117354900365,-2,0,1,-1,10,27,3,3
117354900365,0,5,-1,-4,10,-17,1,-3
117354914000,0,-3,3,-8,-10,35,2,4
117354914000,3,-2,-1,-23,-3,-27,-9,1
117354922768,-1,-3,-3,3,-1,16,-4,-3
117354922768,1,8,-2,15,1,-39,7,-6
117354936980,-3,-1,-1,-33,-14,12,-7,7
117354936980,0,-3,4,74,24,17,-5,-13
117354943765,2,-6,-8,-12,8,4,5,6
117354943765,-4,4,5,-4,-19,6,-2,-5
117354951246,13,12,0,4,0,-5,16,-4
117354951246,-2,-2,4,-18,-11,-5,-11,6
117354960275,-2,-5,-1,63,6,-9,-7,0
117354960275,-3,-6,-2,-24,-14,2,5,-8
117354973944,-17,-7,-7,-25,4,-9,-11,-10
117354973944,18,5,5,48,27,11,8,13
117354990941,-3,3,1,4,-15,-5,-1,-4
117354990941,2,-2,1,-32,2,1,3,9
117354991918,2,-3,-6,-1,7,6,9,5
117354991918,-6,-6,2,1,-12,-8,-10,-7
117355003817,-1,0,-14,-10,6,-4,-7,-10
117355003817,-3,-2,14,29,16,1,4,2
117355011411,-9,-7,-6,-24,-27,-3,-3,5
117355011411,-6,1,-6,19,-5,1,-4,-3
117355020296,-24,-8,-1,-18,-5,-4,-4,-13
117355020296,21,-2,-9,-13,10,8,-5,-26
117355033926,-24,-15,1,64,-5,-14,-4,53
117355033926,-6,17,5,-11,-11,4,5,4
117355042790,1,-15,-3,-9,4,0,-5,1
117355042790,4,-2,-3,16,-3,-1,5,16
117355048996,-2,2,1,-1,12,0,-2,-29
117355048996,8,-4,-7,-18,-17,-4,-2,-3
117355063856,-6,-3,2,-1,6,-2,-2,-10
117355063856,-1,5,0,18,-3,0,-7,-6
117355071300,9,3,-1,11,-2,-2,0,-12
117355071300,-8,-6,-3,-1,1,2,-3,10
117355080328,15,22,7,-4,3,0,-3,-22
117355080328,-12,-6,-7,-4,-10,-4,-1,12
117355093921,2,4,1,-17,2,2,1,-22
117355093921,-12,-5,2,-19,7,-1,-7,-31
117355102739,13,5,-4,17,5,2,3,4
117355102739,-4,1,15,-6,-13,-3,-1,-33
117355108831,5,-4,-14,-24,9,3,2,29
117355108831,2,2,2,20,-3,0,-3,-79
117355123749,6,7,3,-36,-10,-1,10,80
117355123749,-6,0,0,-9,7,2,-2,5
117355131433,0,14,1,9,-3,-6,-7,-54
117355131433,-12,-8,-1,0,8,5,5,1
117355140314,-8,-7,-2,24,-9,-5,-6,-34
117355140314,10,-5,-3,11,8,0,2,37
117355153874,5,15,7,-29,-9,-1,-2,-5
117355153874,0,-4,-9,3,0,-3,-3,11
117355162800,-9,1,6,-7,-3,-1,1,17
117355162800,2,4,-1,-19,-4,-2,-1,-40
117355176965,-21,-26,-9,-2,-5,-6,-13,-5
117355176965,6,24,9,-1,-3,3,2,-13
117355183781,21,-3,-6,-13,0,-1,0,-7
117355183781,2,6,-3,-8,-1,1,1,52
117355191272,13,1,7,-13,-1,-2,8,12
117355191272,-25,-1,-5,23,-5,-5,-11,-12
117355200295,-10,-7,-1,-11,-1,2,3,-13
117355200295,14,5,-3,13,5,-1,-10,-20
117355213970,5,0,-14,-15,-1,2,11,-11
117355213970,4,2,5,14,4,1,5,40
117355222782,-21,-2,-6,-8,-13,-3,-7,13
117355222782,-10,-4,-9,-4,-3,-8,-7,16
117355237196,-13,5,-5,-1,-1,2,-6,-38
117355237196,17,-15,-3,-14,-3,1,9,76
117355243927,-14,-7,2,11,12,1,-1,-17
117355243927,-31,-12,11,-14,-6,-1,0,-18
117355251248,80,8,2,10,-1,2,11,109
117355251248,-24,-8,1,-23,0,-3,-14,-104
117355260272,12,-10,-6,9,-1,-3,-5,-11
117355260272,-13,12,-10,-24,-4,-1,8,30
117355273792,-1,6,12,-21,-2,1,-3,-41
117355273792,17,10,-1,19,-2,-1,1,-23
117355282840,-17,-21,6,4,12,1,-2,23
117355282840,7,4,-12,21,-15,-3,-3,-14
117355305145,9,3,18,23,6,-2,-1,5
117355305145,7,-12,-16,-51,-7,-6,-2,58
117355306701,-8,4,0,16,6,-1,-3,-26
117355306701,-7,-4,-11,3,-3,4,3,-2
117355311314,4,2,8,29,16,-2,2,-14
117355311314,-7,-2,2,23,6,3,4,44
117355320281,19,10,2,11,-2,0,-1,20
117355320281,-2,-4,-3,1,-3,-4,-12,-39
117355342638,0,2,-9,-10,-18,-6,1,-9
117355342638,5,-5,8,-30,6,4,-6,-13
117355344259,9,5,9,-5,-1,3,12,27
117355344259,-43,-10,-1,24,26,-6,-1,-71
117355357053,0,0,-4,5,-8,-13,0,40
117355357053,6,2,-11,-57,-3,15,5,-13
117355363743,-8,9,-18,18,4,-5,-11,-17
117355363743,12,2,11,-10,9,13,4,32
117355371284,-35,-18,-24,-32,-38,-33,5,-25
117355371284,11,-16,13,32,7,10,-3,13
117355380466,-13,2,-8,-6,14,20,-1,-25
117355380466,22,5,11,5,29,6,4,21
117355393979,-22,1,5,19,-19,-6,-17,-15
117355393979,16,10,9,-17,-3,-10,-5,2
117355402769,0,6,1,-11,-28,-30,-4,-10
117355402769,-4,-36,-27,-32,-26,2,-6,9
117355417025,-6,1,14,16,46,36,18,-5
117355417025,-5,1,-12,5,-26,-13,-2,29
117355423966,-3,0,11,-71,-5,4,-10,-8
117355423966,-11,-2,1,19,9,-27,-9,-35
117355431289,-1,6,-7,-7,-5,11,2,-5
117355431289,-39,-9,-5,18,8,-7,-8,-30
117355446231,16,-8,-7,-10,5,-9,-3,32
117355446231,1,0,13,-20,-4,20,6,-14
117355453733,13,-4,-13,35,-2,-13,-8,25
117355453733,29,35,-5,4,-6,19,6,26
117355462781,6,7,-17,19,-14,-34,-10,-9
117355462781,-9,9,7,17,-9,-2,0,0
117355476946,-15,-7,10,19,13,-3,-5,-15
117355476946,-8,-15,-7,-9,6,10,-4,-11
117355483705,-3,12,0,-1,-10,23,19,-20
117355483705,-3,3,3,8,-20,-7,-15,10
117355491225,-9,-12,-8,-2,14,16,0,-10
117355491225,2,-6,-5,-14,-26,-30,-15,-3
117355506253,-7,2,1,-5,13,10,2,-16
117355506253,2,-7,4,11,8,3,-12,2
117355513711,-14,-7,-7,-37,-5,-13,20,-27
117355513711,2,2,9,-1,8,11,2,-23
117355522743,16,13,11,28,-26,6,1,32
117355522743,-1,-30,-9,-28,0,12,6,26
117355536941,-28,-23,-4,-25,-10,-33,-26,-47
117355536941,50,14,1,5,12,8,18,43
117355544360,-16,-3,-1,18,13,-9,-4,-3
117355544360,7,10,2,19,-15,-27,-7,-33
117355559634,-12,2,3,-58,-15,22,-3,30
117355559634,-13,-8,-5,-7,8,-4,14,18
117355566451,-4,0,2,12,4,6,-2,28
117355566451,4,4,-2,-11,-14,-3,0,14
117355598464,3,-3,-3,6,13,3,-2,-7
117355598464,-21,-3,-3,12,-7,-18,-14,-11
117355600145,-8,-22,-3,-6,2,1,-7,-29
117355600145,4,5,-1,-11,1,4,5,-7
117355618793,7,4,-1,38,14,10,2,-1
117355618793,-5,-11,0,-23,-21,-6,-1,-8
117355627963,-11,-5,-1,10,1,-5,-4,-35
117355627963,8,3,-4,4,10,-4,3,28
117355650155,-8,-7,-1,-5,-8,3,-7,-19
117355650155,-2,-2,-2,16,5,-4,-5,-57
117355651730,-13,-4,1,-3,7,2,6,15
117355651730,63,8,2,14,-7,3,17,105
117355672038,-8,13,-1,-20,-5,0,-3,10
117355672038,-24,4,0,26,12,0,-5,-50
117355678768,19,-1,3,-1,3,0,7,77
117355678768,-20,5,-1,-15,2,-1,-6,-91
117355693805,33,9,7,21,5,5,13,64
117355693805,11,14,-5,-5,-13,-6,-5,0
117355704265,-5,-7,-1,18,6,-4,-14,-106
117355704265,-5,4,1,-6,-3,2,11,83
117355709508,11,-2,0,-2,2,-3,-6,-5
117355709508,-13,3,4,-4,-5,-1,4,37
117355710223,5,3,-4,12,5,-1,-2,-39
117355710223,16,-3,-2,-19,-4,-2,0,17
117355716936,19,7,2,6,-5,-1,-7,-19
117355716936,-6,-21,-4,25,4,0,-1,-5
117355717744,-9,-2,1,-3,-5,-1,-4,-22
117355717744,-12,-13,-6,19,2,1,1,6
117355725404,-5,-22,-3,-3,-1,-1,-4,-16
117355725404,17,-3,-4,-15,-1,0,6,83
117355726831,12,-2,1,0,0,0,5,22
117355726831,-16,3,-2,20,4,1,-4,-40
117355739555,-10,17,1,-46,-12,-2,-4,-10
117355739555,-1,7,-7,8,3,-1,2,26
117355753747,-2,0,-3,-15,-4,0,1,7
117355753747,-23,-11,-9,8,-1,-5,-11,-80
117355762700,0,4,2,6,8,3,6,72
117355762700,-17,-8,-5,-7,-8,-2,-8,-35
117355764225,8,3,-1,6,0,1,1,23
117355764225,-5,10,3,-29,-1,-2,-2,-35
117355777215,-7,-4,-3,7,-3,-2,-6,-36
117355777215,-6,-1,1,-9,0,-4,-6,-20
117355783911,-7,-7,-1,15,-5,-3,-5,-37
117355783911,14,7,3,-21,-2,1,6,49
117355799561,-5,-17,-6,13,-1,-1,-2,-17
117355799561,-1,-5,1,-10,-2,-1,2,-3
117355806263,0,-1,-2,0,-4,0,3,40
117355806263,-14,-2,7,17,2,-3,-7,-49
117355822596,22,2,-7,-28,2,1,2,33
117355822596,-8,9,0,7,0,-3,-5,-42
117355824231,-15,-5,7,6,0,-3,-3,12
117355824231,0,15,6,16,2,3,3,9
117355836320,-19,-22,-25,14,4,1,-2,-29
117355836320,6,-1,-5,4,0,1,0,1
117355845282,16,8,0,20,4,0,2,7
117355845282,5,-1,-4,-34,-3,-4,-2,21
117355859562,-25,6,6,-1,-3,-1,-5,-82
117355859562,21,-18,-4,-3,3,0,7,79
117355866356,5,6,8,-2,-10,0,3,64
117355866356,3,-17,7,13,1,1,1,17
117355882767,15,8,9,35,8,-3,-2,10
117355882767,7,-8,-6,-37,-7,0,-6,-45
117355884247,19,8,-10,9,4,1,4,85
117355884247,2,4,-3,10,-2,-2,-1,-9
117355896524,-16,3,10,-37,-3,0,-6,-33
117355896524,-5,-2,4,-17,-8,-1,1,14
117355905262,39,-3,12,40,4,1,2,8
117355905262,-26,13,-17,-37,-2,-2,-7,-30
117355919417,9,-1,-11,30,-2,-6,0,19
117355919417,-20,-4,-5,-22,1,0,-2,-23
117355926388,-24,-6,2,-23,-17,-9,-12,-74
117355926388,-5,-3,0,18,5,4,1,-5
117355957755,-9,-7,0,-7,-12,-6,-4,2
117355957755,-18,-2,1,27,17,0,-2,-37
117355963884,-1,6,-18,-27,-8,-10,-12,-21
117355963884,6,-40,-25,-47,-11,-2,4,20
117355987679,-11,-10,12,9,6,1,-1,-28
117355987679,9,-21,-23,24,-17,-12,-9,-5
117355989240,-48,-13,10,3,5,-1,-9,-60
117355989240,-6,11,6,45,21,2,-2,-33
117356010344,3,-3,3,-11,-28,2,8,43
117356010344,12,7,-1,66,33,3,-1,-16
117356011805,8,-5,-19,-108,-3,1,-1,-71
117356011805,65,-21,-3,4,-15,-2,23,103
117356031501,-6,13,14,22,16,-14,-7,-15
117356031501,3,18,7,32,-7,12,2,5
117356049772,0,-5,-4,8,17,8,-2,-41
117356049772,7,22,67,58,6,11,-1,-13
117356051452,-10,-9,-13,-37,-39,1,2,1
117356051452,-1,-3,-2,6,4,-14,-2,2
117356055134,-2,-10,19,9,-30,-11,-3,28
117356055134,-24,2,-3,-24,20,7,-4,-17
117356055941,21,-5,-25,21,30,-10,-17,27
117356055941,28,11,10,-43,-2,15,17,28
117356056732,7,-9,3,36,4,0,-11,-20
117356056732,-26,2,-15,4,-20,-7,-7,21
117356062647,-18,-17,1,50,28,11,5,-106
117356062647,1,-12,-6,-61,28,23,12,97
117356064256,-5,4,-18,10,-33,-21,-7,2
117356064256,0,-6,8,20,-2,1,-9,-29
117356076481,6,2,-9,-4,20,-8,-8,1
117356076481,-15,-1,2,-25,-38,-18,-10,-26
117356085267,-4,6,17,8,14,10,10,14
117356085267,-6,5,-5,-19,-6,-5,0,-20
117356099570,-10,5,2,-33,-17,6,4,23
117356099570,-3,-6,-2,40,2,-10,-4,-29
117356106366,-2,-4,-7,-30,-3,2,2,19
117356106366,-15,1,-10,22,-4,-10,-4,-27
117356122874,-4,-8,-5,9,3,4,5,38
117356122874,-14,-1,0,-5,-4,-1,-8,-30
117356124275,-41,-6,4,-8,1,0,-7,-61
117356124275,-5,0,-7,-4,4,1,-2,-10
117356136258,5,6,3,-8,-14,-1,0,6
117356136258,-35,5,4,-15,-9,-4,-10,-40
117356145265,-1,-11,-5,9,2,3,4,11
117356145265,5,-2,-9,-11,-4,-5,-3,-8
117356159623,9,5,4,-9,-7,-2,2,11
117356159623,6,6,4,22,1,-3,-1,-19
117356166504,13,1,-7,-2,8,2,2,17
117356166504,-4,2,-6,-7,-2,-1,-2,-6
117356182707,9,0,-10,-6,-6,-2,2,19
117356182707,4,-1,4,2,-1,0,-3,5
117356184243,-10,-1,-2,-1,-2,-1,2,16
117356184243,1,-8,-2,-11,-4,-5,-3,7
117356196495,8,5,2,1,-3,-1,3,-3
117356196495,-40,0,0,0,0,-2,-4,-14
117356205283,8,4,-3,-8,1,0,0,-2
117356205283,-7,-6,-5,5,-2,-4,-5,-25
117356219635,3,4,6,2,-1,2,2,39
117356219635,17,6,-3,-6,-5,-5,-3,-12
117356226258,1,0,-1,3,0,-1,1,7
117356226258,-4,-1,-1,-3,-1,-1,-1,2
117356250162,1,0,2,-4,-2,-1,-1,-16
117356250162,9,-2,0,-1,-2,0,1,12
117356251694,2,3,-2,-1,-1,0,2,7
117356251694,9,-1,-2,-2,0,-2,-1,10
117356256314,-1,11,3,-3,-3,-1,-2,-6
117356256314,1,-5,-2,5,-2,-1,0,1
117356265267,-5,-2,-5,-4,1,1,1,8
117356265267,6,4,1,0,1,-1,2,-6
117356279682,0,1,-2,-3,-2,-3,0,-1
117356279682,2,-3,0,3,-1,-1,1,2
117356286307,1,0,-3,-6,0,0,-1,-1
117356286307,-3,-1,-4,-10,-2,0,-1,4
117356302824,-3,-4,0,-7,-1,-1,-1,-3
117356302824,7,-1,-1,-1,-3,-3,-1,4
117356304333,5,-3,0,8,0,-2,1,0
117356304333,-2,-4,-2,-7,-1,-2,-2,-3
117356316238,1,-3,-2,3,0,-1,0,-1
117356316238,-3,-5,-5,-14,-5,-2,-2,-3
117356325211,1,3,-2,-1,0,0,-1,2
117356325211,-3,-19,-2,3,0,-2,-3,-2
117356339368,-4,-3,0,3,-4,-3,-2,-6
117356339368,1,0,0,1,-1,-1,-4,0
117356346255,1,-1,-2,-1,1,4,4,3
117356346255,1,18,1,0,1,-1,-2,2
117356362849,-1,-4,0,-1,-1,-2,1,-3
117356362849,-1,-4,-2,2,-1,5,-2,0
117356364282,0,-1,0,-3,-1,-9,-1,1
117356364282,-4,0,-2,0,-2,4,-2,-1
117356376440,1,-1,0,-1,-1,-1,0,0
117356376440,1,2,2,1,0,-4,-5,-1
117356385282,1,2,-1,-1,-3,-2,-2,-1
117356385282,-1,-1,-2,-1,-2,-2,0,0
117356399480,-2,-1,-1,2,-2,0,0,0
117356399480,1,-3,-2,1,1,-1,1,2
117356406242,0,-3,-3,-5,-2,-2,-3,0
117356406242,0,-4,0,1,-2,-3,-4,-3
117356422039,-1,-2,-2,-2,0,3,-2,-3
117356422039,-1,0,-1,1,1,-2,2,0
117356428780,-1,-1,-1,-2,1,3,0,1
117356428780,-2,-1,-2,-2,-4,-2,0,-1
117356436235,-2,-2,0,0,-3,-2,-4,-3
117356436235,-1,-1,0,1,-1,-3,-2,0
117356452730,0,0,-1,-2,-1,0,0,-2
117356452730,-1,-3,-1,-3,-2,0,0,0
117356459494,-1,-1,0,4,2,1,-2,-1
117356459494,-1,-1,0,3,1,1,1,0
117356466318,-2,-3,-5,-11,-8,-7,-6,-1
117356466318,-2,0,-1,2,1,-2,-1,-3
117356481967,-1,0,-1,-18,0,5,3,2
117356481967,0,0,2,18,-2,-1,-1,-2
117356488947,-2,-1,-3,-3,-1,2,-1,-2
117356488947,-1,-1,-2,-1,-3,-5,-2,0
117356496447,-2,-1,0,24,4,-3,-2,0
117356496447,0,-2,-4,-65,-14,0,-1,0
117356505252,0,1,5,12,0,-1,-1,-1
117356505252,-1,-4,-2,-18,-4,0,-2,-2
117356519466,-1,-2,-3,-7,-3,-10,-3,-3
117356519466,0,-1,-1,10,2,7,-1,-1
117356526229,0,0,-2,1,2,1,-3,-1
117356526229,-2,-1,0,9,-3,0,1,1
117356542121,0,-1,-3,-24,-4,1,1,-1
117356542121,0,-2,-1,4,0,-3,0,1
117356548991,-2,-2,-2,-1,-3,-1,-2,-1
117356548991,0,-1,1,10,5,8,0,-2
117356556373,-2,11,0,3,-4,-12,-5,-9
117356556373,1,-4,-3,9,1,0,-1,7
117356565256,1,-2,-1,1,0,1,-1,-1
117356565256,-3,0,0,2,2,-3,-1,0
117356579426,-2,0,-2,-3,-3,0,-1,-2
117356579426,-2,0,-2,2,2,-1,0,-5
117356586313,2,-1,-1,-1,0,0,-2,-1
117356586313,1,-1,-3,-7,-2,-7,0,-1
117356601949,0,-4,1,2,0,7,0,1
117356601949,-1,0,0,4,-1,-3,0,-2
117356608802,-2,-2,-2,-1,-1,-2,0,0
117356608802,0,-2,-1,-6,-2,-2,-1,-1
117356625097,0,-4,-2,-8,-2,0,0,1
117356625097,-1,-1,3,-3,1,-2,0,-1
117356626775,-3,0,-4,-19,-6,-1,-1,-2
117356626775,-2,1,1,-3,3,-1,-1,-1
117356639708,-4,-3,-2,11,2,0,-1,0
117356639708,12,-6,-4,-4,-2,-1,-1,-2
117356653791,1,4,5,3,4,-1,1,1
117356653791,-2,-2,-3,-3,-6,0,-1,-1
117356661950,0,-3,-1,4,0,0,-2,-3
117356661950,-9,-16,-3,25,4,-3,-3,-5
117356668740,-6,-4,-5,-30,-11,-4,-1,0
117356668740,14,4,-1,9,2,0,-2,0
117356685110,1,-3,0,3,-2,0,-1,3
117356685110,0,6,3,19,4,0,-2,-4
117356686719,-4,0,-3,-24,-12,-3,-2,-3
117356686719,-8,-3,-2,-5,-2,-1,-1,0
117356699541,0,1,-2,-4,-3,-3,-1,-14
117356699541,-1,2,-2,-10,1,-2,2,29
117356706431,-1,-2,-1,15,4,1,-1,-2
117356706431,2,-2,-2,-1,-1,-1,-2,-1
117356721954,5,-1,-1,0,0,-1,0,16
117356721954,-5,0,-3,0,-3,-2,-2,-14
117356728826,-4,-6,0,2,1,0,2,4
117356728826,2,2,0,7,0,-1,1,6
117356745316,-7,-19,0,-3,2,0,1,-8
117356745316,-9,2,0,-7,-9,-1,-1,-19
117356746972,3,0,-2,5,0,-1,0,16
117356746972,3,18,1,-1,1,-1,0,-6
117356758776,-13,7,0,-2,0,0,-2,1
117356758776,-4,1,-2,-11,-3,-3,-3,-2
117356767792,-3,-2,1,9,1,-1,-1,-10
117356767792,-7,-4,0,5,-1,0,0,-3
117356782088,21,6,-1,0,0,1,-2,9
117356782088,0,-1,1,-5,-1,-2,-3,-2
117356788943,-2,5,-1,7,2,0,-1,-6
117356788943,-3,-8,-2,-5,-1,-2,-1,1
117356805092,-4,-2,-1,-4,-4,-2,-2,-9
117356805092,-1,-3,-2,-4,0,-2,-1,-2
117356806841,3,-3,1,2,0,0,-2,-4
117356806841,-1,-6,-2,-4,-1,-1,0,-3
117356818831,-3,-3,-1,0,-5,-2,0,2
117356818831,-3,2,0,-1,-1,0,-1,-1
117356827749,-1,-3,0,0,2,-1,-1,5
117356827749,7,-3,-4,-3,-2,-3,-3,-13
117356841906,-1,2,-2,0,1,-1,1,20
117356841906,1,1,-1,-2,0,1,0,2
117356848733,-7,-3,0,1,-1,0,0,-10
117356848733,-13,-22,-4,-3,-4,-2,-2,0
117356865033,-11,-17,0,1,0,-2,-3,-12
117356865033,10,0,-3,-1,-2,-1,2,0
117356866650,-1,1,-3,1,0,0,-1,2
117356866650,-2,8,-2,-3,-3,-2,-3,-3
117356878718,-17,-10,-6,0,-2,-1,-1,-5
117356878718,2,0,0,-1,0,0,-3,2
117356887760,-4,-3,-1,-1,-1,-1,-3,-3
117356887760,1,2,1,-2,0,-1,0,4
117356901918,2,0,0,-2,0,-2,0,-3
117356901918,-2,1,-2,-2,-1,-2,-3,-3
117356908716,4,3,-2,0,-2,-3,-1,-1
117356908716,-2,0,-1,-2,-1,0,-1,1
117356925098,7,3,-1,0,-2,-1,-1,1
117356925098,-7,-1,-1,-3,0,0,-1,-3
117356926735,3,0,-1,0,-1,-1,-3,-4
117356926735,-2,-1,0,-1,0,-1,0,0
117356938748,-6,-3,-1,-1,-1,-3,-2,-5
117356938748,0,-12,-2,-2,-2,-2,-1,0
117356947719,6,-2,0,1,-2,-1,0,-13
117356947719,-3,3,1,-1,0,0,0,14
117356961936,6,5,0,1,-1,1,0,1
117356961936,0,-5,-4,-4,-1,-1,-2,0
117356968661,-1,0,0,-2,0,-1,1,-4
117356968661,1,9,-1,-2,-1,-1,0,-4
117356985103,-4,-5,-2,-2,-2,0,0,-1
117356985103,7,-16,-4,-2,-3,-2,-2,2
117356986681,-17,-2,0,4,-2,-1,0,-1
117356986681,-32,-27,-5,-4,-2,-3,-3,-15
117356998705,4,10,0,-1,-1,0,0,4
117356998705,6,-5,-3,-1,-1,-2,-1,-5
117357007742,-4,-9,-2,0,3,1,0,5
117357007742,3,5,-1,-4,-9,-2,-3,0
117357021947,0,-5,-3,-2,0,-2,-3,-4
117357021947,1,7,4,0,-1,0,0,0
117357028755,4,8,0,1,-2,-1,-4,1
117357028755,5,6,0,1,2,-2,-2,0
117357044403,-5,-20,-4,-3,0,-1,-2,-5
117357044403,-6,9,1,1,1,0,0,-1
117357045189,-1,-4,-4,-6,-3,-1,0,7
117357045189,8,-8,-1,4,0,1,-1,-4
117357060239,1,4,0,-1,-2,-1,-2,1
117357060239,-8,4,0,1,-1,-2,-1,-3
117357066233,21,0,1,-1,0,0,-2,0
117357066233,-3,1,0,-1,-1,0,2,0
117357082730,2,14,2,-1,-3,-2,-1,-1
117357082730,-6,-3,-3,0,-1,-1,-1,1
117357088685,12,4,0,-1,-2,-1,-1,-2
117357088685,3,4,-2,-1,-1,-4,0,3
117357104383,-4,-2,-1,0,0,-1,-2,-6
117357104383,11,24,1,0,-1,2,-1,-6
117357105173,2,0,0,-2,-1,-2,0,12
117357105173,-3,-2,-1,0,2,-2,-2,-3
117357120237,-2,1,0,0,-1,-1,0,-1
117357120237,-4,0,-2,-4,-2,-2,-2,-1
117357126227,-10,-2,-3,0,-1,-1,-1,-6
117357126227,20,3,0,-1,1,1,-3,2
117357142805,0,3,0,0,-1,0,1,5
117357142805,2,13,1,-1,-1,-2,1,-1
117357148711,-11,-11,-2,-1,0,-1,-1,-3
117357148711,9,-4,-2,0,-2,-1,2,1
117357164388,-14,6,0,-1,-1,-1,-1,-5
117357164388,-4,-5,-1,-1,-2,-1,1,1
117357165143,-1,0,-1,0,0,0,-2,-3
117357165143,-7,-3,-4,-3,-2,-2,-3,-2
117357180181,4,0,-1,-1,-2,-2,-3,-1
117357180181,-6,-3,1,-2,-1,-1,-4,0
117357186226,-5,-11,-2,-3,-2,-2,-1,-5
117357186226,-6,-5,-3,-1,0,-1,0,-2
117357202715,6,-2,-2,-1,-2,0,-1,-1
117357202715,-6,-8,-1,0,-1,-1,0,0
117357208711,0,3,-2,-2,-1,1,-3,-2
117357208711,0,7,2,2,-1,0,-1,-2
117357224396,-4,-6,-2,-3,-1,-1,-1,-1
117357224396,1,-5,-1,-2,-3,-1,0,0
117357225181,0,3,-2,-2,0,-2,2,0
117357225181,-14,-10,-2,-3,0,-1,-2,-3
117357240241,-2,2,-1,0,0,-2,0,0
117357240241,-4,-8,-3,1,-1,-1,-2,-5
117357246197,2,22,2,-4,-1,-2,0,2
117357246197,1,-3,1,0,-1,-1,-1,1
117357262730,-2,-5,-3,-1,-3,-1,-2,-4
117357262730,16,2,0,0,0,2,1,-4
117357268701,0,0,-3,1,-1,0,0,1
117357268701,4,3,0,-3,-1,1,-1,-6
117357285858,12,3,-1,-1,0,-3,0,14
117357285858,-13,-4,-1,-2,0,-2,-2,0
117357286648,-6,-6,-2,0,-2,-2,-2,-4
117357286648,-2,0,-2,0,-1,-1,-1,1
117357300188,-2,-5,-3,0,0,0,-1,-8
117357300188,4,-3,-1,-2,-1,-2,-1,4
117357306245,-4,-8,0,-1,0,-1,-2,0
117357306245,-6,6,-1,0,1,-1,-3,-2
117357322754,7,5,0,0,0,-1,-1,-2
117357322754,-9,-4,-2,-1,0,-3,0,-1
117357328750,-6,-11,0,-1,-2,-3,-1,-3
117357328750,2,-3,-2,-2,-2,-2,1,0
117357343768,-15,-5,-3,-3,-1,-1,-2,-4
117357343768,6,1,0,1,0,0,-1,1
117357351205,0,-1,-1,0,-1,-2,-2,-1
117357351205,-5,16,0,-1,-1,-2,0,-7
117357360197,-1,-5,-2,-2,-2,-2,1,5
117357360197,-7,-5,-2,-2,-2,-2,-3,-3
117357366235,0,1,-3,-1,-1,0,-1,1
117357366235,-5,-1,0,-1,0,-2,1,-2
117357382677,7,-2,0,0,0,1,-1,-2
117357382677,3,4,0,-1,-1,0,-1,1
117357388804,0,4,-1,-1,-2,-3,-2,-4
117357388804,1,-4,-2,-2,-1,0,-2,0
117357403688,-3,-3,1,-2,-1,0,-1,-3
117357403688,4,-6,-1,-1,-2,-1,-3,-1
117357411191,-6,-4,0,0,0,0,-2,-1
117357411191,-6,-5,0,0,-1,-1,-2,-1
117357420204,-2,0,0,-1,-1,-2,0,-1
117357420204,-2,0,-2,-2,-1,0,-1,-3
117357433765,0,-2,-1,-2,-1,0,1,-2
117357433765,1,-3,-2,-1,-3,-2,-2,0
117357442660,4,3,-1,-1,-1,0,-1,-1
117357442660,-5,-3,-1,-3,-2,0,1,-1
117357448744,1,2,-2,-2,-2,-1,-3,-1
117357448744,-1,-5,-1,-1,1,-1,-2,0
117357463759,-2,-3,-2,0,-1,-2,-2,-2
117357463759,-2,-1,-1,1,3,-2,-1,-2
117357471147,-2,-1,1,0,-3,-3,-1,-2
117357471147,2,-1,-1,-7,-6,-2,-1,-1
117357480226,-3,-3,-3,2,0,-2,-2,-2
117357480226,-1,-2,-1,0,1,-1,-1,-2
117357493732,1,2,0,1,2,0,-2,-2
117357493732,-5,-6,-4,-1,1,-1,-2,-2
117357502727,-4,1,-3,-3,-3,-1,0,-2
117357502727,-6,-12,-2,-1,-2,-1,-2,0
117357508676,-2,-4,-1,0,0,-1,-1,-1
117357508676,2,6,0,-2,0,-1,-1,-2
117357523722,-8,-9,-2,-2,-2,-1,-2,-4
117357523722,3,1,-1,0,0,0,-2,1
117357531214,0,-1,-1,-2,-3,-1,-1,-2
117357531214,-13,-6,-4,-1,-2,-2,-4,-1
117357546912,-7,-22,-1,-2,0,-1,-2,-3
117357546912,-2,2,-2,-2,-2,-2,0,-3
117357547663,-6,4,-1,0,-2,-1,-1,1
117357547663,0,-1,0,-1,0,0,-1,0
117357562726,5,5,-1,-2,-1,-3,-1,0
117357562726,-1,-3,0,-1,0,-1,-2,-3
117357568765,1,-6,-2,-2,0,0,-1,0
117357568765,0,-3,-1,0,0,-1,-2,-2
117357583725,1,5,1,-1,-1,-2,-2,-1
117357583725,-2,-1,-2,-2,-2,-2,-2,0
117357591219,-1,0,-1,0,0,-2,-2,-1
117357591219,3,3,-1,1,-1,0,-2,-1
117357606899,4,4,-3,-1,1,-1,0,0
117357606899,-5,0,-2,-2,-1,-2,-1,-1
117357607675,1,-1,-3,-1,-2,0,-1,0
117357607675,1,0,1,0,-2,-1,0,0
117357622740,0,2,0,0,-2,0,-1,-2
117357622740,-1,1,-2,-1,-1,-2,-1,-2
117357628750,-1,-4,-1,-2,-1,0,-2,-3
117357628750,2,-3,-2,-1,-1,0,1,-1
117357643764,0,0,0,-1,0,-1,-2,-1
117357643764,-3,-1,2,1,0,-2,0,1
117357651251,4,0,-1,-2,0,-2,-1,-1
117357651251,-4,-5,-5,-2,0,-2,1,-4
117357666898,2,2,0,-1,-3,-1,0,0
117357666898,1,1,-1,-1,-3,-2,-3,-1
117357667713,-21,-4,-4,-4,-3,-2,-3,-2
117357667713,6,2,1,-1,0,0,0,-1
117357682688,-1,2,-1,-2,-2,-1,0,0
117357682688,-3,-5,-4,-3,-2,0,-1,-1
117357696953,4,2,1,0,-1,-1,0,-2
117357696953,2,0,-1,-1,-1,-2,-2,1
117357703725,-2,2,-2,-2,-1,-1,0,-2
117357703725,-1,-5,-3,-2,-1,-1,-1,1
117357711222,4,1,-1,0,1,0,-1,0
117357711222,-2,-2,0,0,0,0,-2,0
117357726917,-4,-1,-3,-2,-1,0,-1,-1
117357726917,2,2,0,-1,-2,1,-1,-1
117357727732,2,-1,-1,-1,0,-1,0,-2
117357727732,0,0,0,0,0,-3,0,1
117357742784,0,1,0,0,-2,-2,-2,-1
117357742784,1,-1,0,0,0,0,-1,-2
117357748703,-1,-4,-2,0,0,-1,0,0
117357748703,-1,0,-1,0,-1,-1,-2,-1
117357763806,-1,0,0,-2,0,-1,0,1
117357763806,-2,-1,-1,-1,1,-1,0,-1
117357771249,-1,-1,1,1,-5,-3,-2,1
117357771249,-1,-2,-2,-5,-4,1,0,0
117357786838,-1,-3,-3,-3,0,0,-1,-2
117357786838,-2,-1,-1,-1,1,0,0,-1
117357787615,-2,-1,-1,-2,-1,-1,-1,1
117357787615,-2,-2,-1,1,-2,-2,-2,-1
117357802735,0,-3,-1,1,-1,1,0,0
117357802735,-2,-1,-1,-6,-1,-2,0,-2
117357808763,0,-2,-1,3,0,0,-1,-2
117357808763,1,6,0,0,-2,-1,0,1
117357823734,-2,-1,-1,-1,0,-3,-1,-1
117357823734,0,2,-1,-1,-2,-3,-3,-1
117357831277,-16,-13,-5,-5,-2,-2,-1,-3
117357831277,-2,-1,0,0,0,-1,0,-3
117357847176,0,-3,-2,-1,0,-1,0,0
117357847176,-2,3,-2,1,-1,-2,-1,-1
117357847786,5,1,-1,-2,-2,0,0,-2
117357847786,-5,-5,-2,0,-1,0,-2,-1
117357862743,0,3,-1,-2,-2,-1,-3,-4
117357862743,3,-5,-1,0,-2,1,1,-1
117357868777,2,3,0,-1,0,-1,1,1
117357868777,5,1,0,0,1,-1,0,1
117357883814,-2,-4,1,-2,0,0,-1,2
117357883814,-1,-2,-2,-1,-1,0,0,0
117357891323,3,1,0,-1,-1,-1,-1,0
117357891323,-6,-4,-2,-4,0,-2,0,-2
117357906913,-2,0,0,-2,-1,-2,-3,-1
117357906913,-1,0,-1,-1,-1,-2,0,-1
117357907905,1,2,-1,-3,0,1,-1,-2
117357907905,0,-1,-1,-2,-2,-1,-2,-3
117357922708,-5,-14,-3,-2,0,-1,-2,-1
117357922708,-1,1,0,-1,0,-3,-1,-2
117357928756,1,-1,-1,0,0,-2,-2,-2
117357928756,-1,0,0,-1,-2,-1,-2,1
117357943731,0,4,0,1,0,-1,-1,-1
117357943731,-5,-8,-2,-2,-1,-1,-2,-1
117357951252,-15,-5,-1,0,-1,0,-1,-3
117357951252,-3,-1,-1,-2,0,0,0,-3
117357966971,-1,1,0,0,-2,0,0,-2
117357966971,2,0,-1,0,-2,-3,0,-2
117357967767,6,0,-2,-2,-2,-1,0,1
117357967767,-2,-1,-1,1,-2,-1,-2,0
117357981530,1,2,-2,-1,0,-1,0,0
117357981530,1,-2,0,-1,-2,0,-1,-2
117357988993,2,0,0,-1,-1,-2,-3,-3
117357988993,-4,-2,-1,-2,-2,-1,-1,-1
117358003822,2,0,-1,-4,-1,-2,1,0
117358003822,-7,-2,-1,-1,-1,0,-4,-1
117358011383,1,0,0,-1,0,-2,-1,0
117358011383,-1,-1,-2,0,-1,1,0,-1
117358026951,0,0,0,0,-3,-1,-1,-1
117358026951,-1,-2,-1,0,-2,0,1,0
117358027707,-2,0,-1,-1,-2,-2,0,-2
117358027707,1,6,-2,-2,-2,-3,-2,-1
117358042800,1,1,-1,-3,-2,-2,-2,-3
117358042800,-1,-2,-3,0,0,-2,-1,-1
117358048976,0,-1,-1,0,1,1,-1,-1
117358048976,0,-1,-2,-3,-1,0,1,1
117358063950,-3,-2,-1,0,-3,-2,-1,0
117358063950,-1,1,0,-1,-1,-2,0,-1
117358071342,0,3,0,-2,-3,0,0,0
117358071342,-2,-4,0,0,-2,-3,-3,-2
117358086971,-3,0,-1,0,-1,-1,0,-1
117358086971,0,-2,-1,-2,0,-1,-1,0
117358087754,0,-2,-2,-1,0,-2,1,-1
117358087754,-2,-4,-1,0,0,0,-2,-2
117358101242,0,-3,-2,-2,-2,-1,0,0
117358101242,0,0,0,-2,-3,0,-2,0
117358108954,-2,-2,-3,0,-2,-2,-3,-1
117358108954,0,-2,-1,-2,-2,-2,0,-2
117358123780,0,1,-1,1,1,0,0,0
117358123780,-1,1,0,0,0,0,0,-1
117358131262,-1,-1,2,-1,-2,-1,-1,0
117358131262,-1,-3,-1,-1,-2,-1,-1,0
117358146881,-2,0,0,-2,0,-1,-1,-1
117358146881,-1,-1,-2,-2,-2,-2,-1,-1
117358147633,-2,-1,-1,-1,0,-2,-1,-2
117358147633,0,0,-3,0,-1,0,-1,-2
117358161396,-2,-2,-2,-2,-1,-1,-1,-2
117358161396,-3,-2,-2,-1,-2,1,-1,-2
117358168699,-1,-1,-1,-1,-1,0,-2,-2
117358168699,-3,-2,0,-2,-2,-1,-1,0
117358192004,0,-1,-1,-2,-1,0,-3,-2
117358192004,0,-1,-2,0,0,0,-1,-2
117358192920,-2,-3,-1,-2,-2,-1,2,-2
117358192920,4,1,-2,0,0,-3,1,0
