timestamp,emg1,emg2,emg3,emg4,emg5,emg6,emg7,emg8
82152522107,-4,-8,-2,-1,-1,-1,-3,1
82152522107,-10,-5,-1,-1,-2,0,-2,-3
82152523732,-9,3,-1,-3,-1,-3,-1,5
82152523732,-3,-2,0,-1,1,-2,-1,-6
82152537150,-5,13,0,0,1,0,-1,1
82152537150,1,-8,-2,1,-1,-1,-3,-3
82152538731,-4,1,-1,-2,-1,-1,-1,1
82152538731,0,-1,-1,-2,-2,1,-1,-6
82152559636,5,-5,-1,-1,-2,0,2,7
82152559636,8,-2,-1,0,0,0,-1,4
82152561254,5,-1,-2,1,-1,0,-1,-3
82152561254,-5,-1,-3,1,1,0,-1,-2
82152574017,-12,-18,-2,0,-2,0,0,-7
82152574017,10,-4,0,-1,-2,-1,-1,6
82152580735,0,7,3,-2,-2,-1,0,2
82152580735,-3,-4,0,0,-2,-1,-1,-5
82152597100,-2,2,-2,-2,-3,-1,-2,-2
82152597100,9,-5,-2,-3,-2,-1,-2,-6
82152598712,3,1,-1,0,0,-2,-2,3
82152598712,-2,2,-1,-2,0,-1,-2,-2
82152619743,7,20,0,-2,-2,0,-2,9
82152619743,3,-10,0,-1,0,-1,3,-6
82152621304,4,4,-1,-2,0,-2,-2,-3
82152621304,-10,1,1,0,1,0,1,2
82152633287,3,6,0,1,0,-1,-2,2
82152633287,-2,-3,-4,-3,-1,-1,-1,-1
82152642276,-3,-6,-3,-1,-1,0,0,-1
82152642276,3,6,-2,0,0,-1,-1,2
82152657417,-6,-23,-2,-2,-2,-3,-5,-7
82152657417,-2,4,-1,0,-1,-1,1,6
82152658876,-9,-5,-3,-2,-3,-2,-2,-10
82152658876,4,0,-3,-1,-2,-1,-1,2
82152679815,-1,4,0,-2,-1,0,-2,-5
82152679815,-6,-3,0,1,0,-1,-1,1
82152681267,1,5,-1,-4,-2,-2,0,-5
82152681267,-8,-6,-3,-1,-2,-1,-1,-5
82152694154,11,25,1,-1,-1,0,0,-3
82152694154,2,-9,0,-1,0,0,-1,4
82152700859,-3,1,0,-1,-1,1,1,-2
82152700859,0,-4,-1,-2,-1,0,-1,0
82152717300,-3,-1,-2,-1,-1,-1,0,-1
82152717300,-4,6,-1,-2,-1,-1,-3,-3
82152718791,-11,-9,-2,-1,0,0,-1,3
82152718791,4,-4,0,0,-1,-1,-1,0
82152739713,-4,-12,-3,-1,-2,-1,-1,2
82152739713,-4,-1,0,0,0,-2,-1,-4
82152741396,8,-5,-2,-1,-3,0,-3,-1
82152741396,0,-2,-1,-1,-2,-1,0,-4
82152753409,-2,1,0,-2,-1,-1,-1,-6
82152753409,-4,-2,0,-2,-2,-2,0,0
82152762306,2,4,2,0,0,-1,-1,3
82152762306,-2,-1,-2,-2,-1,-2,-2,-2
82152777196,-2,-5,-2,0,0,0,-1,2
82152777196,-3,14,-2,0,-2,-2,-4,-19
82152778726,6,-1,1,0,-2,1,-1,-2
82152778726,-7,1,0,-3,-2,-2,-1,-2
82152799644,-4,-6,-3,0,0,-1,1,-2
82152799644,9,1,-1,-2,-2,-1,-2,8
82152801276,-3,-3,-4,-1,0,0,-3,-5
82152801276,4,0,-1,-1,1,-2,-1,-4
82152813225,-1,2,-1,-1,1,-1,-2,-1
82152813225,-3,12,0,-2,-2,-1,-1,2
82152822296,-2,-13,-1,0,0,-1,1,1
82152822296,4,-8,-3,-4,-2,-1,-2,-2
82152837138,-2,0,0,-1,-4,-1,-1,-4
82152837138,2,-3,-2,0,-2,0,-3,0
82152838762,-4,2,0,1,-1,-1,-1,-3
82152838762,-5,-1,2,-1,-2,-1,-2,-6
82152859663,3,-4,-2,1,-1,-1,2,9
82152859663,-2,-9,-2,-1,-1,0,-1,-4
82152861287,-1,5,1,-2,0,-2,-1,-2
82152861287,1,-3,-2,0,-1,-2,-2,-1
82152873280,0,-3,-3,-2,0,0,-3,-2
82152873280,-5,11,2,-2,-1,0,2,4
82152882321,0,-11,-3,1,-1,-1,1,3
82152882321,1,2,0,2,-2,1,0,2
82152897198,-10,-4,-2,-3,-3,-1,-2,3
82152897198,2,-3,1,2,0,-1,0,-15
82152898880,-3,-3,-1,-3,1,1,1,1
82152898880,0,5,-1,-1,-1,-2,0,3
82152919709,1,-5,-2,-3,0,0,-1,-1
82152919709,1,10,0,2,-2,-2,-4,1
82152921275,-2,-7,1,-1,-4,0,-1,-3
82152921275,1,-8,-3,-6,-3,0,-1,1
82152933500,-6,12,-1,-6,-2,-2,-2,-7
82152933500,3,-1,-5,0,0,2,1,4
82152942317,0,10,1,2,-1,-1,-1,-1
82152942317,-1,1,1,7,4,0,-1,-3
82152957162,9,-5,-1,-2,-5,-2,-2,0
82152957162,-4,-9,2,15,1,0,2,6
82152958832,-13,-2,-7,-20,-5,-5,-3,-1
82152958832,16,6,4,5,6,1,1,0
82152979827,2,-2,-2,-28,-5,-2,0,-1
82152979827,-5,-13,-4,1,-3,-2,-3,-2
82152981338,3,2,-1,0,3,1,-1,0
82152981338,-5,4,0,16,3,-1,1,2
82152993367,-6,3,-1,7,1,-2,-2,-5
82152993367,3,-13,-3,-6,-2,-2,-2,3
82153002265,-5,-2,-1,-5,3,-2,-2,-3
82153002265,-7,-9,-4,3,-5,-2,-1,-3
82153017524,2,4,2,9,1,2,1,-2
82153017524,-11,-8,-6,-57,-13,-5,-2,0
82153030869,12,7,2,39,4,1,1,2
82153030869,-4,-8,-6,-25,-2,-3,-4,-1
82153039916,-4,-5,-4,-14,-4,-3,-2,-1
82153039916,-3,-2,0,16,7,2,0,-1
82153041338,-5,-2,1,-9,-2,0,-2,-2
82153041338,15,7,3,25,2,-1,-2,1
82153053352,-4,9,-2,-21,-3,0,1,-4
82153053352,10,-3,-1,18,6,0,-2,-1
82153062388,1,4,-2,-54,-8,-2,0,1
82153062388,-4,-3,0,47,-5,-1,0,0
82153076743,-4,-3,3,28,2,-2,-2,-1
82153076743,-1,-4,1,10,8,2,0,-5
82153083396,-2,-3,-2,3,-9,0,-1,3
82153083396,-6,4,1,-58,-4,1,0,-3
82153099705,1,-9,-7,-9,1,-3,-1,-2
82153099705,-4,0,-4,30,-5,-3,-2,-3
82153101306,-3,-3,5,34,9,0,3,1
82153101306,-4,-5,-7,-38,-7,0,0,0
82153113548,1,-4,3,48,7,-1,-1,1
82153113548,-3,5,1,-49,-1,0,-1,-5
82153122358,-4,-16,-9,22,-7,-2,-1,-2
82153122358,-1,-3,-1,5,6,1,2,0
82153136551,-3,-5,-4,-33,-4,-1,-2,-3
82153136551,0,6,2,28,2,0,-3,1
82153143315,2,4,3,-14,0,-2,-4,-3
82153143315,-4,-3,-2,-28,-4,-2,-6,1
82153159697,-1,-5,-1,16,4,-2,-1,-1
82153159697,0,-4,1,0,3,-3,-1,2
82153161282,-2,1,0,10,7,2,-3,-2
82153161282,-4,-4,-3,-12,-12,-5,-6,-5
82153182162,-3,-1,2,6,2,2,-5,2
82153182162,3,-1,-1,-14,-3,2,0,4
82153183775,-2,-1,-3,-10,4,-7,3,4
82153183775,-2,2,-4,37,7,-5,-4,7
82153196459,13,-19,-1,8,-7,-1,-1,-4
82153196459,0,1,-4,-21,-5,-1,1,-6
82153203301,-5,-1,-5,4,1,4,1,-8
82153203301,-1,2,0,11,-2,-4,-2,5
82153219607,-5,2,-4,-58,-21,-4,-2,-1
82153219607,5,-5,0,0,3,5,-1,1
82153221257,4,1,-2,23,-3,-8,5,-1
82153221257,0,-5,-2,-10,3,5,5,-6
82153242174,-2,2,4,19,7,2,1,-7
82153242174,-1,3,6,20,2,-13,-1,0
82153243753,-5,3,-6,-26,-10,5,-3,-8
82153243753,-3,-25,2,22,3,6,-6,4
82153256478,-6,2,2,21,16,3,0,-15
82153256478,-11,-8,-14,-84,-37,-17,2,4
82153263285,5,6,8,21,8,5,-2,2
82153263285,-5,3,-4,7,2,-6,-1,-10
82153279703,-2,2,-3,-15,0,-1,-1,7
82153279703,-1,-3,-2,12,9,3,-5,-10
82153281389,7,0,0,-1,1,6,-3,-9
82153281389,-9,10,-4,-57,-14,18,21,36
82153302221,3,2,4,42,8,-15,0,16
82153302221,-6,2,-1,16,8,2,-9,-17
82153303859,12,5,-5,-42,-22,-23,-2,20
82153303859,3,5,3,30,9,18,-3,-14
82153315885,1,-19,-3,-18,-13,1,1,1
82153315885,-6,2,1,-2,5,-26,1,1
82153324808,-9,-3,-3,4,-11,-4,-12,-14
82153324808,3,-2,-4,-11,2,-5,-1,-8
82153339837,-3,1,-2,16,7,32,11,0
82153339837,1,-3,-2,-29,-25,-23,-26,-22
82153341323,-11,-4,4,24,1,-23,16,14
82153341323,11,0,-9,-1,-32,-33,-14,2
82153369919,-7,6,2,-9,22,12,-16,-8
82153369919,3,1,3,33,21,103,51,19
82153371274,0,-1,-4,16,-11,-55,-34,-40
82153371274,-5,-1,-3,-82,-7,-12,9,14
82153376075,-9,-5,-10,-14,-14,7,-3,-1
82153376075,4,0,-2,33,10,-6,-21,-7
82153384878,5,12,5,-15,0,-24,14,34
82153384878,-5,-10,-4,44,-17,-52,-5,-39
82153399781,-1,3,4,-9,1,22,5,21
82153399781,-4,1,0,-12,27,54,-7,-23
82153401320,7,1,-5,-8,-3,19,27,31
82153401320,-21,0,3,11,-7,19,-4,-44
82153422253,4,0,-5,-14,0,-34,-8,12
82153422253,4,-3,1,-13,-12,-35,-8,18
82153423766,-7,-5,7,-15,-19,-35,-21,4
82153423766,-4,-3,-4,20,21,92,20,6
82153435808,0,-1,-2,16,1,-9,-18,-56
82153435808,-2,-4,-6,-28,-1,-49,18,17
82153444884,-5,-2,2,6,9,9,5,39
82153444884,7,2,4,23,9,-35,-11,20
82153459890,-5,0,-7,-25,-5,42,5,-12
82153459890,-5,-2,0,-38,-17,-40,-26,-22
82153461329,-6,8,-6,-20,-14,25,11,-5
82153461329,2,-2,-6,-29,-8,64,27,-11
82153482229,-1,1,3,22,19,-41,-13,9
82153482229,-7,0,-1,47,18,-4,-9,-13
82153483807,1,-2,4,3,2,17,-7,-10
82153483807,-2,-3,-9,-17,3,-40,-24,-9
82153495902,-4,0,7,0,-26,-25,18,1
82153495902,-1,3,-4,7,-20,31,29,-12
82153504816,-3,-5,2,20,2,17,-14,10
82153504816,2,-3,-4,-24,8,-10,2,4
82153519713,7,4,5,-7,-18,-9,-5,7
82153519713,-6,-8,-9,26,7,-12,-7,-1
82153521257,-1,-4,2,9,26,36,8,3
82153521257,1,-1,2,-19,-1,-23,-8,11
82153542404,4,12,1,13,-17,-16,-2,-3
82153542404,2,-1,1,-13,-1,12,1,9
82153543773,2,-5,-7,27,-5,-7,-18,-32
82153543773,-5,2,5,26,1,1,6,4
82153556107,-3,-4,-7,-17,8,16,9,-62
82153556107,12,0,-3,-21,-2,-7,6,60
82153564871,-6,-5,-3,5,-6,-14,-10,-30
82153564871,4,5,-1,-42,2,6,2,18
82153581142,-4,-6,-14,25,-24,16,-14,-37
82153581142,-6,-1,9,-19,-27,-12,9,19
82153582862,3,-4,-2,15,15,-16,3,-4
82153582862,0,3,2,18,9,-1,-6,-13
82153609867,-2,-5,1,-2,11,4,7,42
82153609867,-3,-2,3,2,-14,-3,-10,-13
82153611319,-4,-4,-12,-36,16,20,4,-3
82153611319,4,8,-2,-17,-27,-18,-10,9
82153615909,-1,-9,-6,16,26,-2,12,22
82153615909,3,-2,3,55,-1,-2,2,10
82153624852,1,-1,2,-53,-22,2,4,-6
82153624852,-6,-4,-1,33,9,-11,-21,-16
82153639890,3,6,-1,-35,20,0,8,19
82153639890,-1,-1,-4,24,-5,4,-4,-17
82153641279,-5,-7,-7,8,1,4,5,9
82153641279,-7,-8,-4,-14,-11,-10,1,-8
82153662317,4,4,3,-34,-8,1,-7,10
82153662317,-3,-7,4,29,30,11,3,-10
82153663795,-7,0,1,3,5,-1,-3,-11
82153663795,3,-4,4,13,-2,-2,3,-1
82153676032,-3,-13,7,32,-1,-6,-4,3
82153676032,1,4,-5,-91,-16,2,-9,-11
82153684864,-3,-5,-9,14,20,9,11,-7
82153684864,0,-2,3,47,-13,-7,-2,13
82153699723,-5,0,0,-7,-11,-6,-3,-9
82153699723,-1,3,-10,-24,-12,-10,-8,-9
82153701362,-6,-3,-3,-32,-16,0,-5,9
82153701362,-3,0,4,66,25,2,4,-1
82153722208,3,-3,-6,-9,-7,-11,4,-10
82153722208,-3,7,6,3,10,5,0,10
82153723746,3,14,0,-5,9,5,-2,-2
82153723746,-1,-20,1,-55,-38,-1,-4,-3
82153735925,-5,-2,3,56,28,-2,-5,-7
82153735925,-2,-4,0,15,3,-4,4,5
82153744809,6,1,2,4,1,0,-3,-2
82153744809,0,7,3,-11,5,5,-2,-10
82153759871,-5,2,-8,48,12,-3,-5,3
82153759871,-3,-9,-8,-38,-14,-2,1,-3
82153761338,-1,-2,4,-7,-2,-1,-4,-14
82153761338,9,1,-7,-16,-8,-1,-1,12
82153782424,6,15,3,10,-1,-1,-2,20
82153782424,1,6,-7,-44,-10,-5,-5,-5
82153783867,3,-8,0,20,-8,1,-4,-3
82153783867,-19,1,-9,-26,4,0,-3,-11
82153804157,3,3,9,21,1,-1,2,2
82153804157,-2,-1,2,15,-6,-1,-4,-6
82153804786,0,-3,0,-3,9,-3,-1,-4
82153804786,0,0,4,13,12,8,2,-2
82153819015,0,-7,-3,-47,-23,-3,-2,2
82153819015,1,-5,9,52,26,5,9,6
82153819822,-9,-4,-2,-56,-18,-7,-7,-6
82153819822,15,-8,1,23,13,1,1,12
82153841687,-2,-3,-6,-16,2,-2,4,5
82153841687,3,3,4,20,1,2,-2,3
82153842292,1,1,4,17,-15,0,1,-2
82153842292,-4,2,1,-1,5,0,3,-1
82153864233,-2,-3,-3,-27,-15,-5,1,1
82153864233,-3,1,1,23,31,0,-9,-15
82153864837,2,0,1,-20,-28,6,12,10
82153864837,-3,4,2,7,23,-5,-6,-6
82153879164,-7,-1,-5,-27,-33,-4,-5,-9
82153879164,7,-2,4,-17,-15,-1,5,4
82153879748,3,0,-4,31,2,-2,-1,4
82153879748,2,10,3,-38,-6,-7,-6,-6
82153901510,-4,-12,-13,14,12,3,-2,-1
82153901510,-9,-9,4,3,6,0,9,8
82153902251,-3,-5,-19,6,2,-1,-6,0
82153902251,7,15,31,20,-9,-7,-5,-17
82153924238,2,-7,4,-4,6,6,1,4
82153924238,-7,-11,-17,7,-4,4,-3,-5
82153924826,9,5,-8,-31,0,1,-7,-1
82153924826,-16,-8,0,26,12,-1,-9,-31
82153939026,3,4,-7,22,-13,-8,-2,-67
82153939026,-1,19,25,15,-10,-1,11,46
82153939794,3,3,3,17,13,8,9,-12
82153939794,-17,-18,-5,-7,-8,-7,-19,-8
82153961617,41,2,10,-19,15,20,26,-35
82153961617,-13,-15,-1,-15,-11,-3,-3,44
82153962361,21,31,21,65,5,-15,-43,-87
82153962361,50,19,-10,23,-22,-9,28,103
82153985495,6,22,1,16,10,6,-4,-19
82153985495,-51,-8,-12,-89,-18,-9,-12,23
82153987481,-13,-48,-17,48,31,12,0,-22
82153987481,0,-7,-1,67,1,4,15,-14
82154000232,0,1,-4,-76,-33,-18,-13,42
82154000232,-22,19,9,56,0,-14,-32,-101
82154001034,-24,1,-2,-52,-10,2,13,-7
82154001034,-30,-1,-29,-10,10,3,-6,-29
82154021438,6,16,13,-16,-3,2,-16,-28
82154021438,-36,-11,-24,46,16,-2,8,-37
82154022280,-12,-7,8,-15,-15,-19,6,37
82154022280,-6,3,2,2,-11,6,-8,-21
82154043958,1,-10,-8,6,10,-4,15,60
82154043958,41,-4,-13,-29,4,6,-1,11
82154044738,4,9,22,40,32,17,3,8
82154044738,12,-9,-9,-5,2,12,22,4
82154058993,-21,-24,-24,-3,-45,-22,-28,-4
82154058993,45,10,11,52,-7,26,22,24
82154060718,-8,-4,-9,32,18,-28,-11,13
82154060718,-3,1,12,24,30,5,-13,-4
82154082836,-3,-7,3,-10,0,-1,6,17
82154082836,5,12,-7,-35,-12,-7,-1,-14
82154083604,2,5,5,-29,-8,6,1,-7
82154083604,0,-11,-1,-10,-7,-9,-1,8
82154103901,-19,-3,-6,36,17,-3,0,-3
82154103901,5,-7,-2,-22,-9,-3,-5,-9
82154104722,21,8,1,12,-7,-1,3,17
82154104722,-11,7,-7,-56,-16,-4,-3,0
82154118978,-2,-2,7,17,4,4,1,7
82154118978,-1,-5,0,40,17,-3,-6,-12
82154119748,18,19,-24,-76,-27,-5,1,11
82154119748,-13,-24,22,10,6,10,7,-1
82154141437,5,-3,14,33,8,4,2,-7
82154141437,-16,-7,-12,-27,-5,-6,-3,1
82154142230,-4,-8,4,1,-3,4,4,5
82154142230,10,8,-13,5,-5,-5,-6,-5
82154164076,2,-7,-3,-21,-12,-1,0,7
82154164076,20,0,4,7,-1,-3,-1,1
82154164825,-24,-10,-7,8,2,0,4,13
82154164825,-5,2,-6,-19,1,-1,-4,-13
82154187218,-13,-9,-10,-1,7,1,0,3
82154187218,7,4,4,-1,-10,-2,0,-2
82154187934,-3,-3,-4,-12,-5,-1,-3,-7
82154187934,12,0,-5,2,-2,-2,-1,4
82154201526,-9,5,5,20,8,3,3,-1
82154201526,-10,-10,4,-3,-6,-3,-1,-2
82154202261,-15,-9,2,31,0,0,0,0
82154202261,-13,6,-1,0,3,1,-1,0
82154224231,-9,-6,-4,-19,-5,-1,-2,-2
82154224231,2,4,0,-9,-2,-2,-1,-1
82154224791,-2,-8,-4,7,0,-4,-2,1
82154224791,4,3,-3,-7,-9,4,-2,0
82154239009,-7,-3,-2,-8,7,4,2,-1
82154239009,4,-2,-8,-3,4,-9,-3,-1
82154239743,1,-2,7,4,-3,3,-1,1
82154239743,9,6,0,-6,5,-4,-4,0
82154261547,3,6,4,10,3,2,0,1
82154261547,-1,-3,-1,-3,-1,3,1,3
82154262246,2,2,-1,-4,-3,-2,2,-3
82154262246,-6,-6,-3,6,-2,-1,-3,-2
82154284078,-1,0,1,-36,-13,0,0,1
82154284078,8,5,-1,19,6,-2,0,-1
82154284854,2,1,-1,-17,-3,-4,-5,0
82154284854,1,-4,-1,0,-1,-3,-2,2
82154299013,-20,-1,1,-1,-2,6,0,-3
82154299013,1,4,-3,-8,-6,-12,0,-4
82154299791,0,-1,-2,-7,-3,4,-3,-1
82154299791,0,-2,0,-7,-6,-10,-4,-1
82154321509,3,7,3,14,1,-1,2,-1
82154321509,-2,-2,-1,4,3,12,-3,-2
82154322258,-2,-1,0,-19,-3,10,2,1
82154322258,-1,-6,-1,6,9,-13,1,-1
82154344179,3,2,-6,-12,-6,1,-7,-4
82154344179,-9,-7,-2,13,-2,-1,0,-4
82154344792,-4,-9,-4,6,-3,-1,-1,1
82154344792,-6,-2,-1,-13,0,-8,-5,-1
82154359007,1,0,1,-13,1,-3,4,2
82154359007,-4,-6,0,64,5,-1,-2,1
82154359793,4,2,-1,-3,1,2,-1,0
82154359793,1,1,-1,6,-3,5,0,1
82154381539,12,6,-5,0,6,-5,-1,0
82154381539,-1,5,1,-42,-7,3,-3,-2
82154382291,1,2,-2,14,-1,-9,-1,0
82154382291,1,0,1,3,2,10,3,-1
82154403919,6,2,4,9,-5,-3,-6,-1
82154403919,2,-2,1,-7,2,-2,-1,1
82154404725,2,-1,-1,8,4,-2,0,0
82154404725,-9,-11,-3,-15,-7,-5,0,0
82154418956,-5,-6,-5,3,0,9,0,-1
82154418956,19,6,5,16,9,-10,2,-1
82154419754,-3,-2,0,-33,-19,-7,-8,1
82154419754,1,-1,-3,7,1,1,-1,-1
82154441544,-6,-4,2,16,8,-1,3,0
82154441544,-4,-6,-3,-7,3,11,1,-2
82154442291,3,2,1,-3,-2,-2,0,-3
82154442291,4,6,-2,-14,-12,-5,-3,-3
82154464030,-9,-18,-6,11,-2,-8,-5,-2
82154464030,-3,2,-2,-24,-3,-3,-1,0
82154464772,-1,-1,-2,16,10,8,5,-1
82154464772,-1,-1,-2,10,1,-4,-4,-1
82154478976,-1,2,-1,17,-1,-9,0,0
82154478976,-1,-2,0,-15,-4,7,-2,0
82154479752,10,-6,-4,15,0,-3,1,-2
82154479752,9,6,3,-5,5,4,-1,2
82154501536,1,3,1,11,-8,-5,-4,-2
82154501536,-1,-3,-4,1,-2,-1,-1,-2
82154502276,-3,-1,-2,-5,-2,0,0,-5
82154502276,0,-2,-3,-8,-3,0,1,0
82154524175,0,0,0,0,2,-12,-8,-7
82154524175,-5,-2,-2,0,-3,7,2,-3
82154524816,-2,0,1,-9,7,0,1,1
82154524816,-1,-1,-3,0,2,2,5,-2
82154539185,1,8,0,-9,-8,2,3,5
82154539185,1,-3,-3,4,-1,-6,-7,-2
82154539754,4,10,-1,2,-6,-5,-2,-3
82154539754,-9,-8,2,-7,2,3,-3,-5
82154561684,4,0,-1,8,-2,2,2,6
82154561684,-3,0,1,-2,4,-9,-2,-3
82154562334,-10,-4,-7,-63,-21,4,-1,-1
82154562334,19,3,-2,17,-1,-9,-3,-1
82154584011,-2,1,1,8,4,5,0,-3
82154584011,-3,-4,-1,-19,-8,-4,-2,1
82154584786,-5,-4,2,18,8,9,4,-2
82154584786,-5,-4,-5,-6,-7,6,0,-1
82154598398,5,18,2,-13,0,-13,-4,-3
82154598398,0,-1,-2,6,0,-2,0,1
82154606562,6,3,-2,3,3,5,-7,-2
82154606562,-5,-2,1,-1,-2,2,3,1
82154621555,0,0,-2,-2,8,5,-1,-3
82154621555,-5,-1,-3,1,-9,-5,-1,-3
82154622291,-6,1,1,12,3,-4,1,3
82154622291,-1,1,-2,-9,-1,-1,1,0
82154644186,-4,-8,-3,-13,-1,-1,1,2
82154644186,-2,-4,1,6,1,-3,-7,-3
82154644797,-3,-8,-2,-14,0,-3,-1,4
82154644797,16,4,-1,11,5,2,2,4
82154659198,29,15,7,7,-4,-2,1,2
82154659198,1,0,-3,-6,-1,-7,-3,0
82154659819,-6,-17,0,-9,-3,1,-2,-4
82154659819,-1,2,0,-6,-1,-5,-2,1
82154689805,-8,-9,-5,16,0,0,-1,-2
82154689805,-3,4,-1,-2,-3,2,2,0
82154690480,3,6,2,20,10,-6,-8,-5
82154690480,-7,-6,-3,-17,-9,-3,-2,2
82154704017,-10,-11,-5,-32,-9,2,-2,-2
82154704017,-6,-3,-1,-1,2,-1,-1,-5
82154704754,-3,-2,-3,3,-1,-4,2,-1
82154704754,-9,-6,0,-3,-4,3,-2,-8
82154718359,-7,-1,1,3,3,1,-4,-1
82154718359,3,-4,-4,-13,-9,-1,-2,-2
82154726600,2,3,-7,2,-2,-5,0,-3
82154726600,-5,14,1,24,1,-3,-2,-4
82154741563,-43,-17,-12,-39,-6,-3,-2,-14
82154741563,2,0,4,-3,2,2,-2,5
82154742293,0,-2,-2,1,-1,-2,-1,4
82154742293,-12,16,1,1,-4,-5,-5,-5
82154764209,0,-30,-3,-11,-1,4,5,2
82154764209,0,1,-3,5,2,6,0,-1
82154764783,-10,-2,-2,4,-6,-16,-7,-8
82154764783,11,2,1,-16,-2,3,1,7
82154778351,8,10,3,10,2,1,-2,1
82154778351,-1,2,-2,9,1,4,0,-6
82154786500,7,7,2,-4,-3,0,1,-4
82154786500,-3,-10,-3,-17,-2,-4,-1,1
82154801563,1,5,1,21,5,-3,-2,1
82154801563,0,-2,-2,-25,-4,0,4,4
82154802253,-5,1,-2,16,0,3,0,-1
82154802253,-4,-12,-2,1,-1,-2,-2,1
82154824214,-24,0,-3,-4,-2,-1,-5,-8
82154824214,1,3,4,26,4,-2,1,-2
82154824794,-2,-4,-3,-2,-7,0,0,0
82154824794,-11,-5,0,8,1,-2,-2,-7
82154838429,10,-3,-6,-33,-6,0,2,2
82154838429,-15,-10,-4,-4,-2,-3,-2,-8
82154846734,5,1,1,-14,-2,-1,-3,0
82154846734,-3,-5,-3,9,1,-1,0,-6
82154861642,1,-12,0,-1,-3,-3,-1,5
82154861642,-2,-5,-3,4,-3,-4,-3,0
82154862285,5,2,1,-1,1,0,-1,-6
82154862285,3,18,1,-11,-5,-1,-1,21
82154884021,6,4,1,7,3,-1,-3,-10
82154884021,3,2,0,-8,-1,0,0,4
82154884771,-5,-11,-1,4,3,1,3,8
82154884771,0,3,0,2,-1,1,2,-2
82154898544,1,2,0,11,-1,-1,-3,2
82154898544,27,9,0,-1,1,-2,-1,5
82154906551,-27,5,-3,13,5,0,-3,-7
82154906551,-6,8,-3,-25,-4,-4,-4,-3
82154921490,9,4,0,7,0,0,2,6
82154921490,3,-3,-3,-10,0,-1,-3,-5
82154922305,0,0,0,-5,2,3,3,1
82154922305,9,4,-2,0,-4,0,-1,-8
82154944214,-9,-9,-3,4,2,-3,-2,-6
82154944214,-4,6,-3,3,-3,-1,0,12
82154944846,17,11,2,-1,1,-1,0,-2
82154944846,-3,-12,-3,14,7,1,2,4
82154958371,14,3,-1,-11,-12,-3,-3,-8
82154958371,-10,-2,0,4,3,1,0,-6
82154966502,-2,-5,-3,-7,-3,-3,-3,-2
82154966502,-1,-12,0,5,-1,-2,-1,-4
82154981602,9,21,3,4,4,-2,1,3
82154981602,-6,-32,-2,-4,-2,-1,-1,-4
82154982322,-3,-7,-1,-7,0,2,0,4
82154982322,19,5,-1,9,-1,-1,-3,-9
82155004047,-9,-2,-3,7,5,-1,-1,0
82155004047,-3,3,-2,-37,-13,-3,-4,-5
82155004753,2,0,-2,-5,-1,-2,0,1
82155004753,-3,-10,-1,-6,-2,2,0,-1
82155018276,-2,-4,-2,14,-2,0,-2,0
82155018276,-10,0,0,13,2,1,-2,-2
82155026456,3,-3,0,1,-2,-2,-3,-3
82155026456,-13,-22,0,-2,-4,-3,-2,-1
82155041450,-7,-36,-10,-14,0,0,0,0
82155041450,9,9,5,2,-3,0,1,-1
82155042269,-2,0,0,10,-5,-1,-1,0
82155042269,-2,-1,-1,4,-2,0,2,-1
82155063943,-1,5,-3,0,-1,-3,-1,-1
82155063943,-4,-6,-4,1,2,-1,-1,-4
82155065647,0,-1,-1,-11,-3,-1,-3,-5
82155065647,6,0,-3,-6,-1,0,-1,8
82155087166,-6,6,3,6,-1,-1,-1,0
82155087166,2,16,-2,-9,-2,-1,-1,-2
82155087977,-3,-11,-2,-11,-5,-2,-2,-4
82155087977,-10,-3,1,-2,-3,0,-2,-5
82155101577,-2,5,-2,4,0,-2,1,-1
82155101577,-5,1,1,-7,-1,-1,0,1
82155102275,1,-4,1,6,1,-1,0,2
82155102275,3,7,0,3,0,1,-1,-3
82155123984,-26,-11,-4,-21,-5,-4,-3,-2
82155123984,1,-1,1,11,6,-2,-2,-3
82155124846,-1,0,-3,-9,0,1,-1,-3
82155124846,-4,19,0,10,1,-2,-2,0
82155147125,9,5,3,7,-1,0,1,0
82155147125,-2,-4,-4,5,-1,-3,-1,-1
82155147946,0,2,-2,-10,-3,-2,-1,-1
82155147946,-3,-3,-4,-9,-2,-2,-1,-3
82155161480,-5,-6,-4,-7,-3,1,-1,-2
82155161480,7,4,0,-3,-2,1,0,-2
82155162271,-10,1,-5,3,-3,-1,-2,4
82155162271,-12,-8,-2,-6,0,-1,-1,-2
82155183955,2,7,3,4,-1,0,-2,-5
82155183955,1,-3,-5,2,-4,-2,-2,7
82155184839,-4,-4,-1,2,-1,-1,-2,-3
82155184839,2,-4,-2,-2,2,-1,-1,0
82155207158,-1,-1,-2,-6,-3,-2,-2,-1
82155207158,-18,-8,-3,11,-1,-3,-2,-8
82155207921,4,16,1,6,2,1,0,-3
82155207921,5,-25,-3,-3,-2,-2,-1,1
82155221521,13,30,4,-2,0,2,-1,-2
82155221521,6,-9,-2,-1,0,0,0,8
82155222320,8,0,1,1,-1,-2,1,0
82155222320,0,5,-3,-6,-3,-1,-2,4
82155244012,5,10,6,3,2,1,-2,-10
82155244012,-9,-7,-3,0,-1,-1,-2,2
82155244814,-4,-3,-1,-2,-1,-2,0,-2
82155244814,-7,-16,-8,-4,-3,-3,-2,6
82155267115,30,3,2,2,-1,0,1,3
82155267115,-12,2,1,2,0,0,0,-6
82155268015,-19,-16,-2,-2,-1,-3,-2,2
82155268015,-1,0,-1,-2,-2,-2,-4,-28
82155281442,-10,-53,-5,-1,-2,-2,-1,-19
82155281442,20,3,4,0,0,2,1,-2
82155282207,11,12,1,3,0,0,1,1
82155282207,-1,27,2,1,2,0,-1,6
82155303978,-23,-14,-3,-4,-3,-2,-5,-4
82155303978,3,5,-1,0,1,-2,-2,-7
82155304719,-6,-21,-4,-3,-2,-3,-1,5
82155304719,16,6,5,2,1,1,2,0
82155327200,3,11,-1,3,-1,2,0,5
82155327200,-30,-11,-2,-4,-2,0,-2,-3
82155327956,8,9,-1,-2,-1,0,-2,2
82155327956,-1,-7,1,-1,0,-1,-4,-3
82155341459,-3,5,-3,0,-2,-3,-3,5
82155341459,6,3,0,-3,-1,-2,-2,2
82155342264,-4,-8,-8,-8,-4,-3,-4,-10
82155342264,-15,-8,-2,-2,0,0,-1,0
82155364072,2,-4,3,2,0,-2,1,7
82155364072,8,6,-3,0,-1,0,-1,-2
82155364746,-7,-13,-5,-7,-3,-2,-1,-8
82155364746,-10,-13,-5,3,-2,-1,0,8
82155387228,1,11,-1,0,1,0,0,6
82155387228,-16,-5,0,-2,-2,-2,-2,-1
82155387914,8,21,3,6,1,2,0,-4
82155387914,14,-2,-1,-3,-1,-1,1,14
82155401530,10,2,2,0,0,0,4,-14
82155401530,6,-1,-3,-2,-4,-1,0,4
82155402311,12,12,2,0,1,-1,-1,2
82155402311,9,6,-3,-7,-3,-2,-3,-5
82155424144,5,2,-2,-2,-2,-1,-2,16
82155424144,16,18,-1,0,-1,-3,-2,-3
82155424816,-2,1,-2,0,0,0,0,0
82155424816,0,2,2,1,0,-1,-1,-4
82155447211,8,-2,-3,-3,0,-3,-3,-3
82155447211,-8,-6,-4,-1,-3,1,1,2
82155448019,-15,-13,-4,1,-2,0,0,0
82155448019,3,10,5,1,2,-1,1,-6
82155461715,-6,-4,-2,0,-3,2,0,1
82155461715,-4,-4,-1,3,0,-2,0,-4
82155462274,12,-21,0,-3,-1,-1,1,1
82155462274,-36,-9,-2,-4,-4,-2,-2,0
82155484110,-10,6,0,-5,-2,-3,-2,-4
82155484110,20,4,1,1,0,-1,-2,28
82155484786,5,26,5,0,0,0,1,-14
82155484786,7,3,-1,2,-1,-1,0,-3
82155507381,-3,-2,-2,-1,1,0,-2,1
82155507381,-13,-12,-2,-7,-1,-1,-1,-5
82155508006,-4,-3,-3,-1,0,-3,-3,1
82155508006,3,-1,-1,2,-2,0,-2,-1
82155521524,1,-12,-4,-4,-2,-1,-1,-2
82155521524,-8,-2,1,1,0,-2,0,8
82155522336,-6,-12,0,-2,-1,-1,-2,0
82155522336,11,9,1,2,0,0,0,-6
82155544701,-1,-6,0,1,-1,-2,-1,2
82155544701,-6,8,-2,0,-1,0,-1,-10
82155545470,12,-8,0,-2,-3,0,-3,-1
82155545470,1,-7,-1,-1,-1,-2,0,7
82155567218,-23,4,-1,-2,-1,-2,-2,0
82155567218,0,8,1,-2,-1,2,1,-24
82155567954,-2,0,-4,1,-2,-2,-2,3
82155567954,-4,-5,-3,2,-1,-1,-2,-3
82155581699,7,6,-3,-1,-1,-1,-1,1
82155581699,2,-7,-2,-2,-3,-2,-2,-2
82155582310,-5,-1,-2,-1,0,-1,0,2
82155582310,-13,-10,-1,-5,-2,-3,-1,-11
82155604863,7,3,-1,-1,-1,-2,-1,0
82155604863,-18,-31,-3,0,0,-2,-3,-2
82155605440,-5,-11,-3,1,-2,-1,-1,-3
82155605440,1,2,0,-7,-3,-2,-1,1
82155627378,-5,5,-2,-3,-3,-1,-1,-4
82155627378,22,4,2,0,0,-1,-1,-2
82155627997,2,3,0,-2,-2,-1,0,4
82155627997,6,-5,-1,1,0,1,-1,-4
82155640882,-6,5,-1,1,1,1,-1,-2
82155640882,-11,-5,-2,0,-1,-3,-1,0
82155649086,-4,-4,-4,-8,-4,-2,-2,2
82155649086,25,3,1,2,0,0,1,13
82155664690,-8,-7,-1,-4,-2,-1,1,-20
82155664690,16,14,1,-1,-1,-1,-3,-3
82155665475,7,-36,-5,0,-1,-1,-1,5
82155665475,-7,2,-3,-2,1,-1,0,2
82155687410,5,-1,-2,1,-1,-1,0,4
82155687410,6,7,1,0,-1,-1,0,-2
82155687953,-3,13,2,1,-1,-1,-2,-6
82155687953,-8,-3,-1,-3,-3,-2,-2,-7
82155700996,8,0,-1,-3,-3,-3,-5,-1
82155700996,-14,-14,-4,-2,-2,-1,-1,7
82155709073,-16,7,2,0,-1,0,0,-1
82155709073,6,9,0,1,-1,0,-1,-3
82155724857,3,4,-1,1,-1,0,-2,3
82155724857,-3,0,-2,-4,-3,-1,-2,-3
82155725478,-18,6,2,3,-1,-1,-2,-2
82155725478,1,7,-5,-5,-1,-2,-1,2
82155747398,-2,11,1,1,-2,-2,-1,-1
82155747398,2,-3,0,-2,-1,-2,-1,-1
82155747951,3,-1,-3,0,-1,-2,-1,-2
82155747951,-1,-5,-2,-7,-3,-1,-2,-5
82155760974,-9,-3,-3,-2,-1,-2,-4,5
82155760974,-9,-3,-2,0,2,-1,-1,-6
82155769026,23,11,2,-1,0,-2,0,4
82155769026,-1,9,0,-1,-1,-1,-3,-5
82155784658,-15,-45,-4,-1,0,-1,-2,3
82155784658,7,7,-2,-2,-2,0,0,2
82155785419,-4,-1,-4,-3,-2,-1,-3,-5
82155785419,-6,-2,-1,2,-2,-2,-1,2
82155807409,-19,-4,-4,-3,-3,-1,0,-5
82155807409,-31,-29,-9,-3,-3,-1,-3,-2
82155807980,-4,-1,-2,-1,-3,-2,-1,-1
82155807980,-18,-6,-2,0,0,-3,-2,-10
82155820899,15,18,6,5,1,-1,1,4
82155820899,10,12,3,2,0,0,-2,17
82155829022,-3,1,-2,-5,-1,-1,-1,-9
82155829022,-2,-11,-3,2,2,-1,0,-2
82155844877,8,-9,-2,-6,-5,-2,-3,-11
82155844877,15,5,1,2,0,-1,1,9
82155845446,1,9,1,4,1,-2,0,-2
82155845446,-1,15,-1,-5,-1,0,-1,3
82155867350,3,4,0,2,2,2,0,3
82155867350,-5,-26,-4,-2,-1,-1,1,-6
82155868004,8,2,3,-1,0,0,0,2
82155868004,4,-3,-1,0,-2,-1,-1,-4
82155881089,-3,4,0,1,-1,-1,0,3
82155881089,7,3,-1,-1,-2,-1,-1,-5
82155896651,-1,24,3,-2,-1,1,-1,-2
82155896651,34,0,4,6,-1,0,-1,11
82155904864,-1,2,0,-3,0,0,-1,1
82155904864,2,3,-2,-2,-1,-2,-1,-8
82155905493,-2,-8,-4,-1,0,-2,-2,-25
82155905493,-12,-3,2,-3,1,-1,1,-3
82155927344,-3,-5,-3,-1,-2,-1,-1,0
82155927344,-3,8,-1,0,-1,-1,0,-2
82155927986,1,0,-4,-1,-2,-1,-2,6
82155927986,-20,-8,-2,-4,-2,-1,-2,2
82155940905,-7,-9,-4,0,-2,-4,-2,-7
82155940905,-7,-4,-3,-4,-3,-2,-5,-5
82155949248,-2,1,-1,-1,-1,0,1,7
82155949248,3,12,2,1,0,-1,1,-4
82155964697,-2,1,-2,-3,0,-3,-1,6
82155964697,4,24,1,0,0,0,-1,-2
82155965452,1,-9,0,0,-2,-2,-1,7
82155965452,-5,-4,-5,-1,-1,0,-1,-6
82155987209,-5,-1,-2,-2,-4,-1,0,-23
82155987209,8,7,1,2,1,-2,0,1
82155987965,-12,-31,-3,-1,-1,-1,-2,3
82155987965,-8,-6,-5,-5,-1,-1,-2,1
82156000987,9,6,3,-1,0,-1,-1,9
82156000987,-5,-11,0,1,-2,-2,-2,-7
82156009082,-1,17,-1,-1,-2,-1,-2,-6
82156009082,1,-8,-2,-1,-1,0,-2,0
82156032159,0,-4,-1,-1,-3,-1,0,5
82156032159,-3,5,2,-1,-1,-1,-1,-2
82156033732,-4,-1,-2,-3,0,-1,-1,7
82156033732,-26,-5,-2,-4,-3,-3,-1,-5
82156047171,-4,2,-3,-1,-1,-1,-1,0
82156047171,-6,-14,0,-1,-1,-1,-2,-3
82156048737,-5,-29,-3,0,-2,-1,0,0
82156048737,5,-25,-4,-1,-2,-1,0,0
82156070149,2,0,-1,1,0,-1,-3,-6
82156070149,-4,-2,-3,0,-1,-2,-1,9
82156071901,-22,6,1,1,-2,-2,-1,-3
82156071901,5,5,-2,-4,-2,-1,-2,-6
82156083260,5,1,0,-1,-1,-1,-1,8
82156083260,-1,-3,-1,-1,-1,-2,0,-1
82156092352,12,0,-2,-2,-1,-2,-2,-2
82156092352,-1,1,-1,5,-2,-3,0,4
82156107124,-7,3,0,-4,-1,0,0,-2
82156107124,6,0,-2,-3,-1,0,0,4
82156108729,13,9,-1,-1,-1,-1,0,1
82156108729,3,3,3,2,1,0,-1,-2
82156129849,4,-3,-6,-3,-3,-3,-2,1
82156129849,-4,-3,-1,0,0,-2,-2,-7
82156131382,-1,-3,-3,-3,-1,-1,-2,0
82156131382,4,-1,0,-2,-2,-1,-2,-1
82156143493,1,-2,-3,-1,0,-2,-3,-3
82156143493,-2,6,1,-3,-2,-2,0,7
82156152318,18,8,2,-1,0,0,2,0
82156152318,-14,-5,-2,0,0,0,-1,0
82156167144,-4,-17,-1,3,1,0,0,-1
82156167144,-1,-5,-2,-1,0,0,-2,1
82156168743,10,-11,-3,-5,-3,-2,0,-13
82156168743,4,3,-3,0,-1,-1,0,-1
82156189846,5,5,2,-3,-1,-2,1,2
82156189846,-8,-2,-1,1,-1,-1,0,2
82156191314,1,8,-3,-2,0,-1,-3,2
82156191314,0,-16,-3,-2,-3,-2,-1,-2
82156203956,-3,3,0,0,-2,0,0,-6
82156203956,4,1,-3,-2,-1,-1,-2,-7
82156210826,-5,-1,3,3,-1,-1,-1,1
82156210826,5,6,-2,-3,-2,-1,-1,-5
82156227216,5,-1,-2,1,1,-1,0,-12
82156227216,8,-2,1,-2,-2,1,0,1
82156228784,-3,7,1,-2,0,-1,-1,3
82156228784,18,6,2,0,-1,-1,1,5
82156249687,-7,-12,-1,-1,-2,0,-1,-3
82156249687,-3,-5,-2,-1,-1,-2,-2,-8
82156251261,-9,-2,-1,0,-4,-1,-2,-2
82156251261,11,4,1,-1,1,-2,-2,-3
82156264003,-11,6,2,2,1,1,0,12
82156264003,-2,-2,-1,-5,0,-1,0,-8
82156270920,-7,-7,-3,-1,-1,-1,0,2
82156270920,-2,0,-2,1,0,-1,-1,-4
82156287153,-6,14,-1,-2,-3,-1,-2,-4
82156287153,-6,-28,-1,0,-2,0,1,6
82156288698,-3,-1,0,-1,0,0,-1,-4
82156288698,-4,-1,-2,-2,-3,0,-2,2
82156309707,0,2,0,0,-1,-2,-2,-2
82156309707,-18,-10,-3,-2,0,0,-1,-5
82156311457,2,4,0,0,0,-1,-1,-7
82156311457,-14,-15,-2,0,-1,-1,-1,-2
82156324195,-24,-6,-5,-4,-2,-4,-4,-1
82156324195,-2,6,-1,1,-2,-1,-1,-1
82156330769,6,-4,-3,-2,-2,-3,-2,2
82156330769,-11,2,0,0,1,1,0,-3
82156347243,1,0,0,-2,-1,-1,-2,-1
82156347243,15,22,-1,0,-2,-2,-1,5
82156348886,-5,-3,-1,2,0,-1,-1,-1
82156348886,-3,-4,-1,1,-1,-1,-2,-6
82156369672,6,-2,-2,-5,-3,-2,-2,5
82156369672,7,9,2,-1,-1,-1,-1,4
82156371273,-5,-6,-1,-2,-1,0,1,-2
82156371273,2,11,1,1,0,-2,-2,1
82156383990,5,-22,-1,4,1,0,1,9
82156383990,-8,-3,-2,-1,-1,0,-1,0
82156390794,-1,3,0,-2,-1,-2,-1,2
82156390794,4,1,0,-3,-2,-1,0,-1
82156407207,2,2,0,-1,-2,0,-1,-6
82156407207,-32,-23,-5,-4,-5,-3,-3,-13
82156408764,1,-3,-2,0,0,-1,0,7
82156408764,-1,1,-3,-1,-1,-2,0,-3
82156429623,-1,-31,-5,-1,-2,-2,0,-2
82156429623,0,5,0,0,-1,-2,-1,-20
82156431234,-4,-12,-4,-3,-1,0,0,-2
82156431234,-9,-5,-4,-4,-2,-1,-1,1
82156443972,8,10,0,-4,0,-1,-1,-1
82156443972,4,1,-1,1,-1,-2,-1,8
82156450779,-17,-2,-8,-7,-3,-1,-3,-7
82156450779,7,3,2,-2,0,-2,-1,-7
82156467305,-2,21,0,-1,1,-2,1,12
82156467305,0,-4,0,1,-2,-2,-3,-2
82156468895,-18,6,0,-1,-1,-1,-2,-11
82156468895,-8,-28,-4,-3,-2,-2,0,15
82156489796,4,10,2,1,0,0,-2,-7
82156489796,1,4,0,0,2,-1,-1,1
82156491281,5,14,2,1,-2,-1,1,1
82156491281,-3,3,-2,-2,-1,-1,-3,-6
82156504059,6,0,1,0,-1,2,1,-1
82156504059,5,-3,-1,-2,-2,0,-2,2
82156510791,4,-6,-2,-1,0,-1,-3,-3
82156510791,17,7,-1,2,-1,1,2,1
82156527203,-5,4,1,2,-1,0,0,2
82156527203,13,-1,-2,0,-1,-1,-1,-8
82156528757,6,24,2,0,-2,1,-1,9
82156528757,-3,0,2,3,-2,1,-1,-2
82156549769,9,-2,-5,-5,-1,0,-1,-1
82156549769,-16,4,0,-1,-2,-1,0,3
82156551245,-12,-10,0,-2,0,-4,-1,-4
82156551245,-6,1,-3,-3,0,-1,-1,-6
82156563342,-2,-27,-6,-2,-2,-2,-1,-1
82156563342,-3,-5,-2,0,1,-1,0,0
82156572328,7,-4,-2,-1,-2,0,0,1
82156572328,-12,-2,3,-1,0,-2,-1,-4
82156587321,2,11,-1,-2,-2,-2,-3,-6
82156587321,3,1,0,-4,-1,-1,-1,-6
82156588782,2,-14,-2,-1,0,-1,-2,-9
82156588782,7,-4,-4,-2,-2,-1,-3,-3
82156609834,-16,-1,2,-1,-1,0,-1,9
82156609834,4,2,-1,1,-1,-1,-1,-4
82156611326,-7,-1,-1,-1,-2,-1,-1,4
82156611326,1,10,-1,0,0,-2,-2,5
82156623297,5,-2,-2,0,-1,0,-1,-5
82156623297,-15,3,-6,-7,-3,1,-1,0
82156632342,10,3,1,2,-1,0,1,3
82156632342,-3,6,-1,-3,-2,0,-2,-3
82156647271,-2,-8,-2,2,0,-2,1,-3
82156647271,4,5,1,3,-1,-2,0,2
82156648746,8,0,-1,-3,-2,-1,0,2
82156648746,-6,-7,0,0,-2,0,-1,-4
82156669952,6,15,1,-1,-1,-1,-2,-1
82156669952,6,-1,-3,-2,0,-3,-4,21
82156671419,1,6,-2,0,0,0,0,-8
82156671419,24,0,0,2,0,1,0,6
82156683234,4,2,1,-2,0,0,-1,1
82156683234,-8,1,0,4,-1,-1,1,0
82156692286,-15,-9,-2,-5,-3,-1,-2,-3
82156692286,-9,-18,-6,-4,-2,-3,-2,-5
82156707720,-2,2,0,1,-1,-1,1,-5
82156707720,6,1,-1,-2,0,-1,1,-5
82156708743,-3,-6,0,1,1,0,-3,-3
82156708743,9,6,1,-1,0,-2,0,6
82156729570,-15,4,-2,-2,0,-1,-2,-2
82156729570,-5,-6,-2,-2,-3,-1,-1,-6
82156731223,-1,-3,-2,-2,-1,1,0,2
82156731223,-5,-2,-1,-1,-1,0,-1,0
82156743519,-7,10,0,0,-1,0,-2,3
82156743519,18,10,3,1,1,0,4,-14
82156752331,-1,-3,1,-1,-2,-1,-2,-3
82156752331,-33,-6,-6,-3,-3,-3,-2,6
82156767286,-1,-11,1,1,-1,-2,0,-3
82156767286,-5,-4,-2,-4,-2,-2,-2,2
82156768801,10,12,2,0,-1,0,1,4
82156768801,-7,-4,0,0,-2,-1,-1,-11
82156789791,-2,-4,-2,-2,-3,-1,-2,-1
82156789791,-4,-4,0,1,-2,-2,-3,2
82156791269,-9,-3,-4,-3,-1,-2,-1,-10
82156791269,6,5,0,-2,0,-1,0,6
82156803402,1,-3,0,0,0,0,0,-4
82156803402,1,-5,0,-2,0,-1,-2,-1
82156812279,1,11,-1,1,-1,-2,-2,5
82156812279,-2,1,0,-2,0,0,0,-6
82156827241,3,-6,-1,-2,-2,-2,-1,-2
82156827241,2,3,0,-2,-1,0,1,15
82156828764,-9,-4,0,5,0,-1,2,-15
82156828764,-7,-2,0,-1,-2,-1,-3,-12
82156849692,-14,0,-3,-1,-2,-1,0,4
82156849692,13,3,-1,-2,0,0,-2,0
82156851309,0,-7,-1,-1,-2,-2,-1,6
82156851309,11,29,0,0,-1,0,1,-4
82156863431,11,-10,1,-1,0,0,0,-4
82156863431,-14,-4,-1,0,1,0,-2,-7
82156872336,-2,-8,-4,-2,-3,-2,-2,2
82156872336,-2,5,0,-2,-2,-2,-1,-5
82156887354,5,-1,-2,-2,-3,0,-2,4
82156887354,-5,-4,-2,-2,-2,-1,-1,-2
82156888770,4,-6,-2,-1,0,-1,-2,-1
82156888770,-3,-6,-1,0,0,0,-1,3
82156909868,-14,8,-4,-3,-3,-1,1,-15
82156909868,0,-33,-3,-1,-3,-2,-1,-7
82156911293,-1,-3,1,-2,-1,-1,-1,0
82156911293,2,-7,0,2,1,-2,0,1
82156923303,2,6,0,-1,0,-1,-2,-1
82156923303,-22,-7,-5,-3,-2,-3,-1,-4
82156932327,-5,-5,-1,1,1,1,-1,-3
82156932327,-3,-15,-3,-7,-5,-3,-3,4
82156954649,11,5,2,2,-1,-1,0,0
82156954649,1,6,-1,-3,-1,-2,-1,-1
82156956275,-1,0,-1,-3,-1,-1,-2,1
82156956275,-8,-6,-4,0,-2,-2,-1,-2
82156969860,16,-7,-3,-2,-1,-1,-3,0
82156969860,6,12,1,0,0,-1,0,-1
82156971310,-3,-7,-2,-1,-1,-1,-2,-2
82156971310,8,2,-1,-1,0,-1,0,-2
82156992196,-7,-5,-2,0,-1,-2,0,-2
82156992196,-20,1,-6,-5,-4,-2,-3,-9
82156993764,5,2,-1,0,-3,-1,-1,15
82156993764,3,-1,1,-2,1,0,0,-7
82157007184,-5,7,-3,1,0,-2,-2,5
82157007184,-2,-18,-1,0,0,-1,-2,-6
82157008764,-4,12,0,-1,1,0,-1,-2
82157008764,1,-8,-2,2,-1,-2,-2,2
82157029646,-7,-13,0,-3,1,0,1,-3
82157029646,12,15,3,1,-1,0,1,6
82157031260,8,4,1,-1,0,-2,0,-8
82157031260,-8,-10,-6,-3,-1,-2,-1,7
82157052079,0,3,0,1,-3,-1,-2,-4
82157052079,1,1,-1,0,-2,-2,-2,-4
82157053727,-11,-11,-3,-1,-2,-1,0,-1
82157053727,2,8,1,0,1,0,-1,-5
82157067110,-22,-3,-2,-1,-1,-2,-3,2
82157067110,-11,-7,-2,-1,0,-1,-2,1
82157068779,1,-6,-1,-2,-1,-1,0,-2
82157068779,10,0,1,0,-1,-1,-1,-4
82157089838,1,-5,-3,-2,-2,0,1,1
82157089838,9,5,-1,0,-1,0,1,-18
82157091238,-12,-12,-4,0,-4,-1,-3,-4
82157091238,1,0,-2,-7,-2,0,0,2
82157112336,-11,-9,-4,-2,-2,-2,-1,-1
82157112336,2,0,-1,5,-2,-2,-2,3
82157113753,0,-4,0,0,-2,-2,0,6
82157113753,-13,3,-2,0,-3,-2,0,-6
82157126487,-1,4,-1,-2,-2,0,0,3
82157126487,1,9,0,-1,-1,-2,-2,5
