timestamp,emg1,emg2,emg3,emg4,emg5,emg6,emg7,emg8
59421851699,7,-3,1,-2,0,-1,-2,1
59421851699,-5,-3,-1,-1,-2,0,-3,0
59421852545,0,-1,-1,-1,-1,-2,-1,-1
59421852545,-2,-4,-2,1,0,-1,-1,-2
59421865392,-3,-1,-3,-1,-1,0,-1,-1
59421865392,6,0,0,-1,0,-2,0,0
59421873532,-10,-22,-2,-2,0,-1,-3,-1
59421873532,-1,1,1,-1,-2,1,0,0
59421889115,-3,-1,0,-1,0,-1,-1,-2
59421889115,-4,-1,-3,-1,-2,-1,0,-2
59421889981,1,1,-1,0,-3,-1,-2,0
59421889981,1,-2,1,0,0,0,-2,-2
59421911712,-4,-7,-2,-2,-3,-1,-2,-1
59421911712,-2,2,-2,-3,0,1,-2,-1
59421912462,0,1,-2,0,-1,-1,2,-2
59421912462,4,-2,-1,0,-1,-1,1,1
59421925431,13,11,1,0,3,-1,0,0
59421925431,-1,-1,-3,-3,-2,-2,-2,0
59421933584,0,2,-2,-1,-1,-1,0,-1
59421933584,0,-2,-3,-1,-2,-2,-2,-2
59421949137,-7,-1,0,-2,0,1,0,-1
59421949137,1,8,1,-2,-2,-3,-2,-1
59421949982,-1,6,-1,0,0,-1,-2,0
59421949982,-4,-2,-3,-2,-1,-1,-2,-2
59421971691,-1,-2,1,-2,-1,0,-2,-2
59421971691,-2,-1,0,0,-1,-1,0,-1
59421973346,-2,0,0,0,0,0,0,-1
59421973346,-2,0,-2,0,-2,-3,-1,-2
59421985402,-1,-3,-2,-2,-1,0,-2,1
59421985402,4,-2,-1,-1,-1,-2,-1,-3
59421994349,1,0,-4,-1,0,-1,0,-3
59421994349,-3,-3,1,-3,0,1,-4,0
59422009249,-1,-3,-4,0,-2,-2,-2,-1
59422009249,-2,-4,1,1,-1,-3,0,0
59422011766,-1,-2,0,0,-1,1,-2,-3
59422011766,0,3,-1,-2,0,0,0,0
59422031900,-3,2,-2,-1,-1,-2,-2,-4
59422031900,1,8,1,-1,0,0,-3,0
59422033458,0,-3,-1,0,-1,-3,-1,0
59422033458,-3,-1,0,0,0,0,0,-1
59422045459,-8,0,0,-1,-1,-1,-1,-2
59422045459,1,-1,-4,-2,0,0,1,-1
59422054432,0,1,-2,-2,-1,0,-1,0
59422054432,-1,-4,-3,-2,-1,-1,1,-2
59422069209,-5,-3,2,1,-1,-1,-3,0
59422069209,-3,-6,-2,-2,0,-2,-2,0
59422070844,-5,0,0,-1,-1,-1,-2,-1
59422070844,-2,-3,-2,-1,-1,-2,-3,0
59422091739,1,0,-4,0,-3,-1,1,-2
59422091739,-1,-4,-1,-2,-1,-1,0,-1
59422093343,0,1,1,-1,-1,-1,-2,-1
59422093343,-2,-1,-1,-1,-2,-1,-2,-1
59422105555,0,-2,-1,-2,-1,0,-1,0
59422105555,-1,-4,-3,0,-3,0,-1,0
59422114433,2,8,-1,-2,-2,-1,1,-1
59422114433,-4,1,-1,0,-1,-1,0,-1
59422129189,0,0,-1,1,-2,-2,0,-1
59422129189,-3,-3,-1,0,-1,0,-2,-1
59422130835,-1,0,-2,0,-1,-1,1,0
59422130835,-3,-1,-1,0,-3,-3,-2,-1
59422151704,0,1,1,-4,-1,-1,-2,-2
59422151704,-3,-1,-1,0,0,-2,-2,-1
59422153351,-1,-4,-1,-1,-1,-1,-2,2
59422153351,0,1,-1,-1,0,-1,-1,0
59422181704,-4,-2,-1,0,1,-2,-1,1
59422181704,0,-4,-2,-1,0,-1,0,-3
59422183356,-2,-3,-2,-2,-3,0,-4,-2
59422183356,2,-2,-1,-1,-3,-2,0,0
59422189136,0,-2,-1,1,0,-1,2,-1
59422189136,8,1,-2,-3,0,1,-2,-1
59422190782,3,4,0,-1,-1,-3,0,-1
59422190782,-9,-15,-1,-2,-1,1,-1,1
59422211712,1,-1,-3,-2,-1,-2,-3,0
59422211712,-5,-1,-3,-1,-2,-1,-1,-1
59422213354,-1,-3,-3,-1,2,-1,1,-2
59422213354,5,3,3,-1,0,-3,-4,-2
59422234633,-6,-2,0,-3,-1,-2,0,-1
59422234633,-2,-2,0,-1,-1,1,-1,-1
59422240344,-3,-1,-2,-1,-2,-1,-1,-1
59422240344,-13,-2,-4,0,-1,1,0,-3
59422249281,-3,-2,0,0,-2,0,-3,-1
59422249281,-2,0,0,-1,-1,-1,-1,-1
59422250912,2,-1,-1,-3,0,-1,-1,0
59422250912,0,0,-2,0,-2,-1,0,-1
59422271977,0,-2,-3,-1,-1,-1,-2,0
59422271977,1,2,-1,-3,-1,-2,0,-1
59422273464,-4,-5,1,0,0,-1,0,1
59422273464,2,0,-1,-2,0,0,-1,-1
59422294350,-2,0,-3,-3,-3,0,-1,-1
59422294350,-5,-4,1,0,-1,0,0,0
59422295894,3,2,1,-2,-2,0,-1,-2
59422295894,1,2,-1,0,-1,0,-2,-1
59422308755,3,-4,0,0,-2,0,2,-2
59422308755,-2,-2,-1,0,0,-2,-1,-3
59422315520,1,3,-2,0,-2,-3,-1,-2
59422315520,0,0,-1,-1,-2,-2,0,-1
59422331922,-2,2,-3,0,0,-2,-2,-3
59422331922,-1,-1,-1,-3,-1,0,-2,0
59422333378,-1,-4,-1,-1,-2,-2,-2,0
59422333378,-2,-2,1,-1,1,0,0,-1
59422354294,-1,-4,-2,-1,-3,1,-2,-3
59422354294,1,1,1,0,-2,-2,-3,0
59422355836,-3,-3,-1,-2,-2,-1,-3,-2
59422355836,1,-2,-2,-2,-1,-2,-1,-2
59422368754,0,-1,-1,-3,-2,-2,-1,-2
59422368754,1,-1,-1,-1,-1,-1,-2,-2
59422383042,-2,0,-1,-2,-1,1,-3,1
59422383042,-1,-1,-1,0,-1,-1,-1,0
59422391852,4,5,-2,1,0,-1,1,1
59422391852,-4,-8,-1,0,-2,-1,-1,-1
59422393393,-3,0,-1,1,1,-2,0,-1
59422393393,3,3,-2,-2,-1,-1,-1,-1
59422414478,-4,0,-2,-2,0,-2,-1,-2
59422414478,-1,3,1,-1,-2,1,1,1
59422415872,0,-2,-1,-1,-1,-1,0,-3
59422415872,0,-1,-1,-1,-3,-1,-2,1
59422428781,0,-4,-1,-2,-1,-1,-2,-1
59422428781,-2,-3,-1,-2,0,-1,1,-1
59422435597,11,0,0,-3,-1,-1,-2,-2
59422435597,-2,1,-1,-2,0,0,-2,-3
59422451904,1,-2,-1,1,-1,-2,-3,1
59422451904,0,0,-3,-2,-1,-1,0,-1
59422453400,-4,-2,-3,1,-2,-2,-1,0
59422453400,-3,-2,-1,-2,1,-2,-3,-1
59422474466,0,2,1,-1,-2,-2,0,0
59422474466,-1,0,-1,-1,-2,-2,-2,-2
59422475933,-6,-9,-2,-2,-2,-2,-4,-3
59422475933,1,1,-1,-1,-3,-2,1,-2
59422488818,-1,-2,-2,-2,-1,0,1,0
59422488818,-5,-2,-2,-1,-2,-1,0,-3
59422495598,-4,1,-3,-4,-2,0,0,-2
59422495598,1,-2,0,-1,1,1,-2,-2
59422511971,-1,-2,-3,0,1,0,0,-1
59422511971,-2,0,-1,-2,-1,-2,-1,-2
59422513375,-3,0,0,-1,1,-1,-1,-1
59422513375,-2,0,-2,0,-1,-3,0,-3
59422534416,3,1,-1,-1,-2,-1,-2,-3
59422534416,0,1,-3,0,0,-2,-2,0
59422535892,-3,-1,0,-1,1,-1,0,0
59422535892,-2,-2,-2,0,-4,-1,0,-2
59422548752,-1,-1,1,-1,-3,-1,0,0
59422548752,-2,-2,0,0,0,-2,-2,0
59422555535,0,-1,-1,-3,1,1,-1,0
59422555535,-2,-2,0,-2,-1,0,-2,1
59422571978,-1,-1,-1,0,-1,-2,-1,-1
59422571978,0,0,-2,0,-1,0,-1,-2
59422573429,-3,-15,-1,0,-1,-3,0,-2
59422573429,-3,-1,1,0,-1,1,-1,-1
59422594245,0,0,0,-2,-1,-2,-2,0
59422594245,0,-3,-1,0,-2,-2,-2,0
59422595782,-3,3,-3,-1,-3,-1,-3,-4
59422595782,-1,-2,-2,-1,-1,-1,-2,-4
59422608755,-4,-5,-2,-1,-1,-2,-1,-2
59422608755,2,5,-1,-2,1,-1,0,0
59422615574,0,4,-1,-2,-2,-2,-1,-1
59422615574,-3,-3,-1,-1,-1,-1,-1,-1
59422631974,-1,0,-3,-1,-3,-2,-1,-1
59422631974,-1,-2,0,-3,1,-1,0,-1
59422633462,-1,3,0,0,1,0,-2,-2
59422633462,-3,-3,-3,-2,-1,-1,0,0
59422654326,3,-3,-1,-1,0,-1,0,-1
59422654326,-2,-1,0,-1,-5,-1,-2,-1
59422655829,3,-1,0,-1,-3,-2,-1,0
59422655829,2,2,-2,0,-2,-2,-1,-1
59422668015,-3,-1,0,-3,-2,-2,-1,0
59422668015,-1,-4,-1,-1,-1,0,-1,1
59422676899,1,10,1,0,0,-2,1,-1
59422676899,-4,-5,-1,0,-1,-2,1,0
59422691686,-4,-2,-1,-1,-3,-1,-1,-1
59422691686,-1,-3,-2,0,-2,-1,-3,-1
59422693405,0,2,-2,-1,-2,-1,-3,2
59422693405,1,1,-1,-1,-1,-3,-1,0
59422714422,6,-2,-4,-2,-1,-1,0,-1
59422714422,-2,-1,0,-3,-1,1,-1,-2
59422715810,-3,-3,-4,0,-1,-1,0,-1
59422715810,0,1,-2,-1,0,-1,-2,-4
59422728008,-4,-3,0,-1,0,-1,-2,-1
59422728008,1,1,-1,0,-3,-1,-1,-2
59422736883,2,-3,1,-1,1,-1,-1,0
59422736883,-5,-2,-2,-2,-2,0,-3,-1
59422751810,-2,-2,2,-2,-1,-2,0,-3
59422751810,0,-1,-3,-3,0,-2,-2,0
59422753452,-2,-2,0,0,-3,-1,-1,-3
59422753452,3,-1,-3,0,1,0,0,-2
59422774302,-4,-3,-1,-1,-2,0,-3,-3
59422774302,3,3,0,0,-2,-1,-2,-1
59422775820,-3,-5,-1,-3,0,-1,-1,0
59422775820,-2,-1,0,-2,0,-2,-1,0
59422788082,-3,-2,-2,1,0,0,-1,-2
59422788082,-1,3,-1,0,-2,-1,1,-1
59422796910,-4,-13,0,0,-1,-1,-2,-3
59422796910,2,0,0,-1,0,0,-1,0
59422811981,-1,2,-2,-1,-1,0,-1,0
59422811981,-1,-1,-1,0,0,-3,-2,-1
59422813380,0,-1,0,-1,0,0,0,-1
59422813380,5,1,-1,-2,-2,-1,0,1
59422834286,-6,-7,0,-2,0,-1,0,-1
59422834286,-3,-2,2,1,-1,-1,1,0
59422835909,3,8,-2,-1,-2,0,0,0
59422835909,-2,-4,-1,-2,-2,0,-3,-4
59422847998,-3,-1,-2,1,0,-2,-3,0
59422847998,20,20,2,1,0,1,1,0
59422856911,-5,-4,-2,-1,0,0,-1,-2
59422856911,0,4,0,-2,-4,-1,1,-1
59422871955,3,0,0,-1,-1,-1,-4,-4
59422871955,-7,-5,-1,-1,-2,-4,0,1
59422873414,-1,-3,-1,0,1,-3,-1,1
59422873414,0,-2,-1,0,-2,0,-3,1
59422894417,-1,1,-2,-2,-2,-2,-2,-1
59422894417,-6,-7,-1,-3,-1,1,-1,0
59422895859,-2,0,-1,-1,-2,0,-1,-1
59422895859,-6,-8,-3,-1,1,0,1,0
59422908126,0,3,-1,-1,-1,0,-2,-1
59422908126,-6,-8,-3,-3,-2,-1,-2,-2
59422916954,2,-1,-1,0,-3,-1,-1,0
59422916954,-2,1,-2,-2,0,-2,-2,-1
59422931801,-1,-1,-1,-2,-1,0,-1,-2
59422931801,6,-5,-3,-2,0,-3,0,-2
59422933387,-6,-1,0,-2,0,0,-3,-1
59422933387,0,3,0,1,0,0,-1,-2
59422954437,0,0,-3,1,1,-1,0,-1
59422954437,-2,5,-1,-3,0,-1,-2,-2
59422955881,-3,-8,-3,-1,-2,-1,2,-1
59422955881,-2,-1,-1,0,-1,-3,-1,-1
59422967979,-1,-1,1,-1,0,-2,0,0
59422967979,-4,-1,-2,1,-2,-1,-2,0
59422976959,-2,1,-1,-1,-1,-2,1,-1
59422976959,-3,-2,-3,-2,-1,-2,-1,1
59422991766,0,-4,0,-1,0,-1,-1,-1
59422991766,-2,-6,-2,-1,-2,-2,-3,-3
59422993387,1,2,-1,-1,-4,0,-3,0
59422993387,-3,-4,-2,-1,-1,0,0,-3
59423014252,-1,0,-3,0,-2,-1,-1,-1
59423014252,-3,-5,1,-1,0,-1,-2,-1
59423015859,0,0,0,-1,-1,-1,-2,-2
59423015859,-2,4,0,-2,-3,-2,-3,-1
59423028066,-4,-3,-2,-1,-3,-1,0,-2
59423028066,-7,0,0,0,1,-1,0,-1
59423036868,-7,-17,-1,-2,0,-1,-2,-2
59423036868,1,0,-1,-1,-2,0,-3,-3
59423051859,-1,0,-1,-3,-2,-2,-1,-1
59423051859,0,-1,-1,-1,0,-1,-2,1
59423053453,4,6,1,0,-3,0,-2,-1
59423053453,-4,-2,0,-3,-1,-1,1,1
59423074278,-1,-4,1,0,0,-1,-1,1
59423074278,0,0,0,-3,-1,0,-1,-3
59423075827,-2,4,0,0,0,-1,-1,-1
59423075827,2,-4,-2,-2,0,-2,0,0
59423096953,-2,0,-1,0,-2,-1,-2,-1
59423096953,-3,-3,0,-2,-1,-2,-1,-3
59423098376,1,0,-3,-2,0,-1,-3,0
59423098376,1,-1,-1,1,-1,0,-1,1
59423111977,-1,-1,0,-2,1,0,-1,-2
59423111977,-2,0,-2,0,-2,0,-1,0
59423113402,-1,1,-1,-2,-1,-1,0,-2
59423113402,-1,1,0,1,-1,-2,0,0
59423134474,3,10,-2,-2,-1,-1,-1,0
59423134474,-1,0,0,0,-2,2,-2,1
59423135824,0,3,-1,-2,0,-2,0,1
59423135824,0,-2,0,-1,0,0,-1,1
59423156752,1,1,0,0,-2,-1,-1,-1
59423156752,-1,-2,0,0,-2,-2,0,0
59423158340,1,0,2,-1,0,-2,-2,-1
59423158340,-2,1,0,-2,-1,-1,-2,-2
59423171724,-4,-5,0,0,1,1,-3,0
59423171724,-1,-4,-3,-2,-1,0,-1,0
59423173348,-7,-17,-3,0,-2,-1,-1,-1
59423173348,-1,0,0,-1,-1,-1,-2,-3
59423194210,-1,-1,-1,0,-1,-2,-1,-2
59423194210,-2,-3,1,-1,0,-1,-2,-2
59423195784,-2,4,0,-2,-2,-2,-2,0
59423195784,2,3,1,0,-1,-1,-1,-1
59423216697,-3,-6,-2,-1,-1,-2,0,1
59423216697,-4,1,-1,-2,0,0,1,-2
59423218367,-1,3,-2,-1,-1,-1,2,-1
59423218367,-4,-3,-1,-2,-2,0,-2,-3
59423231687,8,-1,0,0,-3,1,-1,1
59423231687,-2,-1,-1,-2,-1,-3,-1,-1
59423233347,-1,1,-1,0,0,2,1,-2
59423233347,0,-3,-1,-1,-1,-1,-1,-2
59423254166,-4,-2,0,-4,-2,-2,-1,-1
59423254166,-2,-3,-1,0,0,-1,-3,1
59423255781,3,6,1,1,-3,0,-2,1
59423255781,0,-4,0,-1,-2,-1,-1,0
59423276877,-3,2,0,1,-1,-2,0,-2
59423276877,1,0,0,-3,-3,-3,0,-1
59423278473,-1,2,-2,-1,-1,0,0,0
59423278473,-1,-1,-1,-2,-1,1,0,-2
59423291046,1,0,0,-3,-2,-2,0,1
59423291046,-2,-2,0,1,-1,1,1,-4
59423298033,0,-4,-1,-2,-1,-1,-2,-2
59423298033,-2,-3,0,-1,1,-3,-2,0
59423314454,-3,-2,-4,-2,-2,-2,0,-4
59423314454,1,0,-2,-3,0,1,0,2
59423315846,3,-3,0,-1,-1,-1,0,1
59423315846,-1,-1,-2,0,-2,0,1,-4
59423336958,-1,1,0,-1,0,-2,0,-3
59423336958,-1,-1,-1,-1,0,-1,0,-1
59423338376,-4,5,-4,-1,0,-1,-2,-2
59423338376,-1,-9,-2,1,-1,-1,-1,1
59423351140,-6,-4,1,-2,-2,-1,-5,-2
59423351140,-5,-2,1,1,-1,0,-1,-1
59423357903,-1,-1,0,-2,-1,1,0,-1
59423357903,0,2,-2,-1,-1,0,0,-2
59423374445,-3,-3,-1,-1,0,-1,1,-1
59423374445,3,-2,-3,0,-2,-2,-2,-1
59423375873,-3,-2,-1,-2,0,-1,-2,0
59423375873,-2,0,0,0,-1,0,0,0
59423396757,0,-2,-3,-1,-2,-1,-1,-2
59423396757,2,0,-1,-3,0,-1,-2,1
59423398468,-3,-1,-1,-1,-1,-2,-3,-1
59423398468,-3,0,-1,1,-1,-1,-1,-1
59423411664,4,2,1,-2,-1,-1,0,4
59423411664,-2,-2,-2,-1,-1,-1,-1,-1
59423419432,-1,-3,-2,-2,1,-1,-1,-2
59423419432,1,3,0,-2,-2,0,-2,-2
59423434318,-7,-15,-2,-3,-1,-1,-1,-1
59423434318,-1,0,0,1,0,-2,0,-1
59423435825,1,1,-1,-1,-1,-1,-1,2
59423435825,-3,1,-2,-1,0,0,1,-2
59423456758,3,4,1,0,-1,-2,-2,0
59423456758,-1,-5,-1,-1,-1,-1,-2,-2
59423458401,-2,-4,-2,0,-2,-2,0,-3
59423458401,-1,-1,-1,-2,0,0,0,-2
59423471036,-1,-2,-2,-1,-3,1,-1,-2
59423471036,-1,-3,0,-3,0,-2,-1,-3
59423477857,0,1,2,-1,-1,-1,-1,-5
59423477857,0,-1,-3,-2,-2,-1,-2,1
59423494240,-1,2,-1,-1,-1,-2,-1,0
59423494240,-3,1,0,1,-2,1,0,0
59423495845,0,-2,-1,-1,-2,-1,0,0
59423495845,2,-4,0,-2,-2,-1,-3,-1
59423516960,-1,0,0,-1,0,-2,0,0
59423516960,2,2,-2,-2,-2,-2,-3,-2
59423518419,-7,-5,0,-1,0,-1,-1,0
59423518419,2,0,-2,0,1,-2,0,1
59423531257,0,0,0,1,-1,-3,1,-1
59423531257,-1,0,1,-1,-2,-2,-2,-1
59423538020,1,1,-1,0,-2,-1,0,-1
59423538020,-2,-2,0,-1,0,-2,0,-2
59423554404,-3,-1,-3,-1,-2,0,1,-1
59423554404,-2,-2,0,0,0,-1,-2,-2
59423555849,0,2,0,-2,-2,-1,-1,-2
59423555849,-1,2,2,0,-1,-1,-3,0
59423576810,-5,-14,-2,-1,-1,1,-2,-2
59423576810,-4,-1,-2,-2,-1,-2,-2,0
59423578399,3,2,-1,-2,-1,0,-1,-1
59423578399,-1,1,-2,-3,-2,-1,-1,0
59423590631,-9,2,-2,-2,-1,-2,-3,-2
59423590631,0,0,-1,-2,-2,-2,-3,1
59423599395,-4,-5,-1,-2,-2,-2,0,-4
59423599395,-4,-1,0,-2,0,-1,0,-1
59423614474,-3,0,0,-1,0,0,-2,0
59423614474,0,-1,-1,-1,-1,1,-1,-1
59423615848,0,-2,-2,-2,-2,-1,-2,-1
59423615848,-2,0,-1,0,0,-3,-1,-2
59423636964,2,0,-3,-1,-1,-2,-1,1
59423636964,-2,2,-2,-1,0,1,0,0
59423638419,-4,-15,-2,-1,-1,-2,0,-1
59423638419,3,-2,-1,-3,-3,0,-1,1
59423650431,0,1,0,-1,0,0,-1,-2
59423650431,-1,1,-2,0,-1,-3,0,-1
59423659354,-2,1,-1,-1,0,-2,-3,-1
59423659354,-2,-2,-3,-2,-3,-1,0,-3
59423674259,0,-1,0,0,-1,0,0,-1
59423674259,1,0,-1,-2,-3,-1,-2,2
59423675935,-1,1,1,0,-1,-1,0,-1
59423675935,-3,-2,-1,1,0,-3,-1,-3
59423696800,4,2,-1,1,-1,-2,2,-1
59423696800,-3,-3,0,-1,-2,-1,-1,-1
59423698405,0,2,-2,0,-3,0,-3,0
59423698405,-2,1,0,-3,2,1,-1,-1
59423710620,0,0,-2,-3,-3,0,-2,-2
59423710620,3,5,0,-1,0,-1,3,0
59423719467,-5,-10,0,-2,1,-3,0,-1
59423719467,-1,-1,-1,0,-1,-1,-2,1
59423734328,-2,2,1,0,1,-2,-2,-3
59423734328,5,1,0,-1,1,-3,-2,-2
59423735850,-1,3,-3,-1,-2,0,-2,1
59423735850,-3,-2,-1,-2,-3,-1,0,-1
59423756960,-5,-3,-1,0,1,0,-1,-1
59423756960,-1,-4,-2,0,-2,-1,0,-1
59423758420,-1,0,-2,0,-2,1,1,-2
59423758420,-1,-4,0,-1,-2,-1,-1,0
59423770512,1,1,-1,0,-2,-1,1,0
59423770512,-7,-6,-2,-2,-1,-1,0,-1
59423779425,-2,2,-3,-1,0,-3,-1,0
59423779425,5,1,0,-3,-1,-1,-2,-1
59423794343,-1,0,-1,-1,0,-1,0,-2
59423794343,-1,-3,0,2,1,-1,-3,-2
59423795861,2,3,-1,-1,-2,0,-1,-1
59423795861,-5,-14,-1,1,0,-1,-1,1
59423816796,4,0,-3,-4,0,1,0,0
59423816796,0,3,2,2,-1,1,-1,-1
59423818394,-1,1,-2,-4,0,-2,-2,-2
59423818394,-1,0,-2,0,0,-2,0,-3
59423830499,-3,-2,0,-2,-1,-3,-2,0
59423830499,1,-3,2,4,-3,-2,-1,0
59423839444,1,-1,-2,-4,1,-2,1,-1
59423839444,-2,2,-4,3,0,0,-1,-1
59423854293,-1,-1,1,-3,-3,-1,-1,0
59423854293,-3,2,2,-2,0,-1,-1,-1
59423855845,0,-4,-2,-2,-1,-4,-2,-1
59423855845,-1,0,-1,-1,-3,-1,-2,-1
59423876984,0,1,-1,1,-1,-1,-3,-1
59423876984,-6,-18,-6,-6,-2,-1,-1,-2
59423878412,-2,4,5,4,-1,0,-1,-2
59423878412,0,1,3,3,-1,-1,2,-1
59423890457,0,-3,0,-3,-1,-1,0,1
59423890457,-3,-2,-5,-4,-2,0,-1,2
59423899414,0,-1,4,2,0,0,-3,0
59423899414,-3,-2,-11,-11,-4,-2,-4,-2
59423914235,-1,1,0,10,0,0,-1,-1
59423914235,0,2,2,-28,-6,-2,-2,-1
59423915881,-1,-1,-1,12,-2,1,-4,0
59423915881,-1,4,1,4,3,0,-1,-2
59423936913,1,-1,-3,22,0,-1,0,-1
59423936913,-3,2,-4,-6,-1,-1,-2,-3
59423938322,-1,-4,-1,-2,-2,-1,-1,0
59423938322,1,-1,-3,-3,-1,0,1,0
59423950585,-1,-3,2,4,1,1,-1,-1
59423950585,1,6,0,7,3,1,1,-2
59423959422,-5,-12,-5,-11,-8,-4,-3,-4
59423959422,-1,1,2,9,1,-1,0,0
59423973618,0,0,-4,-14,-4,-3,-1,-1
59423973618,2,3,5,-5,-1,3,-1,-2
59423980609,0,2,-2,-1,0,-3,0,0
59423980609,-1,-2,-4,0,-1,-4,-3,0
59423996790,-4,-4,1,-3,4,3,2,-1
59423996790,-2,-2,-3,6,1,0,0,-3
59423998370,-4,-4,-6,5,-13,1,-3,0
59423998370,0,0,1,20,15,1,1,-1
59424010400,0,3,-3,-20,-16,-13,-4,-4
59424010400,-5,-3,-1,11,3,-4,1,0
59424026894,3,4,4,-3,11,7,1,0
59424026894,-2,1,1,-1,-8,1,1,-1
59424033814,5,-2,-2,-18,0,1,-2,0
59424033814,1,-1,-1,-1,-2,-5,-1,-2
59424040568,1,5,2,-5,1,0,-2,1
59424040568,-3,-1,2,2,-1,-1,-1,-30
59424056869,5,-2,-5,-7,-2,1,5,37
59424056869,0,-1,-1,-2,-4,-7,-3,-3
59424058471,-4,-2,-4,17,3,0,2,-1
59424058471,0,-1,-4,-22,-10,-4,-5,-3
59424079455,-3,2,-1,-5,6,2,0,-7
59424079455,-1,-2,2,7,-3,7,4,0
59424080852,-1,0,-1,3,1,4,-5,0
59424080852,-3,-2,-2,-7,-5,-9,-2,6
59424093021,-8,-4,2,8,3,-5,-1,-9
59424093021,5,6,0,-20,2,1,-4,4
59424101935,-5,-13,-2,16,3,5,3,-4
59424101935,-1,-2,2,-12,2,1,2,7
59424124213,-3,-2,-7,9,-10,-4,-6,-7
59424124213,-1,0,-1,19,-4,-1,2,-6
59424125823,-1,2,0,-16,-4,-17,-1,0
59424125823,2,1,0,5,6,12,0,6
59424139297,-2,-2,0,17,7,4,-3,-4
59424139297,-1,2,-3,4,-6,-9,0,0
59424140815,-5,-1,-1,-38,-6,4,-1,-4
59424140815,-2,1,-2,-2,2,-2,-4,4
59424153821,-2,-1,3,-15,-2,-3,-3,-6
59424153821,0,-5,1,15,0,3,-3,-2
59424160385,4,5,1,3,-5,-11,1,1
59424160385,0,3,1,-3,-4,-1,1,-2
59424176692,-4,-6,-3,-5,1,4,-11,-5
59424176692,-2,-3,-7,-17,6,19,8,1
59424178379,2,3,4,11,-2,-15,-10,3
59424178379,1,-3,3,-1,-4,-4,-2,-1
59424199286,3,6,7,8,1,-7,4,0
59424199286,-2,-4,-2,9,-9,-3,-5,-2
59424200819,-3,-3,-3,-22,0,3,1,-4
59424200819,-2,0,-5,9,-4,0,-4,1
59424212948,-1,-2,-3,-1,-4,2,1,0
59424212948,-4,-17,-4,-15,3,-3,-5,1
59424221854,-4,-1,1,-13,3,-5,0,-1
59424221854,0,-1,0,21,-5,2,2,-1
59424236709,-2,0,1,-13,-2,5,-3,-2
59424236709,-3,0,-4,1,1,0,-2,0
59424238348,-1,1,-2,0,-9,-6,-1,-5
59424238348,1,-3,1,1,10,-6,4,6
59424259241,4,3,-1,1,2,19,8,-4
59424259241,0,-2,-4,-50,-10,20,-3,-3
59424260814,0,1,-3,1,-5,-46,-10,-5
59424260814,-3,-4,-4,10,-9,20,-3,-2
59424272933,-1,-1,-2,-4,9,-13,-1,-3
59424272933,3,14,4,17,4,-5,2,1
59424281855,0,-6,-2,-2,-1,30,5,-1
59424281855,-2,0,-2,-18,-6,-16,-6,-1
59424296754,-2,-2,-3,-20,-1,5,4,-1
59424296754,6,8,4,18,8,-6,-3,0
59424298429,0,-1,0,6,-3,-19,-9,0
59424298429,-4,-2,-3,12,1,12,5,-4
59424326775,-5,0,2,7,-5,10,1,-8
59424326775,1,-4,-3,-21,1,-10,1,7
59424328397,1,1,-3,-4,-1,24,3,-3
59424328397,0,0,5,-8,-5,-36,-12,-1
59424332881,2,-1,-1,8,0,-2,-7,2
59424332881,-4,-5,-2,-33,-5,-6,-7,-5
59424341832,1,1,-4,9,4,17,13,3
59424341832,-1,0,-2,-29,-1,5,-1,2
59424356656,0,0,-2,1,-9,-8,-2,-1
59424356656,4,11,3,12,0,-21,-5,1
59424358321,-1,-3,-1,-8,5,15,3,1
59424358321,3,3,-4,12,-3,6,0,-3
59424379255,-3,-4,-3,-30,-3,-12,-6,-2
59424379255,-10,-5,-7,40,-3,4,1,-9
59424380816,0,-2,2,12,3,0,-1,6
59424380816,1,-1,-4,-44,3,-4,-1,-4
59424392779,-1,0,0,-5,-4,16,8,1
59424392779,-6,-6,-3,39,5,-1,-6,-4
59424409380,0,0,5,2,-7,-26,-5,-1
59424409380,0,0,0,15,3,20,7,-2
59424416706,-1,-1,3,24,-3,-17,-5,2
59424416706,-4,-5,-2,-32,2,25,8,-3
59424418393,5,8,-5,0,4,6,-3,1
59424418393,-3,-5,-3,0,-7,-8,-3,3
59424439312,-3,-3,-1,18,2,-6,-4,-4
59424439312,1,0,-1,5,-1,-13,-1,-1
59424440898,0,2,0,8,-3,-6,-3,-1
59424440898,-4,-1,-1,-28,5,9,4,-1
59424461921,1,2,0,8,-3,6,2,-5
59424461921,-1,-6,-2,6,-12,-8,-7,-7
59424463372,-4,-5,-6,-7,8,19,3,11
59424463372,-2,-3,-2,20,0,-26,-4,-3
59424476746,-3,-4,0,-9,2,4,-6,1
59424476746,14,6,4,21,1,-4,4,1
59424478369,0,0,-12,-42,-11,-1,-8,-7
59424478369,2,1,6,15,-5,-2,2,2
59424499310,-2,1,-5,-41,4,-11,1,-2
59424499310,-2,-2,3,30,10,15,-7,0
59424500815,-2,-2,-1,8,-3,-7,8,-4
59424500815,0,-2,0,42,14,-8,-6,4
59424513620,-2,-1,-3,-40,-7,-9,-6,-6
59424513620,0,-2,-1,-15,-3,3,5,8
59424529379,-6,-5,-2,5,-6,6,-4,-12
59424529379,-1,0,-1,-8,-4,-6,-1,-1
59424536844,-3,-2,-1,-12,-4,1,0,-3
59424536844,-5,-3,-4,-2,-10,-13,-8,-4
59424538410,-2,5,7,-6,-3,-8,0,2
59424538410,2,0,2,14,4,12,3,-2
59424559247,-1,0,-3,-37,-6,-2,-2,0
59424559247,-7,-5,-3,3,6,-1,-1,-2
59424560777,-1,0,-1,-29,-2,3,-1,-4
59424560777,1,-1,-1,-1,-1,0,-4,3
59424573085,0,-2,1,28,-3,-4,2,0
59424573085,0,1,2,-24,-8,-6,2,0
59424581928,-1,-5,1,19,8,6,-4,-2
59424581928,0,-2,-2,-31,-10,2,0,4
59424596702,-3,-5,-7,20,3,-3,-1,1
59424596702,3,1,0,-26,-9,-10,-3,-1
59424603069,-13,-19,-2,13,2,2,-1,-3
59424603069,-7,-3,-4,14,12,0,-4,-3
59424619446,5,1,8,-15,-5,3,0,-3
59424619446,-2,0,1,59,4,3,4,8
59424620823,-1,1,-3,-47,2,-3,2,-7
59424620823,0,1,-4,-26,-32,-1,-9,-6
59424633084,-3,-3,-7,16,8,3,3,3
59424633084,2,0,4,-26,-4,5,0,-5
59424641878,0,2,1,28,12,0,0,0
59424641878,-5,-4,-8,-40,-14,-10,-2,-2
59424656993,1,3,-3,18,3,0,-5,-3
59424656993,-6,-4,-3,-9,2,-1,0,-2
59424658395,4,3,3,5,1,2,2,0
59424658395,0,-2,-5,27,-6,-4,-2,-5
59424680455,-2,-2,-4,2,-5,-8,-4,-3
59424680455,-6,-4,-5,-20,-6,-2,-6,-3
59424682066,7,4,0,-9,5,7,6,3
59424682066,-5,-6,2,-1,4,0,-5,-2
59424693065,-3,-1,2,23,9,7,4,-11
59424693065,11,3,2,10,-12,-3,-1,17
59424701844,0,3,0,-11,-4,-6,-10,-2
59424701844,0,4,3,30,1,0,0,-1
59424716688,2,-2,0,-1,-2,-6,-4,-1
59424716688,-4,-1,-4,-2,5,-4,-4,-7
59424718329,-2,-2,4,15,-5,-1,-5,-1
59424718329,-1,3,6,-10,-1,-2,0,1
59424739110,10,8,6,12,10,6,3,3
59424739110,-6,1,-7,-15,-7,-3,-2,-3
59424740840,3,-4,2,45,-2,-7,-6,0
59424740840,-7,-5,-8,-41,-2,-3,-4,-13
59424752920,-1,3,-17,6,2,-1,0,1
59424752920,2,-2,6,-11,9,7,7,-1
59424761790,-4,-2,-2,-1,-6,-6,0,-1
59424761790,-4,-2,6,-2,5,-1,0,-3
59424776042,-4,-1,-21,-20,-13,-9,-5,0
59424776042,-6,-8,11,41,2,-5,-1,-4
59424783141,-7,-6,-11,-65,-21,-5,1,-3
59424783141,-5,-16,-5,20,4,-6,2,-3
59424799441,-2,-2,1,-27,-11,-5,3,4
59424799441,-2,2,-6,7,4,0,1,-4
59424800903,1,-1,-9,20,-2,-4,1,22
59424800903,-1,-5,-15,-46,-9,-1,0,-6
59424812959,-7,-5,0,15,-3,-1,-4,3
59424812959,5,0,1,-49,-10,-10,0,-3
59424821814,5,2,-6,24,-3,4,-3,-10
59424821814,1,5,6,14,17,-5,-2,17
59424836063,11,1,13,20,-3,5,-1,-3
59424836063,0,-2,-1,-5,3,8,-8,1
59424842895,3,3,11,-22,5,-3,0,-1
59424842895,1,4,8,12,2,8,-1,-1
59424859152,2,-3,6,18,-2,-4,-3,-5
59424859152,1,1,-6,-31,-3,-10,-4,0
59424860819,-1,-1,0,12,-1,14,-1,-6
59424860819,1,1,4,-17,-5,-6,-2,-2
59424872874,-3,-2,-1,-4,-9,2,-2,2
59424872874,-2,-2,-2,1,13,-7,-4,-9
59424881803,-6,-8,-9,5,-6,3,5,4
59424881803,2,3,2,18,12,7,1,0
59424896265,-4,-3,0,-42,-4,-7,-4,-3
59424896265,-4,-3,-2,31,8,4,10,1
59424902908,4,8,4,-6,-12,-8,-7,-6
59424902908,-4,-7,-10,-40,-4,5,1,1
59424919234,-4,-1,0,23,7,-5,-1,-5
59424919234,-4,-3,-6,-5,-21,0,-5,-1
59424920834,-1,0,0,2,12,-3,2,4
59424920834,1,1,-1,32,-3,-1,3,-4
59424933143,-3,-5,-6,-44,-1,2,-5,-2
59424933143,1,-3,-2,-10,-4,-4,1,11
59424958186,-3,-4,-3,22,6,-4,-4,-8
59424958186,-2,0,0,-3,-13,-5,4,4
59424958985,-7,-5,1,30,12,2,-1,-4
59424958985,-1,0,-6,-56,-8,-3,0,0
59424962879,0,-1,1,-6,-4,-2,-1,0
59424962879,1,-2,-2,18,-2,-5,-3,-3
59424979458,1,1,-1,-4,17,6,6,3
59424979458,-3,-2,1,12,-5,1,-3,-5
59424980912,-3,-1,1,8,-7,-1,-4,0
59424980912,8,9,-2,3,-5,-5,1,-2
59425001735,-3,-5,2,-34,-15,-4,-1,6
59425001735,-4,1,3,12,4,3,-2,-5
59425003317,-4,-1,0,20,6,-5,0,-2
59425003317,2,-1,-6,-8,3,5,1,9
59425016018,0,1,5,27,0,-1,-1,-1
59425016018,1,-1,3,7,8,-1,-1,-1
59425022753,1,-1,7,-12,-11,-4,-2,-2
59425022753,-4,-1,-17,-21,-12,-1,-3,-5
59425039264,-4,-2,5,5,-1,0,-4,-3
59425039264,1,-7,4,19,10,4,6,2
59425040793,-5,-9,0,-19,2,1,4,3
59425040793,-7,1,-5,10,3,-4,-4,-7
59425061809,26,12,-6,7,-11,-8,-9,4
59425061809,-3,13,-13,12,-3,4,-2,-8
59425063485,-5,-18,18,15,8,1,-1,3
59425063485,13,1,19,7,7,-2,12,13
59425076336,5,10,2,-13,-8,-1,-15,-69
59425076336,16,-2,-6,8,-6,-7,5,61
59425083152,-21,11,-35,-8,12,11,4,-34
59425083152,6,-9,32,23,9,4,0,-5
59425099392,-8,-1,27,20,10,8,15,25
59425099392,30,13,53,-4,-5,4,-11,24
59425100817,54,9,10,-31,0,5,-3,-35
59425100817,-32,9,7,-6,-3,0,-21,0
59425121704,3,9,21,14,0,0,-29,-23
59425121704,-76,-16,60,39,3,-4,16,2
59425123342,20,12,-20,-53,-4,-4,-1,31
59425123342,-24,-13,-39,16,8,4,7,-23
59425135442,9,-5,-100,22,-14,-15,20,10
59425135442,25,-21,33,-7,-1,-19,8,5
59425160079,34,5,-33,22,13,-4,29,50
59425160079,-37,-17,-59,-44,-37,-19,-1,29
59425160647,-38,1,28,-22,-2,-17,2,23
59425160647,4,-16,-59,-44,-5,14,-11,-23
59425162336,-32,-8,10,51,15,-6,-2,-18
59425162336,28,11,-2,-23,-4,2,-19,-20
59425181718,5,-14,-8,7,-8,25,19,37
59425181718,-3,9,8,12,6,-6,-10,-23
59425183311,-8,3,15,-41,-30,-16,-13,4
59425183311,-4,-6,13,35,9,-2,2,-11
59425195603,4,-5,-8,-9,-5,10,-11,-9
59425195603,-3,7,-15,-3,10,-3,8,-16
59425204363,-30,-8,-82,15,-6,-3,-22,-1
59425204363,26,2,31,-27,5,-3,8,12
59425219249,3,-7,-14,5,6,14,8,2
59425219249,-7,-4,-43,18,-6,-4,-11,-10
59425220806,-10,0,18,22,-8,-3,-3,-4
59425220806,9,-1,15,-14,-18,-14,-6,-5
59425241913,0,-3,76,13,22,4,7,2
59425241913,-14,-6,-41,-15,5,5,-6,-12
59425243397,-1,-6,19,31,-8,-8,-6,-4
59425243397,2,-7,10,-43,-2,6,1,-1
59425255451,-6,1,-10,-3,1,-11,-4,3
59425255451,3,2,4,-1,-15,-4,-2,-4
59425264388,-13,-10,13,6,6,5,-3,-5
59425264388,3,8,-8,26,3,2,0,0
59425279187,-18,-9,-9,-36,-1,-6,-3,-2
59425279187,14,6,20,9,-2,2,-1,-8
59425280901,8,5,19,-23,-1,4,2,2
59425280901,-4,-3,-25,36,5,3,2,-1
59425301754,3,-4,38,-30,-7,-5,-2,-3
59425301754,4,9,5,14,-2,2,1,0
59425303369,-5,-2,-24,-23,-3,-1,0,-1
59425303369,8,7,2,14,7,0,-1,-7
59425315602,9,-1,-13,7,-9,-5,0,14
59425315602,0,-5,-15,-2,2,-1,-5,-3
59425324404,0,6,39,-21,-1,-2,4,5
59425324404,3,-1,1,1,2,2,0,-2
59425339262,6,5,-25,-18,-4,-4,-2,-9
59425339262,-13,-12,-54,41,6,1,-3,-4
59425340892,-11,-7,3,-66,-20,-2,-4,4
59425340892,-18,-3,6,12,0,1,-1,0
59425361934,12,7,6,20,4,-2,1,-1
59425361934,-5,3,4,-33,-9,-7,-5,-1
59425363463,1,-5,-7,20,5,3,1,-6
59425363463,6,1,4,-32,-5,-6,0,1
59425375380,-18,-7,-19,-29,4,5,-3,-4
59425375380,-6,-5,9,-1,-16,1,-1,-3
59425384446,12,1,1,18,5,1,-3,-6
59425384446,8,0,-4,-17,1,-6,-2,3
59425399488,-6,4,2,41,3,-3,-1,-4
59425399488,13,-2,1,-28,1,2,-2,-12
59425400869,1,-1,-1,-23,-11,-3,-4,1
59425400869,-10,-6,-7,21,2,2,-1,-5
59425421816,18,1,-1,7,-1,0,-2,4
59425421816,-12,-2,3,-2,-4,-5,-3,-3
59425423380,-1,0,-4,18,0,0,-2,-7
59425423380,4,-4,2,-18,0,2,2,5
59425435850,-6,-3,-4,0,-4,-6,-7,-5
59425435850,8,6,4,20,2,-1,3,4
59425444361,-9,-1,1,-34,-1,1,0,-1
59425444361,5,-1,-1,22,2,-2,-5,0
59425459254,-9,-5,-6,-3,-6,-5,-4,-4
59425459254,-3,1,-3,-26,0,3,1,3
59425460807,2,0,0,8,6,-3,2,3
59425460807,-6,3,4,-13,-8,-1,-1,-2
59425481694,-2,-4,-8,12,-5,-2,-4,-3
59425481694,1,2,4,-6,6,0,-1,1
59425483272,-25,-3,3,16,0,1,-1,0
59425483272,34,6,-4,9,4,2,2,2
59425495451,-9,-2,1,1,2,-1,0,-2
59425495451,-1,-1,-2,-10,-8,-3,1,-2
59425504324,-3,-4,-4,0,2,-1,-1,0
59425504324,-10,-2,-1,5,-1,0,0,0
59425519226,5,-2,0,7,4,0,-1,-1
59425519226,1,1,1,-40,-10,-1,-1,-1
59425520776,-5,-1,2,23,1,0,1,-2
59425520776,9,4,2,-2,2,1,0,-2
59425541689,-1,-2,-4,4,-4,-2,1,1
59425541689,-5,-2,1,12,6,-1,-4,0
59425543358,2,1,0,-15,1,-1,1,-3
59425543358,-6,-3,-3,14,-3,-2,1,-1
59425555415,-7,0,1,-16,1,5,-2,0
59425555415,1,-1,0,-3,-1,-18,-2,0
59425564391,5,-4,-2,14,3,9,-2,-4
59425564391,-2,-2,0,9,-1,1,0,-3
59425579226,9,3,-1,-11,-6,3,-2,1
59425579226,-9,-3,-3,-5,-1,-1,-1,-3
59425580790,5,-2,-4,8,-8,-4,0,0
59425580790,-8,-4,1,-4,-3,-6,-2,-2
59425601755,0,-3,-3,1,3,0,3,-1
59425601755,0,2,6,20,-1,1,-3,2
59425603445,6,0,-4,-23,-4,-5,0,1
59425603445,-5,-3,-2,-7,-3,0,-4,-2
59425615659,-4,-1,-3,7,1,-5,1,-1
59425615659,-3,-2,-1,7,-2,0,-1,-2
59425624396,12,2,1,7,3,0,0,-1
59425624396,-7,-2,-4,-7,7,3,-4,1
59425639218,0,-1,1,-15,1,-2,0,-3
59425639218,-1,-1,0,-3,7,7,4,0
59425640874,-2,0,2,16,-4,-6,-5,-2
59425640874,-1,0,-1,-9,-4,-1,2,0
59425661938,-5,-1,-3,1,-1,-2,-1,-1
59425661938,0,-1,1,1,-4,0,-3,1
59425663439,-2,-3,-3,5,4,-3,1,-1
59425663439,-5,-2,-5,-1,-4,1,-2,-2
59425675527,-9,-1,4,-5,-1,-5,0,-2
59425675527,17,1,0,-13,-6,4,1,-2
59425691834,-6,-3,-5,10,-1,-10,-3,-3
59425691834,7,5,5,-5,3,3,1,-1
59425714231,-9,-4,-2,21,-5,1,-5,-2
59425714231,-2,-1,-3,-19,2,-1,-2,0
59425715811,-1,1,3,10,-4,1,0,1
59425715811,-1,1,0,-20,-11,-3,-4,0
59425721923,3,-1,1,7,6,-4,-3,-3
59425721923,-4,-2,0,-7,-5,-2,2,-1
59425723435,3,0,2,1,9,8,1,-1
59425723435,-9,-6,-3,13,6,-1,-1,0
59425735370,2,-2,-7,-27,-17,-5,0,-2
59425735370,-5,-3,-4,4,-8,-4,-5,-3
59425744437,-5,-2,-7,-10,1,-7,-5,-3
59425744437,-2,-3,-3,3,5,2,0,-1
59425766899,3,1,2,-7,0,4,2,2
59425766899,-4,-1,2,32,8,1,0,-1
59425768320,-2,-3,-5,-42,-5,4,2,0
59425768320,-3,-2,2,31,-5,-7,-6,-4
59425781907,2,-3,-5,0,-5,-7,-5,-5
59425781907,-1,0,0,-13,3,4,5,4
59425783281,3,5,2,2,-8,-1,-2,-1
59425783281,-12,-6,-2,25,14,2,1,-1
59425795419,2,-1,-2,-42,-17,-3,0,0
59425795419,-2,-3,-3,36,9,0,-4,-5
59425804371,1,1,0,-10,-13,0,1,-1
59425804371,-2,2,1,-9,-15,-6,-2,0
59425818719,-3,0,3,3,1,1,-3,0
59425818719,-2,-2,-1,-21,3,2,1,1
59425825652,-4,-2,0,-1,-1,0,0,-2
59425825652,3,3,11,-2,2,0,1,-1
59425841960,-3,-4,-19,10,9,-1,1,-1
59425841960,-2,-4,11,-23,-14,-5,-8,-3
59425843367,-9,-3,-17,15,2,-1,-2,-4
59425843367,16,6,-4,-4,2,-1,0,1
59425864294,1,3,6,15,8,1,2,-1
59425864294,-7,-6,-4,-33,-16,-4,-1,-2
59425865831,-2,-1,6,3,5,-2,-4,-1
59425865831,-3,-3,-2,-10,-6,0,-2,-1
59425878105,-1,-2,-4,1,-2,-3,-1,0
59425878105,0,1,-4,17,3,-3,1,-3
59425886894,1,-5,0,7,-1,0,-1,-1
59425886894,-5,-3,-10,-30,-5,-1,0,-1
59425909404,-1,-4,-2,0,2,-1,1,0
59425909404,-3,0,-2,0,0,0,-2,0
59425910875,-6,-3,-1,-14,-5,-5,-1,1
59425910875,-3,-1,-3,-27,-4,1,-1,-1
59425915672,0,-5,3,3,-1,2,-1,-2
59425915672,5,4,-4,23,6,-1,-1,-2
59425924428,-2,0,-2,15,3,-1,-1,-2
59425924428,0,-6,-6,-56,-14,0,0,-3
59425938747,-15,-9,-2,39,-13,-5,-4,-4
59425938747,1,1,-8,-6,0,-3,0,-1
59425945587,-12,-9,0,14,8,-1,1,2
59425945587,4,-1,-1,17,6,-3,6,0
59425969426,-3,0,-4,-6,-1,0,2,-1
59425969426,-7,-3,-10,-15,-5,-2,4,-3
59425970874,-3,-2,-5,-10,-7,-4,-2,-5
59425970874,-5,0,-4,41,7,-6,-3,1
59425984247,0,2,3,-18,1,3,-5,1
59425984247,-7,-4,1,19,-2,-1,-8,-4
59425985858,10,4,9,-14,-2,1,-3,0
59425985858,2,2,3,-2,3,4,-2,-1
59425998789,5,4,11,-10,-3,-1,-4,-1
59425998789,3,-1,6,-1,8,0,-6,0
59426005329,5,3,5,41,6,3,1,2
59426005329,5,3,-1,-44,-8,-3,-5,-2
59426021792,3,2,2,0,4,3,-1,1
59426021792,6,5,4,-11,-1,-2,1,-1
59426023371,3,1,1,9,0,11,-5,-1
59426023371,1,1,3,2,2,-6,-3,1
59426044262,5,2,1,-12,-2,-1,-1,0
59426044262,-1,0,-1,1,-6,1,-1,-1
59426045829,2,0,-11,-11,-3,-7,1,-1
59426045829,-8,-5,0,10,1,1,0,-2
59426066933,-3,-1,1,5,-1,-4,-3,2
59426066933,-4,-1,-5,5,-1,-4,2,-2
59426068437,-1,0,2,-12,3,4,-3,-3
59426068437,-3,-3,-6,-3,-5,-1,-1,-1
59426081912,-2,-2,2,12,5,-5,1,-3
59426081912,0,-3,-4,-6,-8,-2,-1,-1
59426083447,1,2,-1,-9,4,2,6,1
59426083447,-7,-4,-1,14,3,3,-1,-1
59426104330,3,9,-2,-11,-5,0,-2,-3
59426104330,-12,-13,1,-4,-6,-8,-2,-2
59426105828,7,3,3,-4,-1,-2,-5,-1
59426105828,-13,0,-3,18,6,3,2,0
59426117872,-2,0,-4,3,-8,-1,1,-1
59426117872,1,-2,-1,2,-1,-1,1,-2
59426126870,0,-2,-3,-12,-8,-10,1,0
59426126870,1,-2,1,5,2,1,0,0
59426141880,-5,-6,-4,1,4,2,2,-4
59426141880,2,4,0,0,-1,0,-4,1
59426143390,-8,-7,-3,-1,-2,-8,-4,-2
59426143390,0,-1,0,9,1,6,1,-2
59426171958,-1,-2,-1,0,0,-4,0,0
59426171958,0,-3,1,-4,-4,-8,-3,0
59426173457,-2,1,-2,-5,1,3,2,1
59426173457,3,-1,-1,3,2,3,-2,-2
59426177953,1,2,-1,3,-2,-1,-3,-1
59426177953,-5,-14,0,-3,0,1,-1,-3
59426194404,1,-1,-2,-1,-4,-2,-1,-1
59426194404,2,1,1,-5,-6,-5,-6,0
59426201928,1,0,0,-3,4,4,1,0
59426201928,3,7,1,1,2,7,2,-2
59426203455,-2,0,2,1,-2,-6,-4,-1
59426203455,0,-3,0,-1,-6,-7,0,-1
59426224424,1,-3,0,-3,2,1,-1,1
59426224424,5,3,3,1,4,10,-2,3
59426225867,0,0,1,-7,-3,2,-2,-3
59426225867,5,5,5,5,-2,-6,-5,-1
59426237923,0,1,2,-6,-3,-10,-7,-3
59426237923,1,2,2,0,1,7,3,3
59426254406,2,2,5,-1,4,3,-4,1
59426254406,2,0,1,-3,-4,-5,-1,-1
59426260873,0,-1,1,0,1,9,-1,3
59426260873,1,2,3,4,3,-2,1,-1
59426269350,1,1,-1,-2,0,-7,-8,0
59426269350,2,2,7,-1,0,-2,-5,0
59426284350,-3,-3,-1,-1,-1,1,-4,-2
59426284350,-2,1,-13,-9,-3,-2,8,2
59426285859,-9,-7,-8,5,-5,-10,10,-5
59426285859,-11,-11,-14,10,2,-6,7,-6
59426297949,-11,-8,-16,-9,-6,-12,7,-3
59426297949,-16,-11,-21,-3,-9,-8,4,-5
59426306841,-11,-8,-17,-1,-6,-7,9,-5
59426306841,-14,-13,-21,-10,-9,-5,6,-4
59426321663,-12,-8,-18,1,-4,-16,6,-5
59426321663,-9,-5,-12,1,0,0,5,-4
59426323417,-8,-4,-5,-2,-1,13,0,0
59426323417,2,1,1,-4,-2,3,-3,-1
59426351724,6,1,5,0,-2,0,-16,-3
59426351724,8,5,14,-3,2,-7,-16,1
59426353428,10,7,12,4,8,18,0,1
59426353428,10,4,9,-6,-1,13,-5,1
59426357990,5,2,5,-4,1,1,-5,1
59426357990,8,2,7,2,-3,-9,-8,-1
59426366921,5,1,4,-2,-1,-1,-5,-1
59426366921,1,-2,-2,1,2,3,3,0
59426381958,1,0,0,1,-4,1,-3,-4
59426381958,-1,-1,0,-2,0,0,1,-2
59426383406,1,0,0,-3,-4,-3,1,3
59426383406,0,1,2,1,1,-3,0,1
59426404124,-4,-2,-5,-10,-1,13,1,-1
59426404124,-2,2,0,5,2,-5,-2,1
59426405782,1,-1,-4,-17,-7,-10,-1,-2
59426405782,-3,-2,-1,0,-2,1,2,-1
59426417982,1,0,2,0,0,-5,-2,-1
59426417982,-1,-1,0,-2,-3,3,0,0
59426426846,0,1,0,2,3,6,-5,0
59426426846,1,0,2,-4,-2,-10,-5,-1
59426441744,-1,-1,0,3,0,3,3,-2
59426441744,-1,2,-1,-6,-3,0,-3,0
59426443293,1,1,-1,-2,-4,-10,-1,-3
59426443293,4,0,-3,1,2,8,0,1
59426464439,-2,0,0,4,4,2,4,1
59426464439,2,-1,-2,0,-2,-2,-1,-2
59426465879,-4,-3,0,1,-4,-4,-4,-2
59426465879,-4,-2,-1,0,1,4,-1,-4
59426477928,2,4,1,-3,-1,-10,-4,0
59426477928,-3,-1,1,2,0,3,1,1
59426494413,1,-1,-1,0,-2,1,-1,-2
59426494413,-3,-3,-1,-1,0,-1,-2,-1
59426501788,-2,-2,0,5,-1,3,2,-1
59426501788,-2,-1,3,-3,-2,1,0,0
59426503295,-4,-5,0,2,-2,-6,-2,-1
59426503295,-2,-2,-1,-3,2,5,-1,-2
59426524291,-1,-5,-5,3,-2,-5,-1,0
59426524291,2,1,1,4,1,2,1,-3
59426525895,1,2,-3,-8,-2,-1,0,2
59426525895,-1,-2,-3,2,-2,-6,-2,0
59426546257,-2,1,4,1,-1,-1,-2,1
59426546257,-1,-2,-2,0,1,0,0,-1
59426546818,-2,-2,-3,5,2,0,-1,0
59426546818,-1,-1,-1,-8,-6,-4,-3,2
59426561076,-2,-1,-2,-1,1,2,1,-1
59426561076,0,-1,2,-2,-2,-1,0,0
59426561862,-2,-4,-7,0,-1,-2,-3,-3
59426561862,-4,-1,-2,2,1,-2,0,-1
59426583632,3,1,0,-6,-2,1,-3,-3
59426583632,1,-3,-2,-5,-1,-3,-2,-2
59426584320,-2,-2,-8,7,4,3,-1,0
59426584320,0,2,8,-2,-4,-4,1,1
59426605959,-4,-4,-1,1,1,-1,-1,0
59426605959,-2,0,0,-1,-1,-1,-1,-2
59426606750,-1,1,2,3,3,1,-4,-2
59426606750,-3,-3,-4,-4,0,-4,-1,-2
59426621035,0,-1,-1,-4,-3,0,-2,1
59426621035,1,-1,-2,-2,-2,-1,-3,-1
59426621771,-1,5,2,-1,-1,-2,1,1
59426621771,-7,-9,-5,3,-2,-2,0,1
59426643565,0,0,2,-2,-3,-2,1,0
59426643565,-1,0,-3,-2,1,1,0,-1
59426644312,-1,1,2,-2,-1,-2,-2,0
59426644312,-3,1,-3,-4,-1,-3,-3,-3
59426666009,3,1,-4,1,1,2,0,0
59426666009,-4,-3,-2,1,-1,0,0,0
59426666776,1,-3,0,-4,-4,-3,-2,-1
59426666776,0,0,-1,-1,0,-2,-1,-1
59426689221,-4,-3,-2,-2,0,-1,-1,-3
59426689221,1,0,-3,0,0,-2,0,0
59426689996,-1,-1,1,-2,-3,0,0,-4
59426689996,4,2,-3,-1,-1,-1,-1,-1
59426703532,1,1,-1,-1,-2,-3,-2,-1
59426703532,0,1,1,0,0,0,-1,1
59426704380,-8,-16,0,-2,-2,0,-2,0
59426704380,-2,1,0,-1,-2,-2,-1,-1
59426725947,0,1,-1,-2,0,-1,-2,-1
59426725947,-3,-2,-2,-2,-3,-1,0,-2
59426726780,2,0,-1,1,-2,-1,2,0
59426726780,3,3,-2,-1,-1,-1,-1,-2
59426741044,-3,-4,-1,-1,-2,0,-4,-1
59426741044,1,1,-2,0,-1,-1,-3,-1
59426741809,0,1,-2,-2,-2,-3,-2,-1
59426741809,0,-1,2,-2,0,-1,0,0
59426763563,-1,2,-3,-1,-1,-2,1,-2
59426763563,-1,-1,-3,-3,-1,-1,-1,-3
59426764328,-3,-1,-2,-2,-3,-1,-1,-1
59426764328,2,-2,0,0,-3,-2,0,-2
59426786003,-2,-3,-4,-2,-3,-2,-3,0
59426786003,-2,-2,-3,-1,0,-2,1,-1
59426786732,3,3,2,0,0,0,-1,0
59426786732,0,-2,-1,-1,0,-1,-2,-1
59426802560,-1,-2,-2,1,-1,-1,0,-3
59426802560,-1,0,1,-1,-1,0,-2,1
59426803390,-1,1,-2,1,-2,-1,0,-1
59426803390,-2,-1,1,-2,0,-2,0,-1
59426823674,-1,2,0,-1,0,0,-2,-2
59426823674,-5,-16,1,-3,-2,-1,-3,-1
59426824285,-2,0,0,-1,2,-2,-2,-3
59426824285,-2,-1,-3,-1,-2,0,1,1
59426846138,0,-2,1,2,-1,-1,-1,-1
59426846138,2,2,-1,-1,-3,0,-1,-3
59426846812,-1,-1,0,0,-2,-1,-1,-1
59426846812,1,-6,-1,0,-2,-1,-4,0
59426861154,4,4,3,-2,-1,-2,0,1
59426861154,-1,0,-3,7,0,-1,1,-2
59426861789,-1,-1,0,-10,-4,-2,0,-1
59426861789,-2,2,0,13,3,-2,-2,-2
59426891883,-3,-1,-1,-19,-3,-3,0,-1
59426891883,0,2,1,5,0,-2,-1,-2
59426892518,0,2,0,3,2,0,0,-2
59426892518,-1,0,2,13,-1,-1,-1,1
59426906055,-1,-1,4,24,4,1,1,-1
59426906055,-4,-4,-9,-51,-11,-6,-1,-3
59426906833,-7,-15,-4,-9,-5,-2,-2,-1
59426906833,-1,2,4,21,-2,1,-1,-3
59426921011,3,-2,1,22,5,0,0,0
59426921011,-2,0,-4,-24,-4,-2,1,-1
59426921772,0,0,-8,-36,-6,-3,-1,1
59426921772,-2,-3,-3,-15,1,0,0,-2
59426951738,-6,3,2,18,5,1,1,0
59426951738,4,4,-1,10,-7,-2,-4,-1
59426952494,-2,5,4,17,10,1,1,-3
59426952494,-7,-13,6,-71,-20,-4,1,-2
59426966225,1,2,17,57,8,-1,-3,4
59426966225,-8,-3,-17,-79,-14,-3,0,1
59426966848,-1,4,-1,48,4,0,-7,0
59426966848,4,-5,4,3,4,1,-3,0
59426981199,-16,-16,-1,-25,-7,-3,-2,-2
59426981199,16,11,8,19,10,1,1,4
59426981807,1,-2,7,11,1,-1,-1,-2
59426981807,-7,1,-14,-41,-8,-4,0,0
59427003482,-3,5,-7,30,-1,-1,-1,-3
59427003482,-10,-13,-1,25,-1,0,1,-3
59427004237,0,19,1,15,6,-2,0,-2
59427004237,0,-7,-8,-8,-4,-4,-4,1
59427025954,4,8,-6,-17,-5,-1,-2,-4
59427025954,17,-8,3,13,2,0,-2,0
59427026747,6,2,1,15,0,-2,-1,-4
59427026747,-3,3,-4,-18,-1,-1,0,2
59427041225,1,-1,-5,12,-7,-2,-3,-1
59427041225,-4,4,3,38,5,-1,-3,0
59427041915,1,-8,1,-32,-7,0,-1,4
59427041915,3,2,-8,-57,-5,-2,0,-3
59427063517,-2,-8,-5,-25,1,-1,0,0
59427063517,-1,5,10,22,7,0,-2,-2
59427064333,-3,-6,-2,5,-1,-2,0,0
59427064333,-2,3,0,19,1,-2,2,-2
59427094429,2,-2,-8,-44,-9,-3,-3,-3
59427094429,-4,-4,0,0,3,1,0,1
59427094989,1,5,0,-4,-4,-1,1,-1
59427094989,-6,-10,3,35,7,0,-4,-3
59427101229,-5,-4,-7,-20,-1,-1,-3,1
59427101229,-5,-2,-3,4,-1,-2,0,-2
59427101834,-3,-7,-5,-4,-4,-1,-1,6
59427101834,-2,2,-3,25,2,-1,-2,-24
59427123733,5,-1,0,-14,0,-2,-1,-5
59427123733,-8,1,0,22,3,0,-2,10
59427124298,1,-3,-6,-41,-11,-2,-5,-6
59427124298,14,10,3,19,4,0,1,4
59427146193,4,4,-1,3,-1,-1,2,0
59427146193,10,8,-1,-2,-2,-1,2,-7
59427146812,4,-6,-4,14,2,-1,0,4
59427146812,5,2,0,-19,-5,0,-3,7
59427161842,-7,-6,0,-7,-2,0,-3,-11
59427161842,10,7,0,1,1,-1,-2,5
59427168622,3,3,1,-10,0,-1,0,1
59427168622,-11,1,1,33,1,0,0,-3
59427183616,2,-3,0,15,1,0,1,7
59427183616,-12,-7,0,2,-1,-1,-2,-6
59427184250,-5,-3,0,-44,-3,2,0,-5
59427184250,-2,-1,-6,-12,-8,-5,-3,1
59427206216,-3,0,3,-11,2,0,1,0
59427206216,-4,-3,-6,-14,-9,-4,-3,-5
59427206795,1,1,5,24,6,0,0,-2
59427206795,2,-1,-1,18,3,0,-1,3
59427229249,-1,0,-2,-5,-3,-1,1,1
59427229249,-3,16,0,0,-2,-1,2,-4
59427230035,-5,-2,-2,-4,-2,-3,-1,0
59427230035,-12,-2,3,5,2,-1,0,0
59427243776,-1,-2,0,7,-1,-2,-2,-1
59427243776,1,-1,-1,-3,1,-1,-2,0
59427244411,-10,-10,-5,10,-5,-3,0,-3
59427244411,2,0,-3,5,-1,-1,-2,3
59427266011,3,3,1,-11,-2,0,0,-3
59427266011,-7,-9,-1,14,-1,0,-3,-2
59427266825,1,1,-4,-3,-1,-2,0,0
59427266825,-3,-3,-1,6,0,0,-2,0
59427281061,-3,-3,-3,5,-1,0,-1,-1
59427281061,5,0,-2,-29,-5,-3,0,-2
59427281847,-7,-17,-2,17,0,-1,-1,-4
59427281847,2,4,1,-1,1,-2,-1,-1
59427303703,-2,-5,-3,-2,-4,-1,-3,-1
59427303703,-6,0,2,7,0,2,0,-2
59427304308,1,5,2,-1,1,0,-2,-3
59427304308,-2,-3,1,-4,-2,0,-2,-1
59427326238,-3,-4,-1,-1,-1,-2,-3,1
59427326238,-2,-6,-3,2,1,0,-3,-1
59427326817,0,3,-2,-18,-4,-3,0,-2
59427326817,-8,-13,1,10,1,-1,-1,-3
59427341277,0,6,0,3,0,-1,2,-1
59427341277,-4,-4,-1,11,-1,-1,-1,-1
59427341836,0,3,1,4,-1,-1,-3,1
59427341836,2,2,1,15,4,-2,0,1
59427363680,0,0,-3,-30,-6,-2,-3,-3
59427363680,-1,-2,0,-2,0,-2,1,-1
59427364331,1,11,0,6,0,0,-1,-2
59427364331,3,3,0,-4,-1,-1,-1,-3
59427386792,-1,1,-2,2,-1,-3,0,-2
59427386792,4,-2,0,11,1,-1,-1,0
59427387487,10,9,-1,-18,-4,-3,0,-2
59427387487,0,1,-2,-4,0,-2,-2,0
59427401045,-3,-1,-1,3,-1,0,1,3
59427401045,2,-1,-1,-11,-3,-1,0,-2
59427401847,-5,-7,-4,-3,0,-1,1,-1
59427401847,-2,4,-2,-1,-3,-2,-1,-2
59427423474,-1,-4,-2,17,4,-2,-1,0
59427423474,-4,-4,-3,-19,-9,-3,-3,-1
59427424315,-4,-4,0,10,1,0,-2,1
59427424315,0,-2,-3,-6,-1,0,-1,-2
59427446869,-1,-1,1,-2,0,-1,-1,0
59427446869,-2,1,1,3,0,-1,-1,-2
59427447531,0,-5,-3,-2,-1,-2,-1,-4
59427447531,-5,-18,-2,-10,-1,1,-1,1
59427461230,-1,0,0,2,0,-1,0,1
59427461230,-1,0,-4,-5,-3,-1,-2,0
59427461799,9,-2,-1,-1,-3,-1,-2,0
59427461799,11,13,4,3,0,1,2,0
59427483515,-1,-1,-1,-1,-2,0,-2,-2
59427483515,-4,-3,1,-9,0,-1,-1,-2
59427484320,-2,-1,-1,4,-1,0,0,0
59427484320,-2,-1,-2,3,-2,-3,-1,0
59427506642,2,-2,0,7,0,-1,-1,-2
59427506642,2,4,-1,-13,-4,0,-2,-2
59427507412,-5,-2,-3,-6,0,-2,-2,-2
59427507412,0,-1,0,5,0,-3,-2,-1
59427520431,-3,0,-4,-6,-2,-1,-2,-3
59427520431,-3,-5,-1,5,3,-1,-1,1
59427528798,-13,-15,-3,2,-2,-3,-2,-4
59427528798,-4,0,-1,-4,-3,1,0,0
59427543699,0,0,-3,-4,-2,-2,-4,0
59427543699,0,-3,-2,-1,0,1,1,0
59427544325,0,1,-2,4,0,-1,-2,-1
59427544325,-1,1,-3,-10,-2,-1,-2,0
59427566788,3,1,1,-10,-4,-2,1,-1
59427566788,-2,1,-5,7,-1,-1,-4,-2
59427567518,-3,-1,1,5,0,1,-1,0
59427567518,-1,-1,0,3,3,0,-1,-3
59427580422,0,0,-5,0,-5,-2,-1,-1
59427580422,0,-1,1,11,-2,-3,-2,0
59427588552,3,1,-1,-5,-1,-1,-3,1
59427588552,-1,0,0,-1,1,0,-1,-1
59427603523,-1,-3,0,-2,-2,1,-1,0
59427603523,3,5,1,-1,-2,-3,0,-2
59427604319,-1,1,-1,5,-1,-1,0,-1
59427604319,-1,0,-3,0,-2,-1,-2,-3
59427626668,-3,-7,-2,-4,-2,-3,-1,0
59427626668,-2,0,-2,-3,-3,-1,-1,-2
59427627448,1,3,1,-3,0,1,-1,-1
59427627448,-5,-1,-3,-3,-2,-2,-2,1
59427640559,0,2,0,-2,1,-1,-2,-3
59427640559,-4,-5,-1,-4,3,-1,1,0
59427648749,2,1,-1,0,-1,-1,1,-1
59427648749,4,1,0,-5,-5,-2,-3,-1
59427663496,0,-6,-3,5,1,-2,-2,-2
59427663496,-1,1,-2,-4,-4,-1,0,-3
59427664253,-4,-2,-1,-4,-2,-1,-2,-1
59427664253,-1,-2,1,-3,0,-1,-1,-2
59427686702,-1,1,1,2,0,0,0,1
59427686702,-2,-1,2,-4,2,-1,-3,0
59427687482,4,8,-4,-18,-5,0,0,-2
59427687482,-4,-6,-2,7,-1,-1,-3,-1
59427709241,-1,3,-2,-2,-4,1,-1,-1
59427709241,4,1,0,-1,1,-2,-1,-1
59427709938,-2,1,-1,-4,-1,-3,-1,-1
59427709938,-1,0,0,1,-1,-2,1,0
59427723492,-2,-1,0,2,3,1,-3,1
59427723492,-3,-4,-1,-13,-6,-1,-2,-3
59427724326,0,-3,1,8,1,-1,-2,0
59427724326,0,-1,-2,-1,-1,0,0,-1
59427746781,2,0,-1,-1,0,0,-1,-1
59427746781,0,-2,1,4,-1,-1,1,1
59427747496,-3,-5,1,-3,-2,-2,-1,0
59427747496,3,2,0,2,-4,-2,-1,-2
59427760386,-2,3,-2,-9,-3,-2,-3,-1
59427760386,-6,-4,-2,2,2,0,-1,1
59427768567,-2,-1,-2,4,-2,-1,1,1
59427768567,-2,-2,-2,-9,-1,-3,-1,0
59427783699,2,8,-1,0,-1,0,0,-3
59427783699,-3,-1,-2,1,-1,0,-2,-2
59427784327,-1,1,-1,2,1,-2,-2,-2
59427784327,-2,-1,-1,-1,-1,0,1,-2
59427806706,5,-3,0,-2,-3,-2,-2,2
59427806706,8,5,1,3,1,2,2,1
59427807485,-2,-1,-1,0,0,-1,-1,1
59427807485,1,4,-4,-3,-1,0,-3,-1
59427820603,-5,-5,1,0,0,-2,-1,-1
59427820603,-2,-3,-3,-1,-1,-2,-1,-1
59427828517,0,-3,0,3,-3,0,-1,-2
59427828517,-2,0,0,-1,-2,0,0,-1
59427843657,-3,-2,0,-1,-1,-1,-1,-1
59427843657,-3,-2,0,1,-1,-2,-1,-1
59427844321,-1,0,0,12,3,0,-1,-3
59427844321,-2,-4,0,-18,-4,-1,-1,-2
59427866787,-2,-1,-4,-10,0,-2,-1,1
59427866787,-1,0,0,4,-1,-1,-2,-3
59427867539,-2,-4,-3,-2,-3,-1,0,0
59427867539,5,6,-2,7,1,-2,0,1
59427889185,-7,-20,-1,3,-2,-2,0,0
59427889185,0,-1,-1,-5,1,-1,0,-1
59427890035,1,-1,-2,-3,0,-2,1,-1
59427890035,-4,-2,-2,2,1,-1,-1,-2
59427903908,0,5,1,-4,-2,1,-1,-1
59427903908,1,-1,-3,3,0,1,-4,-2
59427910996,-2,-4,-1,-1,-4,-2,-3,-1
59427910996,-1,-1,-3,0,-2,1,0,-1
59427926661,0,1,-1,0,-1,1,-3,0
59427926661,-2,1,1,-2,0,-1,-1,-1
59427927510,-2,2,-1,-5,-1,0,-1,0
59427927510,-2,-2,-1,1,-2,-2,-5,-1
59427949380,-3,4,-2,3,-1,-3,-1,-1
59427949380,2,0,-1,-7,-1,-2,0,-1
59427950024,-1,-3,-1,-4,0,1,1,-3
59427950024,-2,0,0,2,-1,0,1,-2
59427963452,-8,-3,0,-1,0,-1,-3,-1
59427963452,5,2,-2,-1,-1,-2,-1,-2
59427964255,0,-3,-2,-8,-2,-1,0,-1
59427964255,-3,-3,-2,0,0,-2,0,0
59427986842,2,1,-1,-1,0,1,0,0
59427986842,-5,-3,-2,-2,-1,-2,-2,-2
59427987476,4,7,-2,2,0,-1,-3,1
59427987476,1,1,-1,1,-1,-2,-3,-2
59428009196,0,0,1,-1,-3,0,0,-3
59428009196,-3,-4,-3,1,0,-2,-1,0
59428010030,-1,0,-1,-1,-1,-2,-1,-2
59428010030,0,0,-1,-1,-1,-1,-1,2
59428023504,0,-2,-2,-1,-1,-2,-1,-1
59428023504,-1,0,1,1,-2,1,-1,1
59428024299,0,-4,0,0,-1,1,-3,-2
59428024299,0,-3,0,-6,-2,-1,-1,0
59428046933,0,0,0,0,1,0,0,-2
59428046933,-2,-3,-1,3,-1,-2,-1,0
59428047557,0,-4,-2,-6,-1,-1,-3,-1
59428047557,-1,-1,-2,-2,-3,-2,1,-2
59428069173,0,-1,-3,0,0,-1,0,-1
59428069173,-4,-1,0,-2,0,-2,-2,-1
59428069961,-11,-4,-1,0,0,-4,-2,-1
59428069961,-1,-1,1,1,-1,0,-1,0
59428083769,2,6,0,-2,-4,-1,-5,-3
59428083769,-4,2,0,0,-1,-2,0,-3
59428084411,-1,-3,0,-1,-1,0,2,-3
59428084411,-2,-4,-3,0,-1,-1,-2,-2
59428106886,-2,1,-2,-1,-1,0,-2,0
59428106886,1,-4,-4,3,0,0,-1,-3
59428107493,1,0,-2,-5,-2,-1,-2,0
59428107493,0,1,0,3,0,-3,1,0
59428129442,0,-3,0,-1,-1,-2,3,0
59428129442,1,-2,-1,-8,-2,-1,-3,-1
59428130040,0,2,0,18,1,-2,-2,2
59428130040,-2,-3,-1,-19,-5,-1,-2,-1
59428143492,-1,-5,-2,2,2,-2,-2,-2
59428143492,0,-3,-1,2,-2,-1,-1,-2
59428144282,1,0,-1,1,-2,-3,-1,-1
59428144282,-1,-1,1,2,0,0,-1,-1
59428166627,-2,-2,-2,-1,-2,1,-1,-1
59428166627,-2,0,-2,-4,-3,-1,0,-2
59428167419,0,-2,1,5,0,0,-2,0
59428167419,2,1,-1,-1,-1,-2,-1,0
59428189170,0,-3,-2,-6,-4,-2,-1,0
59428189170,7,11,0,1,-2,-2,0,1
59428189972,-4,-4,1,-1,-3,0,-1,-2
59428189972,-3,0,0,4,0,0,-2,-3
59428203930,-1,0,0,-1,-1,-2,-1,-1
59428203930,-2,0,-3,0,-1,-1,-2,-1
59428210951,-1,-1,-1,-6,1,-3,-1,-3
59428210951,-1,-1,-4,1,0,0,-1,0
59428226850,0,-1,-2,1,0,-2,-1,0
59428226850,-4,-6,-1,-1,-2,0,-1,1
59428227538,0,-1,-1,-5,-3,-1,-1,1
59428227538,-3,-2,-1,-1,1,-3,0,0
59428249353,-1,-1,-2,0,-1,-1,0,-1
59428249353,2,-3,-1,-3,0,-3,-1,-2
59428249983,0,-1,-1,-2,-1,-2,-2,1
59428249983,-3,0,0,-1,-3,-2,-3,-1
59428263586,5,1,1,0,-4,-4,-1,-2
59428263586,-4,-2,-2,0,-4,0,-1,0
59428264316,-1,1,-3,3,0,0,0,-2
59428264316,-1,-3,-1,-4,0,2,-1,-1
59428286651,-2,0,-3,-1,-2,0,-2,0
59428286651,-2,-4,-2,-1,-1,-2,-1,-4
59428287222,0,1,1,-4,-1,-1,0,-1
59428287222,-2,-4,-2,1,1,-1,0,0
59428309456,-1,-2,0,-2,-1,1,-1,0
59428309456,0,0,2,1,-3,-1,2,0
59428310012,-1,0,-2,-6,-1,-1,-1,-1
59428310012,0,1,-2,0,-1,-2,-3,-3
59428323489,-2,-1,1,-2,1,-1,-3,2
59428323489,-2,-2,-2,-1,-1,-2,2,1
59428324267,-1,-2,-2,-2,-1,-1,0,-1
59428324267,-4,-13,0,4,-2,1,-2,-2
59428346733,0,2,-1,-4,-1,0,0,-1
59428346733,0,1,-2,0,0,1,-2,-2
59428347501,-2,-3,-1,1,0,0,0,-1
59428347501,6,6,0,-2,-1,-2,-2,0
59428369430,-3,-2,-1,0,-2,-1,0,-1
59428369430,-4,-3,-3,-5,-1,0,-1,0
59428370100,0,2,-1,-2,-5,-1,-1,1
59428370100,-1,0,-2,3,-2,-3,-1,-3
59428383693,-2,-2,-2,-1,-1,0,0,-3
59428383693,-1,1,0,-2,-2,-1,-1,-1
59428384335,-1,-1,-2,-4,1,0,-2,-4
59428384335,-1,1,0,0,0,-2,1,0
59428406789,0,-2,-2,2,-1,-1,-1,-2
59428406789,-2,-2,-1,0,0,0,-1,-1
59428407553,-1,-1,-1,-2,-2,-2,-3,0
59428407553,-1,-1,-1,-1,-1,-2,-1,0
59428429363,-1,-1,-2,-3,-2,0,-2,-1
59428429363,-1,-1,0,-3,0,0,-1,-2
59428429968,-1,0,1,2,-2,-2,0,-1
59428429968,-3,-1,-2,-7,0,1,0,0
59428443134,-1,-2,0,2,0,0,-1,2
59428443134,-2,-1,0,-10,-3,-2,-1,0
59428451259,-1,-2,-1,1,-1,0,-2,-2
59428451259,0,0,2,-1,1,-1,-1,-2
59428466974,-1,1,-1,-2,0,-1,1,-2
59428466974,0,-2,2,5,-3,-2,0,1
59428467559,-1,-3,-2,-3,-1,0,-1,1
59428467559,0,2,-5,0,-2,0,-2,0
59428489379,-1,-1,-1,-2,-1,-3,-1,0
59428489379,1,5,-2,1,0,-2,-2,0
59428490021,-6,-14,1,-3,-2,-1,0,-3
59428490021,-2,-1,1,4,1,0,-1,0
59428502854,-3,0,0,-4,1,-1,1,0
59428502854,1,-1,-3,1,-2,-2,0,-1
59428511296,-1,3,-1,1,1,-2,-3,-2
59428511296,-1,-2,0,-2,-3,-1,-1,-3
59428526925,-2,-3,-1,-6,-1,0,0,-2
59428526925,-2,-3,-1,1,1,0,0,-1
59428527458,0,2,-2,1,2,-1,-1,-1
59428527458,-2,-3,0,1,0,0,-1,-2
59428549199,-1,-1,-3,1,-4,-1,-2,0
59428549199,2,0,-1,-3,-1,-2,-1,1
59428549976,0,0,1,1,-1,0,0,-3
59428549976,-2,0,-3,-9,-2,-1,-2,0
59428563069,-1,-2,-1,2,-3,-2,-1,-1
59428563069,-4,-3,-3,-2,-2,0,-2,-1
59428571308,-1,0,0,-2,0,-1,-1,-1
59428571308,0,-1,0,0,-2,-1,-3,0
59428586906,0,-1,2,-2,0,0,0,-3
59428586906,-1,-3,-3,9,-2,-1,-1,-3
59428587490,0,0,-2,-3,-4,-1,-2,-1
59428587490,2,0,-2,-2,-2,0,-1,-2
59428609247,0,-2,0,-2,1,-1,-1,1
59428609247,-2,0,-1,2,0,-2,-3,-1
59428610090,-2,0,-2,-1,-3,-1,0,-1
59428610090,-1,-3,-1,-6,-2,-2,-1,-2
59428623027,-1,4,0,2,-2,0,-2,-1
59428623027,-8,-17,0,-6,0,0,0,-1
59428631105,0,0,0,1,-2,0,-1,1
59428631105,1,0,1,-1,-1,-1,-1,-1
59428646877,0,2,-2,2,-1,-1,-2,-3
59428646877,0,3,-1,-6,-1,0,0,-2
59428647470,2,0,0,-1,-1,0,-3,-1
59428647470,-3,-5,0,4,0,0,-1,0
59428669237,2,-2,0,-1,-1,1,-1,-1
59428669237,-2,1,-1,-5,0,-2,-1,0
59428670036,-2,-2,-3,-1,0,-1,0,0
59428670036,-1,1,1,2,-1,0,0,-1
59428683063,-3,-2,-1,-5,-1,-2,-2,-1
59428683063,-1,2,-1,2,0,-1,0,-1
59428691958,0,-1,-2,-3,-2,-2,0,-1
59428691958,-4,-4,-2,-1,-1,0,-1,-1
59428706932,1,0,-2,6,-2,-3,-3,0
59428706932,0,-1,-2,-3,0,-2,-3,-1
59428707512,-2,-1,-3,-3,-2,-1,1,-2
59428707512,-1,-2,-4,-2,-3,-2,0,-3
59428729374,-2,-3,-1,1,-1,-1,0,-3
59428729374,-2,-8,0,-1,-3,0,-3,-2
59428730802,-1,1,0,2,-1,-1,-3,1
59428730802,0,2,0,-4,-2,0,-4,-1
59428742973,-2,-4,1,-6,1,-1,0,-1
59428742973,0,2,-1,-3,-1,-1,-1,-1
59428751887,-2,0,-1,-2,0,-2,0,-2
59428751887,0,-3,-2,1,0,-1,-2,-2
59428766094,1,2,-2,0,0,-3,1,2
59428766094,0,2,-1,-2,-3,1,-1,-3
59428773042,-1,-1,-2,-2,-1,0,-1,0
59428773042,0,1,-1,0,-2,0,0,0
59428789498,-5,-6,0,-3,-1,0,0,0
59428789498,3,1,-1,-2,-1,-2,0,0
59428790822,-1,-3,-2,0,-3,-1,1,-1
59428790822,-1,1,0,1,0,-1,-1,-1
59428811806,-2,-4,-3,-4,-1,-1,-1,-3
59428811806,-3,-2,-1,-3,-2,-1,1,0
59428813288,-2,2,-1,-2,0,-1,-2,-1
59428813288,1,-1,0,2,0,-1,2,1
59428825945,1,-1,-1,-2,-2,1,-3,1
59428825945,0,0,-2,1,-1,-1,-2,-2
59428841899,1,-2,1,-3,0,-2,-3,-2
59428841899,-2,-4,-1,-3,-1,-3,0,0
59428849233,-1,-2,-2,3,0,-2,-2,-3
59428849233,0,0,0,-2,-2,-2,-1,0
59428850789,-2,-3,0,-2,0,-1,-2,0
59428850789,-2,0,-1,-1,-1,-2,-1,-1
59428871761,5,12,-1,-2,-3,0,-2,-1
59428871761,-1,-1,-1,2,1,0,-1,-1
59428873339,1,0,0,-3,-1,-1,-1,1
59428873339,0,-2,-2,-7,-1,-1,-4,-2
59428886237,0,-1,-1,-4,-2,-2,-1,-2
59428886237,-3,-2,1,2,0,-3,-2,-3
59428900532,-1,-1,-3,2,-1,-2,1,-1
59428900532,0,3,0,0,-1,-1,2,1
59428909404,-4,-4,-2,-6,-2,-2,-2,0
59428909404,1,-1,-1,2,-1,-1,-3,0
59428910863,-1,-4,-3,4,2,-1,-1,-2
59428910863,-2,-2,1,-10,-5,-3,-2,-2
59428931953,-2,-3,2,2,0,-3,0,0
59428931953,-2,-3,-3,3,1,0,-2,-1
59428933405,1,1,-3,-4,-4,-1,-2,0
59428933405,-1,-4,-1,4,1,2,-2,-2
59428946236,-5,-1,1,5,1,1,0,0
59428946236,-1,1,-3,-22,-5,-3,-1,-1
59428952888,0,0,0,-1,2,-2,0,-3
59428952888,-3,-4,-3,5,-2,-1,-3,0
