timestamp,emg1,emg2,emg3,emg4,emg5,emg6,emg7,emg8
116909967329,0,-1,-1,-1,1,-1,-1,-1
116909967329,-2,-1,-1,-2,0,0,2,-1
116909968456,-2,-2,0,-2,0,0,-1,-2
116909968456,-1,-2,-1,0,-2,-1,1,-2
116909972474,-2,0,-1,0,-2,-1,-1,-1
116909972474,-1,-1,0,-1,0,-2,-1,0
116909973170,-1,1,-3,-1,-1,-2,-2,0
116909973170,-1,1,0,-1,-1,0,-1,0
116909978177,-1,-2,0,-1,-2,-1,-1,-2
116909978177,-1,-2,-3,0,-1,-1,-2,-2
116909986681,1,-1,-2,1,-2,-1,-1,1
116909986681,-1,-2,-4,-1,-1,-3,-2,-1
116909994495,-2,-4,-1,0,-1,0,-1,-2
116909994495,-1,-1,0,0,-2,-1,-1,-1
116910008663,-1,-1,1,0,1,-2,-1,-1
116910008663,-1,1,1,-2,-2,0,0,1
116910016671,0,1,0,-3,-2,-2,0,0
116910016671,0,0,-2,-2,-1,1,-1,-2
116910039454,0,-2,-1,-1,-3,-1,0,-1
116910039454,-2,-3,0,0,0,-2,-1,-1
116910041117,-1,-2,-2,-3,1,-2,-2,-2
116910041117,-2,0,0,-1,-1,-1,-2,0
116910086250,0,-2,1,-1,-1,-1,-2,1
116910086250,-1,-2,-2,-1,-1,-3,-1,-2
116910087149,-2,-1,-1,-3,-2,-1,-1,-2
116910087149,-1,0,-1,0,-1,-1,-1,-1
116910087851,1,1,0,1,1,1,1,1
116910087851,0,-1,-1,1,0,-1,1,0
116910090954,1,-1,-2,-2,-1,-3,0,0
116910090954,-1,-1,-1,-1,-1,-2,-3,-3
116910097753,-2,0,-3,-1,-2,0,0,0
116910097753,-3,0,0,-4,0,-1,-1,-1
116910105356,-2,-2,0,2,-1,-1,0,0
116910105356,-3,0,-2,0,0,0,-1,-2
116910114324,-1,-3,-1,-1,-2,-1,-4,-1
116910114324,-1,-2,1,0,-2,-1,-2,0
116910128526,-1,-1,-2,-3,1,0,0,-1
116910128526,-2,-2,0,2,-1,0,-1,-1
116910135252,-3,0,-2,-3,-2,-2,0,-5
116910135252,0,0,-2,0,-1,0,-1,0
116910159204,0,0,-2,-5,-2,-1,-2,-2
116910159204,-3,-2,-4,-5,-5,-7,-1,0
116910160747,-1,0,-1,2,3,3,-1,-2
116910160747,0,-1,-1,4,4,5,1,3
116910172789,3,3,4,5,1,12,2,2
116910172789,0,10,3,-6,-1,-12,-1,0
116910181802,-1,-4,0,7,-5,-5,-2,-2
116910181802,-5,-2,-2,-1,-7,-4,-2,-5
116910196720,-2,-3,-3,-2,4,1,-1,-3
116910196720,0,1,-2,-1,-5,-5,-4,0
116910198301,-1,0,0,0,2,1,-3,0
116910198301,-2,0,-1,-4,3,3,2,-7
116910226829,-4,2,2,6,-1,-5,-6,-34
116910226829,3,-7,-2,-9,7,9,5,82
116910228324,1,-1,-5,-9,-6,-10,-8,-5
116910228324,0,-2,0,2,1,0,3,3
116910233078,0,-2,-3,-9,0,13,4,11
116910233078,-3,3,-1,-1,-7,-18,-2,-30
116910241770,-3,-4,1,4,-6,0,-4,-5
116910241770,0,3,4,4,-3,2,-6,4
116910256763,-8,-3,5,6,4,-6,3,19
116910256763,-1,-7,-12,-20,0,11,-1,-13
116910258308,1,1,-2,-6,0,-3,2,6
116910258308,-3,-2,-6,-5,-7,2,-6,-11
116910279285,-8,0,1,7,-4,-7,-14,-34
116910279285,10,-8,3,4,0,-12,4,-6
116910280861,2,5,1,-3,5,5,-7,-6
116910280861,6,-2,3,3,2,-1,12,29
116910292906,0,-4,-2,-5,-5,-3,4,6
116910292906,-1,12,-1,2,0,6,-3,-4
116910301849,2,-5,-6,-4,-7,-5,-5,-9
116910301849,-1,0,2,2,2,-17,-5,-20
116910316861,-10,-9,-7,-1,1,-1,-8,5
116910316861,7,1,2,5,-3,8,0,-13
116910318365,-10,-3,-2,0,-8,-7,-9,-32
116910318365,-5,-1,-4,-9,10,20,16,12
116910339376,10,2,-2,-1,-7,-7,-1,-3
116910339376,-7,-10,-1,5,4,7,-6,18
116910340866,-30,-2,-5,-6,0,-5,-2,-76
116910340866,11,-13,1,-1,-15,-22,3,33
116910352950,-3,-4,-7,-3,7,11,-2,14
116910352950,14,1,3,14,1,35,4,-14
116910361838,1,-3,-5,-15,-2,-44,3,34
116910361838,21,9,1,-1,2,6,-8,8
116910384284,-32,-14,1,1,2,9,15,-27
116910384284,-25,-8,-3,-2,4,1,-9,-21
116910385779,5,3,3,4,-1,19,5,25
116910385779,-18,-4,-1,0,-1,-14,-12,7
116910399338,51,10,-6,-10,-9,9,4,39
116910399338,-27,-4,1,-1,-5,-11,-1,-7
116910400824,24,-4,-6,0,0,16,12,36
116910400824,-12,1,0,-6,-4,-30,-19,-52
116910413079,-46,6,4,7,9,11,-18,-57
116910413079,-17,10,-2,-8,-14,-23,2,57
116910421790,21,0,2,7,10,10,18,19
116910421790,-3,-3,-11,-6,-1,60,9,-1
116910436992,-14,-10,-12,-14,-22,-80,-9,19
116910436992,37,8,9,9,2,17,8,-24
116910438392,-3,3,5,0,0,31,-8,48
116910438392,-16,-1,0,2,8,-34,2,-9
116910459424,10,7,17,4,2,10,-30,-10
116910459424,12,1,-7,2,-4,-7,17,9
116910460815,2,-3,3,-3,1,7,15,-2
116910460815,-3,-7,-9,-5,-2,-14,-26,-63
116910473082,28,17,4,9,7,1,21,49
116910473082,-3,8,6,5,-1,-1,-13,-35
116910481832,-76,-28,-15,-5,-6,1,-22,-52
116910481832,3,-5,-1,5,-5,7,4,-3
116910496884,27,9,1,5,5,13,8,-1
116910496884,28,-5,-7,-7,4,-24,9,43
116910498299,-16,2,-2,-5,2,21,-7,-57
116910498299,-1,11,-3,-6,-11,-35,-11,-10
116910519411,11,-14,-14,-9,-16,-3,-23,6
116910519411,-10,-6,3,7,14,11,30,-21
116910520873,19,-1,-7,-6,0,-3,-21,-10
116910520873,-3,2,5,8,14,13,6,13
116910533149,-12,11,-2,0,-7,0,-3,-6
116910533149,10,-19,-11,-17,-11,-11,-16,2
116910541835,8,9,6,1,-5,-15,-10,-9
116910541835,3,2,8,-1,-9,14,27,-5
116910556684,-10,-10,-7,-4,-3,-3,-11,-1
116910556684,-21,-4,3,1,1,-15,-2,-10
116910558348,22,6,-10,-5,-5,-14,9,5
116910558348,7,-5,0,-3,-3,2,10,31
116910579460,32,-2,-4,-10,1,31,15,2
116910579460,-46,3,4,6,10,14,-17,-46
116910580875,22,-1,1,2,1,-20,0,37
116910580875,-5,2,2,5,6,-3,3,30
116910592879,9,-4,-5,-21,-15,-7,3,-10
116910592879,-7,0,1,1,-4,11,-8,-19
116910601754,-17,0,1,-4,-2,-5,2,-15
116910601754,-2,4,-8,-2,-5,0,-3,-5
116910617487,13,-2,11,20,10,1,5,27
116910617487,5,-8,-22,-26,-2,-3,-13,2
116910622951,-3,0,11,16,6,-5,3,3
116910622951,16,-1,-1,-16,-20,0,1,9
116910639172,-31,-3,-13,-10,6,-1,-5,-22
116910639172,5,2,9,15,5,-4,2,23
116910640811,-1,-3,4,6,7,-2,-2,-14
116910640811,13,1,5,-1,-9,7,-6,-10
116910653011,-16,7,10,5,4,-4,2,7
116910653011,-5,-8,-6,-5,-9,-8,-10,-19
116910661862,4,4,-2,-3,2,0,3,35
116910661862,-7,-11,-2,8,3,6,-12,-36
116910676048,-16,-4,3,12,18,-8,1,-16
116910676048,13,11,12,7,-22,-4,-3,20
116910682888,-4,0,-13,-30,-17,-5,8,-2
116910682888,-4,-8,-4,-1,11,0,-6,15
116910699215,-15,2,12,8,-10,-12,-6,-42
116910699215,9,-20,-40,-21,15,9,8,18
116910700806,-3,3,7,9,6,0,-1,3
116910700806,-15,-5,1,-9,-12,-3,-9,-24
116910721686,4,-4,-16,-19,-1,0,8,25
116910721686,4,16,35,30,5,-3,-5,-19
116910723229,8,-2,-15,-13,-15,-2,3,1
116910723229,-1,-12,-31,-1,32,17,10,12
116910735976,0,-6,10,8,-4,-1,-5,-7
116910735976,-17,0,1,3,-2,-4,-14,4
116910742805,6,-7,11,-10,-14,-1,11,17
116910742805,3,3,33,26,2,-1,5,-22
116910759186,-3,1,-30,-35,-8,-2,-20,74
116910759186,5,10,-11,-3,0,0,21,20
116910760756,1,7,16,31,14,11,44,60
116910760756,-10,-14,-17,-14,-15,-14,-28,55
116910772825,19,-5,-2,-2,-4,0,13,-18
116910772825,8,-8,5,-2,-1,13,64,91
116910781825,-20,-6,-10,-4,-3,-13,-19,-17
116910781825,11,7,11,8,2,2,-15,-36
116910796003,28,-5,-1,-2,7,3,64,77
116910796003,-9,1,5,4,0,3,-36,-46
116910802812,7,-9,-23,-15,-12,-2,-5,-29
116910802812,6,0,-16,-5,-3,-28,-47,-3
116910819197,-82,-5,7,13,-13,-18,18,-57
116910819197,3,-17,-13,-27,-3,21,-12,67
116910820781,59,21,18,20,28,24,1,10
116910820781,35,10,10,8,6,19,86,3
116910833009,-20,-17,-5,-6,-8,-5,-83,-49
116910833009,13,8,8,11,-13,-13,30,2
116910842019,35,1,-12,-12,-23,-6,8,-6
116910842019,-67,-13,-7,-8,11,-65,-17,-41
116910864207,1,6,13,22,40,36,-50,-62
116910864207,-4,-14,-11,-24,-18,3,80,21
116910865785,-15,-8,10,11,11,-1,-61,-58
116910865785,0,7,7,1,-15,18,62,-2
116910879378,-29,-6,0,0,-19,-12,1,-14
116910879378,-10,3,-7,-3,-7,-25,-85,-71
116910880862,-15,-1,-7,-7,-7,2,6,24
116910880862,15,-2,-4,-15,-12,0,-29,8
116910901796,10,0,-7,-8,-2,-10,-7,-11
116910901796,4,-4,-9,1,16,11,-20,-14
116910903280,-21,-6,-3,-3,-23,-18,10,-11
116910903280,-2,3,7,15,16,13,-16,3
116910924219,25,1,-16,-37,-9,1,12,33
116910924219,-11,12,9,21,18,1,8,-34
116910925780,-15,-5,-10,-11,-11,0,-1,14
116910925780,33,10,2,-1,-16,-3,-16,35
116910939378,-35,-2,-11,-6,-2,0,28,-13
116910939378,-7,4,8,7,2,-4,-20,-14
116910940899,-33,9,13,17,23,9,-27,-49
116910940899,19,-18,-9,-2,0,7,31,50
116910961694,20,-2,3,4,-10,-11,5,5
116910961694,-9,-3,3,0,0,2,-16,-20
116910963288,26,5,0,-5,0,1,6,17
116910963288,-17,2,-5,-6,-4,0,-12,-4
116910976202,11,5,-3,13,2,1,12,6
116910976202,-4,-3,-1,-7,-1,-15,-14,-19
116910983091,-9,-7,-4,7,3,-2,0,6
116910983091,-19,-7,-12,-15,-16,2,-7,-8
116910999261,-10,3,7,4,23,-1,-4,-8
116910999261,13,2,6,12,-13,5,1,17
116911000888,-5,-6,-5,-18,-4,-8,2,-8
116911000888,-10,4,3,-1,0,5,-1,-2
116911021725,11,3,13,3,-9,2,-4,11
116911021725,3,-8,-6,-3,3,-6,26,12
116911023327,11,-6,-3,-1,6,-4,-1,-19
116911023327,-22,5,7,7,-2,2,-12,-23
116911035386,30,-5,0,-4,2,1,3,12
116911035386,-19,-1,-4,-10,0,-5,-7,-25
116911044319,5,-6,-9,-1,-1,-3,1,25
116911044319,6,5,3,6,3,3,-3,-11
116911058026,-5,-3,-9,-5,-6,-3,0,-7
116911058026,-2,0,5,-3,-8,-8,-9,2
116911066855,-8,-3,0,-1,0,2,3,3
116911066855,1,-1,-2,-10,1,0,-4,-1
116911082021,-5,-1,3,8,0,1,1,9
116911082021,-4,-5,-5,-3,-10,-3,-5,-8
116911083319,-17,-7,-19,-13,1,-7,-8,-11
116911083319,-2,-3,1,1,-9,3,-3,-11
116911104230,9,7,2,1,-2,-6,-3,2
116911104230,39,20,14,12,-7,-4,-7,32
116911105742,-47,1,21,3,3,2,-1,-46
116911105742,5,-10,-17,-9,1,3,5,6
116911126892,-6,-4,8,21,1,2,2,-3
116911126892,9,-2,-28,-29,-4,-6,-5,6
116911128418,-7,11,13,18,-8,-6,-1,-37
116911128418,1,0,-13,-16,-3,-4,-8,12
116911141779,0,2,11,-1,-1,6,10,-10
116911141779,-9,-13,-4,4,6,2,8,0
116911143405,4,-2,-20,-1,0,-2,-7,4
116911143405,-2,3,-13,-5,-6,3,-1,-1
116911164495,13,-14,-18,0,-6,-2,17,38
116911164495,-41,3,-16,-8,11,0,-19,-80
116911165837,12,4,21,-5,-17,-9,1,22
116911165837,3,9,29,10,7,-2,-17,-7
116911177915,-21,7,29,-11,-4,-7,-7,-26
116911177915,8,2,4,8,2,2,4,23
116911186876,-16,-10,29,1,17,7,-10,-28
116911186876,30,-18,19,14,15,14,14,63
116911201313,-8,-6,-7,-6,-3,1,4,-31
116911201313,-11,-2,-8,6,3,7,-62,-23
116911208086,46,9,6,13,-5,-13,30,32
116911208086,-9,3,-28,-13,3,-27,-1,-13
116911225520,32,21,-4,8,3,24,74,36
116911225520,-23,-8,-25,-9,-11,-13,-29,-18
116911227192,-6,-6,-26,-2,-1,54,98,100
116911227192,-23,-9,5,0,29,40,-19,-91
116911237962,34,-20,-15,6,0,-34,-43,-35
116911237962,-9,3,22,20,18,-22,-3,26
116911246841,26,0,12,1,-16,-59,23,10
116911246841,-7,15,6,4,-5,15,27,5
116911261100,-46,-1,10,-9,-11,68,55,17
116911261100,29,-2,13,-2,17,-29,-100,-70
116911268003,16,2,-4,5,21,5,65,48
116911268003,9,5,4,5,-15,-21,7,-19
116911284249,-20,2,-4,-2,-3,22,-20,-14
116911284249,9,3,11,-10,-23,12,37,19
116911285756,-16,-13,-14,-10,-2,-21,-81,-9
116911285756,-4,-3,-10,-15,-18,-7,-5,10
116911297871,-12,-7,-6,-8,-16,-31,-33,-2
116911297871,0,-8,-3,-2,-3,0,30,10
116911306876,-15,1,-7,-15,4,11,-34,-31
116911306876,-15,-8,-6,-4,-4,-4,-10,-1
116911321243,9,-1,-1,-2,-1,-22,-21,-17
116911321243,-3,-2,-6,-8,-12,5,18,6
116911327934,-3,6,2,9,-2,11,-19,-9
116911327934,3,3,-4,5,0,-2,7,5
116911344305,3,-2,-11,-3,8,-17,-15,10
116911344305,6,2,7,5,-3,12,35,20
116911345881,-7,-3,8,10,-6,3,-14,-16
116911345881,0,-2,-5,-13,-2,-10,-7,2
116911366774,0,3,-3,14,9,-9,-10,-4
116911366774,-8,-10,-15,-13,-2,7,12,2
116911368306,-2,-4,-8,2,-1,-2,-17,-14
116911368306,-4,-2,-5,1,2,-10,-13,-6
116911381219,1,0,-1,2,0,-1,-6,1
116911381219,0,-1,3,-1,-6,1,17,5
116911388041,-4,-1,-5,-9,-2,0,-16,-7
116911388041,-2,1,4,5,1,1,0,-3
116911404507,0,-3,-3,-8,-5,-27,4,6
116911404507,2,-1,1,2,2,4,10,6
116911405816,-3,-2,-4,-1,4,15,-7,-8
116911405816,-3,0,2,4,1,-2,3,4
116911426846,1,-4,0,-2,-3,2,-9,-6
116911426846,-2,-3,-1,-1,-1,-2,3,-3
116911428330,-6,-13,-3,-4,0,-1,-4,6
116911428330,-2,0,2,2,-5,-2,-2,-2
116911441267,2,2,1,-1,2,-12,-9,5
116911441267,0,-4,-6,-4,0,15,5,-1
116911448031,-4,2,1,1,-3,3,0,7
116911448031,0,-4,-7,-11,-3,7,-4,1
116911464246,-3,-2,-3,0,-1,-44,-3,-3
116911464246,-1,3,1,1,0,4,-1,-5
116911465756,3,-1,-4,-4,-5,-8,0,-5
116911465756,-1,0,0,3,6,22,-4,2
116911494333,1,1,0,-2,1,13,2,-1
116911494333,-1,0,-2,-2,-3,-13,0,-1
116911495824,-4,0,-3,-2,-1,8,-11,-10
116911495824,2,-3,-2,1,-4,-17,13,0
116911500352,0,-1,0,-2,1,8,-2,4
116911500352,-1,-2,-2,-2,-2,-4,-1,-3
116911509362,-2,0,-3,-5,-1,-3,-5,-9
116911509362,-2,1,1,2,-2,-4,-4,-2
116911524301,-1,-3,-3,-5,-2,7,-3,-4
116911524301,-2,0,-1,-1,1,-2,-3,1
116911525767,0,0,-3,-3,-3,-3,-1,-1
116911525767,-3,-1,-2,-3,-4,-9,-2,-2
116911546752,0,-1,-2,0,1,2,0,-1
116911546752,0,-2,-2,2,1,5,-1,4
116911548308,0,-1,1,1,-1,-2,-2,-7
116911548308,-1,0,-2,-2,-5,-6,0,2
116911560381,-2,-3,0,-2,-2,11,-2,-3
116911560381,-3,-1,-1,0,-2,4,1,-2
116911576785,-2,0,-2,-1,-6,-28,-2,-2
116911576785,-2,-2,-1,2,-1,6,2,3
116911584281,1,-1,-2,-2,-1,-6,-7,-5
116911584281,2,1,-3,-5,-1,10,0,-2
116911585829,-1,0,-3,1,4,5,-1,2
116911585829,-1,-1,-1,-4,-2,-5,-5,3
116911606698,-1,-1,-3,-5,0,8,-13,-1
116911606698,-2,-5,-2,-1,-5,-18,4,-1
116911608262,0,-1,-2,0,1,5,0,1
116911608262,-1,0,1,2,2,2,2,-3
116911620339,-1,1,-1,1,-2,3,2,-3
116911620339,-1,0,0,2,-1,-4,2,-2
116911629358,-1,1,-2,-2,-2,-1,2,0
116911629358,-2,-2,0,-1,-3,-10,-2,0
116911644282,-2,-1,-1,-4,1,9,3,-2
116911644282,-2,-2,-2,-4,0,-4,0,0
116911645802,-1,-2,0,-3,-1,-3,0,0
116911645802,0,0,0,-1,1,6,-6,-1
116911666252,-3,-1,-1,-1,-6,-3,4,0
116911666252,0,-1,0,1,-1,-17,0,2
116911666821,-1,-2,-1,2,1,3,-6,-1
116911666821,0,-1,-2,-2,-2,-4,-1,-3
116911688472,0,-1,-1,0,0,2,0,-2
116911688472,-1,-1,0,1,-1,8,0,-1
116911689473,0,0,-3,-5,-1,-1,-1,2
116911689473,-1,-1,0,5,-2,-8,-3,1
116911703581,0,-1,-2,-7,-3,-1,-1,3
116911703581,-1,-2,-1,8,-1,1,-1,1
116911704494,0,-3,2,1,-1,-2,-4,-2
116911704494,0,-1,-1,-4,0,3,2,-2
116911725969,0,-2,-1,2,-1,-4,0,-3
116911725969,-2,-2,0,-4,-3,-7,-3,-1
116911726788,-1,-2,-3,-4,0,4,-1,0
116911726788,0,-2,-2,3,0,0,0,-2
116911748725,-2,0,0,3,2,-1,-2,0
116911748725,0,1,-2,-4,-4,-2,0,1
116911749275,-1,0,-1,0,-1,-2,-1,0
116911749275,-1,0,-2,-5,-3,-1,0,1
116911763265,-2,-2,-2,-2,-4,-6,-3,0
116911763265,-2,0,-1,-2,-1,2,-4,-3
116911770985,-1,-1,-1,-1,-1,-3,1,-1
116911770985,0,-2,-2,-1,0,0,1,1
116911785933,-1,1,-1,-2,-1,-2,1,-1
116911785933,-3,-1,-2,0,1,2,-2,-2
116911786697,-1,-1,-2,-2,-3,-2,0,0
116911786697,-1,-1,-1,-1,-3,-4,0,-2
116911808475,0,-1,0,-1,0,0,-1,-1
116911808475,-1,-3,1,-4,0,0,-1,-3
116911809246,-2,-3,1,0,0,-2,0,-3
116911809246,0,-2,0,-2,0,1,-1,-1
116911823501,-1,-1,-1,0,-2,-1,-2,-3
116911823501,-1,1,-2,-4,-1,0,-2,-3
116911824235,-2,0,-4,-2,-3,0,-3,1
116911824235,-1,-2,-2,0,-2,-2,-2,1
116911845957,-1,0,0,-1,-2,-1,-1,0
116911845957,-1,-2,1,0,-1,-1,1,3
116911846797,0,0,-1,0,-1,0,4,-1
116911846797,-2,0,-1,1,1,0,0,1
116911868502,0,-1,-3,2,0,-1,0,-2
116911868502,-1,-2,-2,2,1,-1,-2,-5
116911869371,0,-1,-1,1,0,-2,-1,-4
116911869371,-2,-2,0,-3,1,0,-2,-2
116911883541,-3,-2,-1,-3,0,-1,1,-2
116911883541,1,-1,-3,-3,0,1,-1,0
116911884232,-1,2,-1,-3,0,-1,-1,-1
116911884232,-1,-3,-2,-3,-1,-3,-1,0
116911906248,1,-2,-3,-4,-2,-3,-3,1
116911906248,-2,-2,-1,-2,0,-1,-3,-1
116911906803,-2,-1,0,1,-3,-1,-1,-4
116911906803,-2,0,-1,0,-2,1,-1,-3
116911928524,-1,0,0,-2,-3,0,-2,0
116911928524,-3,0,0,-1,-3,2,-1,0
116911929267,-1,-1,-1,-2,-1,0,-2,0
116911929267,-3,-1,-1,-1,-1,0,-2,-1
116911943431,0,-1,-2,0,-2,-2,1,-3
116911943431,0,-1,-2,0,-1,-2,0,-1
116911944294,-1,-1,-2,1,-1,-2,0,0
116911944294,-1,-2,-1,-2,1,-4,-3,0
116911966133,-1,-1,1,-3,1,-3,-1,2
116911966133,-2,-1,-1,-3,-2,-2,-2,2
116911966785,0,-2,-1,-1,-1,-2,-2,1
116911966785,-1,-1,-2,-2,-1,-3,-2,-6
116911988507,-1,-3,1,-3,-1,-3,-2,-5
116911988507,-1,-2,0,-2,0,0,-3,-1
116911989474,-1,-2,-1,-3,-1,0,-1,-3
116911989474,0,0,-1,0,-3,1,-1,1
116912003724,-2,-2,-2,3,-1,-1,-1,2
116912003724,-1,0,-1,1,0,-1,0,1
116912004306,-1,0,-1,0,-2,0,-3,1
116912004306,-1,0,1,-2,0,-1,-2,1
116912026003,-1,-1,-1,-3,-1,0,-1,-3
116912026003,1,-1,-1,-1,-2,1,1,-2
116912026788,1,-2,-2,-1,-2,-2,0,0
116912026788,-1,-1,-1,0,-1,-3,0,-1
116912048577,-2,-1,-1,-2,-1,-2,-1,0
116912048577,-1,-1,-1,0,-1,-2,-1,-4
116912049436,-1,1,-1,-2,-2,-1,-1,-4
116912049436,0,0,0,-1,-1,0,0,-3
116912063515,0,-2,-1,-3,0,-2,-1,-2
116912063515,-1,-3,-1,-2,-3,-3,-1,-3
116912064300,-1,-1,-2,-5,0,-1,-1,-1
116912064300,-2,-1,-2,0,0,0,-2,-1
116912086114,-1,0,0,0,-1,-2,-2,1
116912086114,0,-1,-1,1,1,-1,1,-4
116912086850,3,-1,-1,0,-1,-1,0,0
116912086850,-2,1,-1,-2,-2,-2,1,-3
116912108451,-1,13,1,-3,-1,2,0,-2
116912108451,-2,-1,0,-4,-1,0,-2,-2
116912109205,-7,-5,-1,-3,-1,-1,-1,-2
116912109205,8,2,3,0,0,0,1,0
116912123476,0,0,-1,-2,-2,-2,0,-1
116912123476,-1,-1,-3,0,0,-2,-2,-1
116912124237,8,1,-2,1,0,0,3,6
116912124237,4,-5,-3,0,-2,-2,-1,-2
116912145934,-5,8,2,3,0,1,-1,-1
116912145934,-1,-8,0,-2,-1,0,-2,1
116912146729,-2,-1,0,-1,-2,-2,-4,-5
116912146729,-9,-4,-2,-3,-2,-4,-3,0
116912168452,-16,3,-4,0,-1,-2,-4,-20
116912168452,8,-2,0,1,-1,0,2,-3
116912169251,-3,4,1,-1,0,-1,0,16
116912169251,-3,-3,-1,-3,-1,2,-1,-8
116912183465,-1,-9,-1,-2,-2,0,-2,0
116912183465,-8,1,-2,0,0,-1,-1,5
116912184227,-5,1,-1,1,0,0,0,-13
116912184227,-1,-1,0,0,-3,-2,-3,-6
116912206026,5,-4,-1,-2,-1,-1,0,6
116912206026,5,-3,-1,0,0,-1,0,-1
116912206742,14,-17,-1,-1,-1,0,1,-5
116912206742,-8,6,0,0,0,-1,2,2
116912228494,5,-3,-2,-3,-2,0,0,21
116912228494,-1,-5,-1,-3,-2,-2,-1,-3
116912229266,-9,-4,-3,-1,-2,-1,-5,-9
116912229266,0,-6,-1,1,-1,-1,-1,8
116912243486,3,-8,0,2,-1,-3,-1,-6
116912243486,0,7,1,0,-1,0,-3,0
116912244241,-5,1,-1,-1,0,-1,-3,5
116912244241,0,-1,-1,-1,-1,0,2,-5
116912265990,-5,-1,-2,-1,-1,-1,-1,-33
116912265990,-1,-1,-3,-3,-3,-2,-1,0
116912266713,-27,5,-3,1,-1,-2,-5,-41
116912266713,23,-23,-2,1,0,0,4,47
116912288536,2,-4,0,1,-1,-2,0,1
116912288536,-11,3,-1,-3,-2,-1,0,-12
116912289188,-24,-13,-4,-2,-2,-3,-6,-38
116912289188,10,-2,1,1,2,0,10,45
116912303438,23,10,-2,-1,-2,-2,0,12
116912303438,2,1,3,3,1,0,-1,3
116912304222,4,-2,1,-2,-1,-1,0,38
116912304222,-10,3,-3,-4,-2,-2,-6,-37
116912325910,-3,-4,-2,-2,-1,-3,-4,6
116912325910,7,6,0,-3,-1,1,-1,-3
116912326826,-5,0,-4,-4,-2,-3,0,15
116912326826,4,10,2,-1,-1,-1,-5,-11
116912348430,-6,-3,-1,-2,-2,-2,0,-3
116912348430,4,-1,-2,-1,0,-2,-2,3
116912349240,5,-1,0,0,-1,-2,2,5
116912349240,-12,-2,-4,-1,-2,-1,-3,-12
116912363442,-8,-5,-3,-1,1,0,1,-9
116912363442,-3,-5,-4,-2,-1,-1,-1,1
116912364218,11,3,-1,0,-1,0,4,7
116912364218,-6,1,-2,-2,-1,-2,-3,-10
116912386592,0,-1,0,0,0,0,-1,5
116912386592,-3,-2,-2,-1,-1,-3,-1,-2
116912387445,5,2,2,-1,-1,0,1,2
116912387445,-5,1,0,-2,-2,-2,-3,-7
116912408459,-9,-2,-1,-1,-3,-3,0,-1
116912408459,0,-13,-2,-2,0,-2,-2,1
116912409279,3,2,1,-1,0,0,-3,-3
116912409279,-5,0,-2,-2,-1,-1,-3,-6
116912423456,-2,-2,-1,-1,-1,0,-2,1
116912423456,-5,3,-1,-2,-1,-2,2,3
116912424228,4,1,-2,0,-1,1,0,4
116912424228,-4,-2,-2,-1,1,0,-2,-12
116912445983,-1,-2,-1,-2,-2,1,-1,4
116912445983,-1,0,-2,-2,-2,0,-1,-2
116912446771,-18,-12,-1,-3,-2,-2,0,-1
116912446771,-4,2,0,-2,-2,-1,1,0
116912469199,-1,-4,-1,0,0,-1,-1,-6
116912469199,-1,-2,-1,-1,-2,-1,-2,-4
116912469905,6,3,0,-1,-1,-3,-3,-2
116912469905,-4,-3,-1,-2,0,-1,-1,-2
116912483476,4,-1,-1,-1,-1,1,1,2
116912483476,-3,-1,-1,1,-1,0,-1,-1
116912484244,5,3,-1,1,-1,-2,2,1
116912484244,1,1,-2,1,-2,-1,-1,0
116912505943,1,0,-2,-2,0,2,-2,0
116912505943,-3,-1,-2,-2,-2,0,-2,-3
116912506745,5,3,0,0,0,0,-2,0
116912506745,-1,-3,0,-3,-2,-2,0,0
116912529612,-4,-4,-1,-2,0,-2,-2,-1
116912529612,-1,-1,0,-2,-1,-2,-3,-2
116912530425,1,0,-3,-3,-2,0,-2,-1
116912530425,-2,1,-2,-1,-1,0,-3,-1
116912543473,-1,-1,-1,0,-1,-1,-1,-1
116912543473,0,0,-1,0,0,-2,-2,-2
116912544220,4,-1,-1,-1,-2,-1,0,-2
116912544220,-1,-1,-2,1,-1,-3,-1,-2
116912566011,-2,-1,0,-1,-2,-2,0,-4
116912566011,-3,0,0,-1,-2,-1,-1,0
116912566765,4,-1,-1,-3,-1,-1,-2,1
116912566765,-3,0,-1,-1,-2,-1,-1,-1
116912589199,-4,-16,-1,-1,-1,1,1,0
116912589199,2,2,-1,1,1,1,0,-1
116912589933,-2,-2,1,-1,-1,-3,-1,0
116912589933,-1,-3,-2,-2,-1,-6,-2,-3
116912603947,0,2,-1,0,-2,-7,-2,-1
116912603947,-5,-2,-3,-2,-3,-6,-1,-1
116912604721,-2,-2,-3,0,-3,-3,-1,-1
116912604721,2,1,0,-1,-2,-2,-4,-1
116912625930,-1,1,-1,-2,-2,-2,-1,1
116912625930,1,0,-1,-1,0,1,-1,0
116912626744,0,3,-1,0,-1,0,-1,1
116912626744,0,-1,-1,-2,0,1,-1,-1
116912649202,0,2,-1,0,1,2,0,-1
116912649202,0,-3,-1,-2,-1,1,0,1
116912650011,0,-2,-1,0,1,0,-1,0
116912650011,-2,-3,-1,-2,-2,2,1,-2
116912663510,0,-1,-1,-1,-2,0,-1,-2
116912663510,0,-1,0,-1,0,2,0,-2
116912664219,0,-3,0,0,0,1,-1,-1
116912664219,-2,-1,-2,0,-1,2,0,-1
116912686353,-2,1,-1,1,-1,1,0,0
116912686353,0,-3,-3,0,0,0,-2,0
116912693491,-9,-4,-4,-3,-2,-1,-5,-3
116912693491,-1,-2,-2,-2,0,-1,-3,1
116912709202,-1,-1,-1,-1,0,-1,-2,-3
116912709202,-1,1,0,-1,0,-2,-1,-3
116912709910,-2,-1,-1,-1,0,-2,-1,0
116912709910,-2,-1,0,0,0,0,1,-1
116912723518,-1,2,0,-2,-2,-1,-1,-3
116912723518,-5,-2,-2,-1,-1,0,-4,-2
116912724225,1,0,-2,-2,1,1,-1,-1
116912724225,-1,0,-2,1,-3,0,-4,0
116912745973,1,0,0,0,-1,0,-1,0
116912745973,1,-1,0,-1,-3,-1,-1,-2
116912746744,0,-1,-1,1,-1,0,-1,-1
116912746744,0,0,-2,0,0,-2,0,-1
116912769179,-2,-2,-3,0,-1,-2,-2,0
116912769179,0,0,-1,-2,-2,-2,-2,0
116912769961,0,2,1,-2,0,-2,-1,-1
116912769961,-2,-2,0,-2,-2,-2,0,0
116912783439,0,0,-1,-1,0,-2,1,0
116912783439,-1,-2,-1,0,-1,-2,-2,0
116912784222,-1,-1,1,-1,0,-1,-1,-2
116912784222,-1,0,0,-2,-1,-2,-3,-1
116912805927,-1,-2,-1,-2,-1,-2,-2,0
116912805927,0,-2,0,-1,-1,0,0,-2
116912806721,-2,0,-2,-2,-2,-2,0,-1
116912806721,0,-2,0,-1,-1,-1,0,-1
116912829194,0,-1,-1,0,-1,-1,-2,-1
116912829194,-2,-2,-1,-1,-2,-3,-1,-1
116912829942,-1,0,-2,0,-1,0,-3,-1
116912829942,-1,-1,-2,0,0,1,-2,-2
116912843467,-2,1,-1,0,-2,-1,-1,-1
116912843467,-4,-2,0,-1,2,-1,3,1
116912844308,5,1,0,-2,-2,-3,0,2
116912844308,0,-1,-3,-4,0,-2,1,-1
116912865966,1,-2,-2,-3,0,0,0,1
116912865966,2,5,3,-2,-1,-1,1,0
116912866744,-1,-3,1,-1,-2,-2,-1,-1
116912866744,-1,-1,-2,-1,-1,-2,0,-1
116912889201,-1,0,-2,-1,-1,-2,-2,-2
116912889201,-4,-4,-1,-1,-1,1,-2,-1
116912889952,-1,0,-2,-2,-1,-1,-1,1
116912889952,1,0,-1,-1,0,-1,-2,-2
116912902762,-2,-2,-2,-1,-1,-1,-2,1
116912902762,0,-2,-2,-1,-1,-2,-2,-1
116912910990,-1,-2,-2,1,0,0,-1,-1
116912910990,0,-2,1,0,-1,-2,-3,0
116912925907,-1,-1,-1,-1,-3,-2,0,-2
116912925907,-2,0,-3,1,-4,0,-2,-2
116912926728,0,-1,0,0,-1,-1,0,0
116912926728,0,-2,-2,-1,0,-2,2,-1
116912949223,-1,-2,0,-1,0,-1,0,-2
116912949223,-2,-1,0,-3,-2,-2,-1,-2
116912949938,-2,-2,-1,-1,0,0,-1,-3
116912949938,-1,-1,-1,-2,-2,0,-1,-2
116912962812,-1,-1,-1,0,-2,-1,-1,0
116912962812,-1,-2,-1,4,0,0,-1,0
116912970970,-3,-3,-2,3,-2,-1,-1,-1
116912970970,-2,2,-1,2,-1,1,-1,0
116912985971,0,-1,-2,-1,0,0,0,0
116912985971,0,0,-2,-3,-2,0,-1,-1
116912986755,-3,-5,-2,-3,-2,-2,-2,-1
116912986755,0,-1,0,0,0,-2,0,0
116913009115,-3,0,1,-2,0,-2,-3,-1
116913009115,-1,-1,-1,-3,-1,-1,1,0
116913009894,1,0,-1,-2,-1,-1,0,0
116913009894,0,-2,-2,-3,-1,-2,0,-2
116913022771,-1,0,-3,-1,0,0,-1,-2
116913022771,0,-1,0,-2,-1,0,-1,2
116913030944,0,0,0,-1,0,1,0,0
116913030944,-1,0,0,-1,-1,-2,-1,1
116913045939,-2,-1,1,-1,0,-1,-1,-2
116913045939,-2,-2,-2,-2,-3,-1,-1,-2
116913046710,-2,0,-1,-2,0,-2,-1,-2
116913046710,-1,-1,-1,0,-1,0,-1,-1
116913069191,-2,-3,-1,-2,0,-2,0,0
116913069191,-2,-2,-1,0,0,0,-1,-2
116913069974,-1,0,0,-1,-2,-3,-1,-3
116913069974,1,-2,-1,-1,0,-2,-1,-2
116913082823,-1,-1,-3,-1,-3,0,-3,0
116913082823,1,-1,-2,-2,-1,-1,-1,-2
116913090968,1,-1,-1,-1,-1,-1,2,-1
116913090968,-1,-1,-1,1,0,-3,-2,0
116913105961,-1,-1,-1,-2,-2,-2,-2,0
116913105961,-2,-2,1,-3,0,-2,1,1
116913106756,-1,-1,0,-1,-2,-2,-4,-1
116913106756,-1,-1,-1,-1,-2,0,0,-2
116913129120,0,-1,-3,1,-1,0,-1,-2
116913129120,0,-2,-1,1,0,-2,0,0
116913129909,-2,-1,-2,-1,-1,-1,-1,-2
116913129909,-1,-1,-1,-2,-2,-3,-1,0
116913142814,-1,1,-1,0,-1,-1,0,-1
116913142814,0,-1,0,0,-2,-2,-2,-1
116913151022,0,0,-2,0,0,1,-2,1
116913151022,-1,-1,-1,0,-1,0,-1,1
116913165947,1,-1,1,-3,-1,-1,-1,-1
116913165947,-1,0,0,-1,-2,-1,1,-2
116913166725,0,-1,-2,-3,-2,0,-1,0
116913166725,-2,-2,-4,0,0,1,-2,-2
116913189176,0,-3,0,-2,-3,0,0,-2
116913189176,-2,-1,-2,-1,-1,-2,-2,0
116913189977,-2,0,0,-1,0,-1,-4,-1
116913189977,-4,-2,1,-1,-1,0,2,-1
116913211591,4,2,-1,-1,0,0,1,0
116913211591,0,-2,-3,0,-1,-2,-1,-2
116913212417,-3,-2,0,-2,-1,-2,1,-2
116913212417,1,2,0,-2,-2,-3,-2,0
116913225943,-2,-3,-1,-2,-1,-3,-1,-2
116913225943,0,1,0,-2,0,-2,-1,-2
116913226730,0,-2,-3,-1,-1,0,-1,0
116913226730,0,-2,-3,0,-1,-1,-1,-3
116913249155,-1,-2,-2,1,-2,-1,-1,-1
116913249155,7,-1,0,0,0,-1,-1,-1
116913250004,-6,-2,-1,0,0,0,-2,-3
116913250004,-2,0,0,-2,0,0,-1,0
116913271601,0,0,0,0,0,-1,0,-1
116913271601,-4,0,-1,-1,-2,0,1,1
116913272444,-1,1,-1,-1,-2,-2,-1,-1
116913272444,0,-4,-2,-2,0,-3,-2,-1
116913285946,-1,-2,0,-1,-1,-1,-1,-1
116913285946,-1,-2,-2,-1,0,-1,-1,-1
116913286751,0,-2,-1,-2,-1,0,0,-1
116913286751,-1,-1,1,-1,-3,0,1,0
116913309121,-1,-2,-1,-1,1,-1,-1,0
116913309121,-3,-2,-2,0,-1,-1,-2,-2
116913309943,2,0,1,1,1,-3,1,-1
116913309943,0,0,-1,-1,-1,0,-1,-2
116913331666,-2,0,-2,-1,-2,0,-1,1
116913331666,-2,-1,-1,-2,0,0,-2,0
116913332508,-1,0,-3,-1,-1,-1,-1,-1
116913332508,-1,-1,0,-1,-1,-1,0,-2
116913345979,-1,0,-2,0,-1,0,-1,-1
116913345979,-2,-1,-1,-3,-2,-2,1,-1
116913346812,1,-3,1,-3,-3,1,1,-2
116913346812,-1,1,-4,-2,-1,-2,-3,-1
116913369224,0,0,-2,-1,-2,-1,-3,1
116913369224,-2,0,-3,1,0,0,-4,0
116913369905,-2,-1,-2,-1,-2,0,-2,-1
116913369905,-1,-2,0,0,0,-1,0,-2
116913391677,-2,-2,-1,0,-1,0,-1,-2
116913391677,-2,-2,-2,0,-2,-2,0,-4
116913392455,-2,-1,-2,1,-2,-2,0,-1
116913392455,-3,-1,-2,-1,-1,-1,-2,-3
116913405950,-1,-1,0,-2,0,-2,-3,-2
116913405950,0,0,-1,-2,-1,-1,-2,-1
116913406735,-1,-2,-3,-2,0,-1,-2,-2
116913406735,0,0,0,-1,-1,-2,-2,1
116913436654,-3,-2,1,1,-1,-1,-1,-2
116913436654,0,0,0,-1,-2,-2,0,-1
116913437416,0,-2,1,1,2,-1,-2,0
116913437416,0,-2,-1,-2,-2,-1,0,0
116913451626,-1,-1,0,-1,0,-2,0,1
116913451626,-2,-2,-1,-1,-1,-1,-2,-1
116913452409,-1,-1,-2,-1,-1,0,0,-1
116913452409,0,-3,0,0,0,-1,-2,-1
116913465931,0,-1,-1,-1,-1,-1,1,-2
116913465931,-1,-2,-2,-1,-1,-1,-1,0
116913466746,0,0,0,1,-1,0,-3,0
116913466746,0,0,-1,-1,-1,-1,-2,0
116913489215,0,0,0,-3,-3,-2,0,-1
116913489215,-1,0,0,-2,-2,-1,-3,-2
116913489927,-1,0,-1,-1,0,-1,0,-2
116913489927,-1,-3,-2,0,0,-2,-1,-3
116913511637,0,-3,-2,0,-2,-1,0,0
116913511637,-2,-2,-2,0,-1,-2,-2,0
116913512383,-2,-3,0,-1,-3,-2,0,-1
116913512383,-1,-2,0,-3,-1,-2,-2,-1
116913525956,-3,-2,-2,-3,-2,1,-2,-1
116913525956,-1,0,0,-2,-2,-1,-1,1
116913526742,-2,0,-1,-1,-2,-1,-1,-1
116913526742,-2,1,-1,0,-2,-1,0,0
116913549199,-3,0,-1,0,-2,-1,-3,-2
116913549199,-1,-2,-2,-1,-2,1,-2,-1
116913549954,0,-1,1,0,0,-2,-3,-1
116913549954,-1,-2,0,-1,-1,-3,-2,-1
116913571642,-1,-1,-3,0,0,0,-1,-2
116913571642,-2,-1,0,-1,0,-1,0,-1
116913572406,-1,0,-2,-3,-1,-3,-1,-2
116913572406,-1,-1,-1,-1,-1,-1,-1,-1
116913585942,0,-1,-1,0,-1,0,-2,-1
116913585942,-1,-2,-2,0,0,-2,0,0
116913586749,-1,-3,-2,-2,0,-1,-1,1
116913586749,1,-1,-1,-1,-2,-1,2,-1
116913609143,0,-1,-2,-2,-1,-1,-1,-2
116913609143,0,-2,-1,-1,1,-1,-1,-2
116913609891,-1,-2,0,0,-1,0,0,0
116913609891,-2,0,-2,-3,-1,1,-1,0
116913631609,-1,0,-2,-2,-1,0,0,0
116913631609,-1,-2,-2,0,-1,0,0,-2
116913632393,0,-2,-2,-1,-2,-2,0,-1
116913632393,-1,-1,-1,-2,-2,0,-2,-2
116913645959,-1,-2,0,-1,-1,-3,-1,-1
116913645959,-1,-2,-1,-3,-3,-1,-1,-1
116913646769,0,-2,-1,-2,-2,-1,-1,-2
116913646769,-2,-1,-1,1,-1,-1,-1,-1
116913669087,1,-2,1,-1,0,0,-1,-3
116913669087,-1,1,1,-1,-3,0,-2,0
116913669900,-1,0,-2,-1,0,0,-1,-1
116913669900,-2,-1,-1,0,0,1,-1,0
116913691673,-1,-2,-2,0,-1,0,-1,1
116913691673,0,-3,-1,0,-1,-2,1,-1
116913692400,-1,-1,0,-1,-2,-1,-2,-1
116913692400,0,-1,-1,0,0,0,0,0
116913714131,-3,-1,0,-3,-2,-1,-2,-2
116913714131,-1,-1,-2,0,0,-2,-2,-2
116913714935,-1,0,-1,0,-2,-2,-1,1
116913714935,1,-2,-2,0,-1,0,0,0
116913729110,-1,-1,-2,-1,-3,-1,0,1
116913729110,-1,-1,-2,-1,-1,0,-1,-1
116913729886,-2,-1,0,-1,-2,0,-2,-3
116913729886,-2,-2,-1,0,-1,-1,0,-1
116913751616,-1,0,-1,-1,-1,0,-3,-3
116913751616,-1,-3,0,-1,0,-2,-2,-1
116913752419,0,-1,-2,-2,-3,-1,1,-1
116913752419,-1,0,-1,0,-2,-2,-1,-3
116913765926,0,0,-2,0,-2,-1,0,0
116913765926,0,-2,-2,-2,-2,0,-2,-1
116913766717,-1,-2,-1,-2,0,-2,0,-3
116913766717,-1,-1,0,-4,-1,-1,-3,-2
116913789160,-1,-1,0,-2,-2,-3,-1,-2
116913789160,0,2,0,-2,-2,-1,-3,-2
116913789926,0,0,-1,-2,-2,-2,-2,-2
116913789926,-5,-2,-3,-1,-1,-1,0,-1
116913811722,1,0,-2,2,0,-2,-1,0
116913811722,-1,-1,0,-1,0,-2,1,0
116913812417,-2,0,-2,0,0,-2,1,0
116913812417,1,-2,-2,-2,-1,-1,-3,-1
116913825945,-1,-2,1,-2,-1,1,-1,-2
116913825945,-2,1,-1,0,-1,-1,-1,-1
116913826759,0,-1,-1,0,0,0,-2,0
116913826759,-1,-1,0,-2,0,-1,-3,1
116913849184,-1,-1,-3,0,0,-1,-1,0
116913849184,-1,-1,-2,-1,0,-1,-1,-2
116913849916,-1,-1,-1,-1,-2,-1,-1,-2
116913849916,-1,0,-1,0,-2,-2,-1,-1
116913871621,-1,0,-1,-2,-1,0,-1,-2
116913871621,-2,-2,0,0,-1,1,-1,-1
116913873223,-1,-2,-1,-1,-1,0,-1,-1
116913873223,-2,-3,-1,-1,-1,-1,-2,0
116913885235,-2,-1,1,-1,0,-2,0,-2
116913885235,-1,1,0,-2,0,-1,-1,0
116913901788,-1,-1,-3,-1,-1,-1,-1,0
116913901788,0,1,-1,-1,-1,0,1,-1
116913908908,-2,0,-2,-2,-2,-2,0,-2
116913908908,-1,-1,-3,-1,-2,-1,-2,1
116913915292,-1,-1,-1,-2,-1,0,-2,-1
116913915292,-2,-1,-3,-2,-1,-2,-1,0
116913931657,0,-2,-1,-1,0,-1,-1,-1
116913931657,-1,-1,-1,-2,-1,-2,-2,-3
116913933291,0,-2,-1,0,-2,-1,-3,-1
116913933291,0,-1,0,0,-1,-1,-1,-2
116913945340,-2,-1,0,-4,0,0,-2,0
116913945340,-2,-3,-1,-1,-1,0,-3,-1
116913954303,-1,0,-1,0,0,-1,-1,1
116913954303,-2,-1,-1,0,0,-2,-1,-2
116913969193,0,0,-1,-1,0,-1,-2,0
116913969193,0,-2,-1,1,-1,0,0,0
116913970744,-2,1,-2,-1,-1,0,-1,-1
116913970744,-1,-2,1,-1,-2,0,0,0
116913991614,0,-1,-1,-2,-1,-1,0,0
116913991614,-2,-1,-2,-3,-1,-2,-1,0
116913993287,0,-1,-3,0,-1,-1,0,-1
116913993287,-1,-2,-1,-2,-1,-1,-2,-1
116914005282,-2,-1,-2,0,-1,-3,-3,-3
116914005282,-1,-1,-2,-1,-3,0,0,-1
116914014296,-2,-2,-1,-1,-2,-2,-2,-2
116914014296,0,0,-1,0,-3,-1,-2,-2
116914029179,-2,-3,-1,0,-2,-1,1,-1
116914029179,0,-2,-2,-1,0,-2,1,0
116914030730,0,-1,1,-2,1,-1,-2,0
116914030730,0,-1,-1,-1,1,0,-1,-2
116914051703,-1,0,0,0,0,0,-2,1
116914051703,-1,-2,-2,-1,-2,-2,-2,0
116914053222,-2,-3,-3,0,-1,0,0,-1
116914053222,-1,-1,-1,-1,1,-1,-2,2
116914065281,-2,-2,-2,-2,-2,-1,-2,-2
116914065281,-3,-3,-2,0,-1,-2,-2,-2
116914074296,-1,0,-1,-1,-1,-3,-1,-1
116914074296,-2,-1,-2,-1,-1,-2,-1,-1
116914089190,-2,0,-1,-1,0,-2,-3,-2
116914089190,-2,0,-1,-1,-1,0,-3,-1
116914090790,-2,-1,-2,-1,0,-2,-1,1
116914090790,-2,0,-2,-2,-2,-2,1,-3
116914111602,1,-1,-1,0,-2,-2,-1,-3
116914111602,-1,-1,0,0,0,0,0,-2
116914113222,-1,-2,-1,-1,-1,0,0,-1
116914113222,-2,0,-3,-1,-2,-1,-1,-2
116914125320,-3,1,-1,0,-2,-3,-1,-1
116914125320,-2,2,-1,-1,-1,0,-2,-1
116914134322,-1,-1,-1,-1,-2,0,-2,-3
116914134322,0,-3,0,-2,-2,0,-1,0
116914148513,-1,-1,-2,-3,-2,0,-1,0
116914148513,-1,-1,0,-1,0,-1,-2,0
116914155314,0,-3,-1,-2,-1,-3,-2,0
116914155314,-1,0,-2,-1,-1,-3,-1,-3
116914171678,0,-2,-1,-3,-2,0,0,-1
116914171678,0,-1,-1,-2,-1,0,0,-1
116914173305,0,1,-2,-3,-1,-1,-2,0
116914173305,-2,-1,0,1,0,-1,-1,1
116914194198,-3,-1,-2,1,0,0,-1,0
116914194198,0,1,0,-1,-3,-1,0,-2
116914195754,-2,-3,0,-1,1,0,-1,0
116914195754,-1,-1,-1,-1,-1,-1,-1,-1
116914208441,-1,-3,-3,0,-1,-2,-2,0
116914208441,-1,0,0,-1,-1,0,0,-1
116914215295,-1,0,-1,0,-1,-1,-1,-2
116914215295,-2,1,0,0,0,-2,-2,0
116914231647,-1,1,-1,-2,-1,-1,0,0
116914231647,-1,0,0,-1,0,-2,0,-3
116914233282,-1,-1,0,-3,-2,0,-2,-1
116914233282,1,-3,-2,0,-2,-1,0,0
116914254219,1,-2,-2,0,-2,1,-2,0
116914254219,-1,-2,0,0,-1,-2,-4,1
116914255749,-1,-1,-1,-1,-2,-1,-1,-1
116914255749,-1,-2,-2,-2,-3,-2,-3,-2
116914268896,0,0,-1,-1,-1,0,0,-1
116914268896,0,-1,-1,-1,0,-1,-1,0
116914275280,0,-2,-2,-1,0,-2,-1,-1
116914275280,-1,0,-1,-1,0,0,-3,-1
116914292122,-2,-2,-1,-2,-1,0,-1,-2
116914292122,-3,-2,-2,-1,-1,-2,0,0
116914293698,-1,0,-1,0,-3,-2,-2,-2
116914293698,-2,0,1,0,0,-2,2,-2
116914314156,-2,-2,0,-2,-1,-2,-1,-1
116914314156,0,-1,0,-2,-3,0,0,-1
116914315807,-2,0,-1,0,-2,0,0,-1
116914315807,0,0,-1,-3,-2,0,0,0
