timestamp,emg1,emg2,emg3,emg4,emg5,emg6,emg7,emg8
83832887860,0,2,2,8,0,-1,1,-1
83832887860,-3,0,1,0,1,0,0,-1
83832902893,0,1,-1,-2,1,-1,-2,-2
83832902893,0,11,-1,-1,-1,-1,-1,-1
83832903749,0,-2,-1,-1,-1,-1,-2,-3
83832903749,-2,-5,-1,3,-1,-1,1,0
83832926091,-2,-1,-1,-5,0,-2,0,-2
83832926091,-2,4,-1,-5,-3,-1,-1,-1
83832926805,-1,-1,-1,-5,-2,-2,0,0
83832926805,14,-1,-3,-1,-1,-2,-4,-2
83832939740,2,2,2,6,-2,0,-1,1
83832939740,0,3,-2,5,1,0,0,-2
83832947923,-2,1,0,-1,-2,-1,0,1
83832947923,-2,0,-1,-8,-2,0,2,-2
83832962867,-4,-5,-3,-11,-2,0,0,0
83832962867,-1,8,0,5,-1,-2,-1,-1
83832963747,2,-19,-3,7,1,1,-1,-1
83832963747,-5,-1,1,-1,-4,0,0,-1
83832986095,-2,-3,-1,-1,-1,-2,-1,-2
83832986095,-2,4,1,-3,0,1,-1,-1
83832986958,-1,6,-4,1,-2,-1,0,-3
83832986958,-4,0,-1,4,3,-1,-2,1
83832999747,-3,-5,-1,-2,2,-1,-1,-1
83832999747,-1,-3,-3,-16,-17,-3,-3,-2
83833015377,-3,1,-1,-6,0,-1,-2,-2
83833015377,-4,-4,-1,-2,-2,1,-1,-2
83833022897,2,4,0,5,6,1,-1,0
83833022897,-1,-2,-1,6,3,0,0,0
83833023729,0,2,0,-1,-3,-1,0,0
83833023729,-5,-2,-3,1,0,-1,0,1
83833046132,-1,0,0,-4,-2,-2,0,-3
83833046132,-2,-3,-1,0,3,-2,-2,-3
83833046933,0,0,-1,2,1,-1,0,0
83833046933,-2,1,0,-8,-9,-3,0,-2
83833059777,7,-25,-3,6,4,0,-3,-1
83833059777,2,2,-1,-20,-7,2,1,0
83833067913,-2,3,1,-8,3,-1,1,0
83833067913,-2,-2,0,-9,-3,-1,2,-1
83833082917,-5,1,-6,4,-8,-3,-2,-5
83833082917,-2,0,0,-1,4,-3,-4,-4
83833083705,-1,-2,0,-2,9,2,0,3
83833083705,5,4,2,17,-13,0,1,0
83833106048,-2,2,-2,-15,-4,3,-1,0
83833106048,-2,-4,-3,-3,-1,-15,-2,-1
83833106848,-3,3,0,6,2,6,-1,-2
83833106848,-2,-3,-2,-21,-10,-3,0,-2
83833119718,-3,2,0,6,3,7,1,-2
83833119718,-5,-5,-5,8,-2,-1,0,-3
83833127932,-1,6,-1,8,6,-8,-8,-5
83833127932,0,1,2,-4,-5,-2,-1,0
83833142835,-2,-7,-1,-11,3,7,-1,6
83833142835,-2,-2,0,9,5,1,0,-8
83833143708,1,0,-3,-8,-15,1,-1,-4
83833143708,-5,-6,-5,1,2,-6,-8,-4
83833166081,1,3,-1,0,-11,1,6,5
83833166081,-28,6,4,13,13,-13,-2,-2
83833166886,-2,-3,2,24,-4,16,5,-5
83833166886,-5,-2,3,17,0,-16,-7,2
83833179729,4,5,6,3,12,-5,0,6
83833179729,6,-1,2,8,-11,-6,-2,10
83833187910,-2,-3,4,9,7,0,6,-1
83833187910,-3,-23,-5,-27,3,12,-8,-1
83833211044,-13,0,-4,0,-6,-4,3,-16
83833211044,4,-3,0,9,9,10,4,7
83833211835,2,1,0,-6,-1,4,3,10
83833211835,3,6,-4,-6,8,13,1,2
83833226087,-7,-2,-6,-9,-8,-48,-13,-12
83833226087,3,-5,-4,-10,-5,13,-13,-4
83833226863,2,0,-3,-19,-22,-18,11,10
83833226863,0,10,1,19,15,11,8,-6
83833248572,-4,-14,-4,-16,1,19,1,-1
83833248572,1,2,0,3,-2,21,1,-1
83833249344,-4,-5,-7,9,3,-14,-21,-15
83833249344,4,-22,-6,8,-3,0,9,8
83833262929,2,3,-1,3,-1,-21,3,-7
83833262929,2,2,-3,-3,7,8,6,14
83833263703,2,-4,-2,-13,-4,-2,-5,-5
83833263703,-12,6,-4,16,-3,3,-16,-21
83833286091,9,4,-5,-14,-16,-31,8,24
83833286091,4,-5,-2,13,-7,24,0,-25
83833286909,-5,2,-4,-44,14,31,-2,-10
83833286909,-5,4,1,10,-1,-3,0,-2
83833308856,0,2,-2,-4,-6,-19,-16,-2
83833308856,-5,2,-5,-10,-16,-51,3,-3
83833309445,3,0,-1,-17,1,8,-26,6
83833309445,3,16,3,39,15,14,22,-6
83833323167,-5,-3,-2,3,-7,50,5,-4
83833323167,2,0,3,-1,13,-27,8,15
83833323740,-19,-6,-8,-17,-24,-22,-13,-76
83833323740,13,-2,-6,-39,-8,-46,-28,41
83833346347,3,4,3,0,13,18,12,20
83833346347,-5,-3,-4,14,-2,38,28,-12
83833346927,8,8,4,-2,9,-32,2,18
83833346927,-20,1,0,19,3,-9,-9,-7
83833368738,0,2,3,11,18,18,-11,2
83833368738,9,-3,0,-3,-4,-9,3,-6
83833369468,-7,-7,0,3,-32,23,6,7
83833369468,-2,-3,-2,-27,-24,-53,-6,-3
83833382895,-1,-3,-1,14,-11,29,-7,14
83833382895,-4,1,-3,-22,9,-29,-6,-13
83833383770,2,-26,-4,21,38,94,41,-2
83833383770,0,2,6,-17,-8,-54,-9,-18
83833406401,1,5,3,37,14,-50,22,-8
83833406401,0,-2,-9,-56,-38,-63,-79,-9
83833406854,4,8,7,24,-13,-112,-27,17
83833406854,0,-4,0,1,13,88,-13,17
83833428695,-3,-4,-8,-12,-5,46,42,-17
83833428695,0,-2,4,-4,-10,31,-3,4
83833429422,-9,-1,-3,29,25,-1,-1,5
83833429422,11,4,10,16,11,40,26,-4
83833443008,-2,0,-9,-3,4,36,20,35
83833443008,-10,-24,-3,18,-19,-66,-17,-24
83833443795,-5,2,-3,5,3,45,-5,-19
83833443795,3,-1,-2,-7,2,-72,-1,-7
83833466204,8,0,8,-6,-21,10,-30,-3
83833466204,-3,4,1,2,6,22,24,15
83833466942,17,-2,-6,15,25,-8,1,14
83833466942,4,2,0,-10,-42,16,19,18
83833488811,-9,1,-4,-33,16,-5,-18,-74
83833488811,6,2,-1,27,-22,19,1,47
83833490293,3,16,5,-24,-10,-20,12,17
83833490293,-1,-28,-5,28,27,20,0,-11
83833502318,-7,-3,-2,-15,-29,-35,-26,-21
83833502318,4,7,3,-8,32,23,-5,-11
83833511355,-8,-7,-15,-19,-22,-15,17,10
83833511355,0,9,1,-18,6,4,5,-2
83833526353,-3,2,2,7,-12,6,-14,-15
83833526353,-8,-11,-4,-7,16,3,15,-10
83833527756,5,1,0,8,-13,-21,-9,35
83833527756,-10,2,-3,7,20,5,-7,-28
83833548817,5,3,4,-3,-1,8,11,26
83833548817,-4,5,-1,25,-5,-10,-7,-2
83833550260,-4,-2,5,5,-24,-2,-3,-24
83833550260,-4,1,-10,-18,6,-2,0,11
83833571365,-1,-2,1,-27,10,-15,-4,10
83833571365,2,5,-3,35,16,8,12,8
83833572825,-1,-10,2,-15,14,9,-5,14
83833572825,-8,4,3,-26,-25,-7,-12,-62
83833587400,11,-15,-7,14,8,-11,5,31
83833587400,-14,-1,1,-8,-5,10,4,-3
83833589031,1,3,-1,12,-16,-2,-1,-9
83833589031,-1,3,-2,-3,11,-1,-9,4
83833608594,-10,-3,-1,-5,22,-14,2,-17
83833608594,2,0,-1,-32,-24,10,3,-1
83833610236,4,14,1,18,24,9,-1,-9
83833610236,1,-8,0,-2,4,5,2,13
83833622230,-5,1,-1,4,-18,-20,-12,-8
83833622230,13,1,5,0,20,5,5,26
83833631288,-4,4,3,-26,-5,3,3,8
83833631288,5,5,-1,3,-2,1,0,6
83833646090,-3,0,2,-1,5,-7,-1,5
83833646090,-2,1,-7,13,8,-6,-12,-25
83833647677,0,-2,6,14,-10,6,12,5
83833647677,4,-1,-3,-18,-9,5,6,15
83833668639,0,-3,1,26,5,-7,-6,-4
83833668639,-2,-1,1,13,11,6,-4,-11
83833670424,0,-4,-2,-4,-15,-10,-11,-5
83833670424,-22,-7,-6,10,2,-2,-2,-1
83833682153,2,14,8,9,-2,-3,1,0
83833682153,-1,-18,-9,-44,-10,1,1,1
83833691270,-2,-8,-10,13,13,0,1,0
83833691270,-1,-1,-1,-17,-7,0,0,-4
83833706305,-2,-7,-7,14,-6,-5,-8,1
83833706305,-1,15,10,-26,-13,-3,2,-4
83833707769,3,-6,-1,7,12,-4,-5,-10
83833707769,-2,-5,0,36,-13,-3,-3,3
83833728783,-3,0,-9,-79,-3,3,1,3
83833728783,-1,-7,2,18,-4,0,0,1
83833730214,-9,4,1,-66,-15,-12,-6,12
83833730214,26,0,-4,11,-18,4,5,10
83833742295,0,3,3,32,15,-3,-6,-6
83833742295,-6,4,-1,-25,-21,-1,-2,-4
83833751255,8,-7,3,17,13,2,-6,-10
83833751255,-5,-1,-5,-32,-6,-5,2,4
83833766071,-6,7,0,-1,-11,-2,1,8
83833766071,13,-2,3,17,19,1,0,-2
83833767693,-7,3,5,-4,-13,-3,-3,-15
83833767693,7,1,0,9,5,-2,8,15
83833788582,8,-5,-11,28,7,6,5,16
83833788582,-6,7,7,29,1,-3,-3,-10
83833790268,-1,-3,-5,-21,-1,-2,-1,-3
83833790268,0,6,11,4,1,0,-3,-1
83833802253,-6,-25,-10,-36,-8,1,-4,-11
83833802253,0,-5,-6,29,14,5,6,18
83833811300,4,1,-1,23,-10,-7,-3,-28
83833811300,-16,-2,11,1,6,4,-1,-46
83833826263,-10,4,9,1,-12,-5,10,42
83833826263,13,-5,-6,-15,2,3,-1,6
83833827838,6,1,2,-2,0,5,6,10
83833827838,17,19,0,16,4,-7,-20,-37
83833848629,-29,2,6,19,2,0,3,-35
83833848629,-1,-18,-28,2,1,-2,4,53
83833850286,-98,-14,-12,-4,-6,-4,-5,28
83833850286,10,-1,-22,7,11,9,10,77
83833862493,58,-24,-35,21,-13,-14,-19,-49
83833862493,45,0,35,12,-7,3,-1,24
83833871317,-19,-64,-16,-20,-13,-12,-6,50
83833871317,-21,26,9,36,9,5,2,-12
83833886310,-37,-3,6,-78,-12,-5,-26,-45
83833886310,-19,-13,-36,1,5,-4,10,13
83833887814,34,10,-39,-37,-12,-1,-6,-68
83833887814,7,-13,36,14,0,1,4,-7
83833908697,18,4,15,0,-11,-2,-22,-14
83833908697,-30,7,17,-11,6,-7,-9,-48
83833910263,20,17,8,5,-7,3,6,39
83833910263,-15,-16,-29,-38,-13,7,13,-8
83833922253,-4,22,16,89,40,-25,7,-4
83833922253,-2,2,-3,-84,-16,11,0,-13
83833931352,9,10,2,34,-7,-24,-10,-49
83833931352,24,1,-5,3,0,59,-2,30
83833945517,-6,-11,-3,-35,7,-20,35,73
83833945517,-17,3,6,3,8,11,1,-25
83833952263,8,13,22,34,28,20,-31,-26
83833952263,-24,-9,-5,-11,-4,-5,22,-7
83833968658,17,0,-3,-23,-14,-26,-9,55
83833968658,-11,7,-6,5,-24,-12,9,14
83833970306,-3,9,8,-22,-2,24,20,-23
83833970306,7,-8,-8,41,-13,-38,-33,-11
83833982286,-9,0,0,34,30,6,8,4
83833982286,7,0,-4,26,1,8,-16,-10
83833991340,-7,-2,-2,-57,-31,-6,0,5
83833991340,4,-3,5,33,12,1,2,-6
83834005370,-31,-13,-12,10,-14,8,6,-10
83834005370,3,7,6,18,1,-14,-11,-25
83834012163,-24,-23,-11,-1,4,4,2,-4
83834012163,-4,-4,-7,-43,-4,-16,1,17
83834028785,14,17,10,-8,-5,9,-5,-18
83834028785,-7,-9,-7,-6,-1,4,2,2
83834030238,11,5,-4,11,10,3,10,26
83834030238,1,-4,-4,-33,-2,-18,-5,-8
83834042514,15,-8,8,11,-7,11,-4,-16
83834042514,14,2,2,3,6,1,0,0
83834051323,15,1,3,24,5,-10,2,10
83834051323,-5,-4,3,-16,-2,-4,-5,-6
83834066848,-5,10,-2,-14,-2,16,-2,-12
83834066848,-3,-19,-8,-58,-20,-7,2,11
83834072447,6,-1,5,20,17,0,2,3
83834072447,0,2,2,-4,-10,-4,-5,-3
83834088698,-3,2,-5,-2,-5,8,-2,1
83834088698,-9,-1,-2,0,4,-7,-2,-3
83834090256,0,-3,8,26,6,1,0,3
83834090256,-19,-9,-10,-20,-1,-2,-3,-3
83834102287,1,-1,-3,-1,-7,1,1,-1
83834102287,2,3,2,15,4,-3,-4,-5
83834111261,-11,-1,3,-1,-4,0,0,0
83834111261,15,5,1,-11,2,-3,-2,1
83834125646,-4,-11,-4,-6,-4,-1,-4,-1
83834125646,6,2,3,3,1,0,1,-4
83834132247,4,7,-3,2,9,-1,0,3
83834132247,-6,-2,-3,-36,-11,-4,-4,-3
83834148612,-16,-12,-5,32,2,2,-2,-1
83834148612,-5,3,-3,7,-1,-4,1,-3
83834150217,2,8,3,-9,0,3,1,1
83834150217,-13,-19,-6,-17,-2,-15,-1,-4
83834162466,9,-1,-2,-1,-1,14,-4,-2
83834162466,0,7,1,5,1,-3,-3,2
83834171247,0,1,-2,-17,-5,2,3,-2
83834171247,18,4,3,20,3,3,-2,2
83834186256,4,9,3,-9,-2,-3,3,3
83834186256,-17,-8,-2,14,0,-6,-2,-4
83834193864,4,6,2,11,-3,0,-1,0
83834193864,0,4,-1,7,2,16,4,0
83834208728,-2,-1,-1,3,0,-13,-4,-3
83834208728,-11,-19,-4,0,-4,-5,-4,-4
83834210290,12,3,-2,-9,-2,-2,-2,0
83834210290,-14,-3,0,34,18,0,-1,0
83834238627,20,9,1,-48,-19,3,4,3
83834238627,8,7,3,29,9,8,3,0
83834240243,-3,-6,-1,0,-2,-5,-5,0
83834240243,-4,-1,-2,3,-3,-3,-1,-2
83834245437,-9,0,-3,0,2,4,-1,-2
83834245437,2,2,0,13,0,-1,0,-1
83834252243,2,0,-3,-8,-4,-4,-3,-2
83834252243,-25,-7,0,-16,-9,-13,-4,-2
83834268613,-5,-2,-2,9,6,3,-1,-1
83834268613,2,2,-1,-7,-2,2,0,-2
83834270152,-2,-2,-3,-14,2,2,0,-3
83834270152,0,11,2,12,-3,-3,-4,1
83834291364,-2,-11,-4,-10,-6,-9,0,1
83834291364,-5,-3,-2,0,4,5,-1,1
83834292765,-3,4,0,-4,-3,-1,-1,-3
83834292765,5,6,0,0,1,-4,2,-2
83834304850,-2,0,-4,-6,-7,13,2,-4
83834304850,3,2,-1,-16,-6,-19,-5,-1
83834313794,2,4,1,9,4,-1,2,0
83834313794,2,-6,-2,-14,-6,4,-2,-1
83834328774,-3,1,-3,5,1,-7,-3,0
83834328774,4,1,0,-1,-1,8,4,0
83834330228,-4,0,0,-12,4,2,2,1
83834330228,21,5,2,31,2,-2,0,1
83834351100,2,18,1,-57,-17,1,0,0
83834351100,-6,-4,-1,-12,-11,-2,-2,-3
83834352749,-1,-5,-7,11,4,-7,0,3
83834352749,1,2,1,-3,-1,0,-5,0
83834364814,-24,-4,0,36,15,-1,-4,-9
83834364814,0,1,-5,-13,-3,-5,-6,-5
83834373800,-3,-6,2,-9,-4,-1,4,-2
83834373800,-5,0,-3,-8,-1,1,-2,-11
83834388691,4,-4,-3,3,-3,-7,-2,6
83834388691,-2,0,2,-7,0,6,-3,-4
83834390235,-5,-7,1,16,3,-8,3,7
83834390235,-3,-1,-3,-9,-5,15,0,-4
83834411085,4,-3,4,7,-3,-21,-2,2
83834411085,-1,0,0,2,6,13,3,-2
83834412743,4,-11,-6,-9,-10,-10,-6,-4
83834412743,-5,1,0,-4,4,3,-5,-7
83834424768,0,-21,-2,23,1,6,6,11
83834424768,9,-19,0,-16,-6,8,5,6
83834433733,-6,1,-6,-9,-1,-22,-5,-1
83834433733,-1,-2,2,18,-6,-1,-5,-4
83834448575,0,0,-1,-17,-3,5,3,-4
83834448575,1,4,-2,6,-1,-7,-2,-1
83834450153,-1,-2,-4,-11,-6,13,0,-9
83834450153,5,-2,-5,-2,6,-10,1,6
83834471070,-18,5,-4,12,3,-4,-5,-4
83834471070,-5,1,-1,24,5,1,-5,-4
83834472704,1,2,-4,-17,-8,2,-1,-1
83834472704,-3,1,2,-4,1,-2,2,2
83834484739,8,15,3,2,4,2,-1,-2
83834484739,-2,-5,-2,0,3,-11,-5,-1
83834493717,-3,2,1,22,-1,4,-5,1
83834493717,-2,-4,-4,-6,-6,-2,1,1
83834508622,5,0,0,9,1,2,-2,-2
83834508622,-2,3,-4,-21,-3,-5,0,-2
83834510217,2,2,2,6,0,1,-1,-2
83834510217,0,12,1,-10,-2,0,1,1
83834531126,4,-8,-1,-5,1,1,-2,-2
83834531126,-2,2,-1,10,-1,-1,-2,-1
83834532728,2,0,-3,3,0,1,-2,1
83834532728,0,-1,-2,0,-4,-2,-1,-3
83834544808,-28,-4,-2,-7,3,2,-2,-4
83834544808,7,8,0,-4,-12,-4,-1,1
83834553742,-2,-2,2,7,3,2,1,1
83834553742,-1,-8,0,-7,-1,-1,-1,-2
83834568547,7,-3,-2,-2,-2,-2,-1,0
83834568547,-5,-22,-1,0,-1,-1,1,3
83834570246,-6,1,1,-4,1,2,0,-4
83834570246,3,-2,-4,1,-4,-5,-3,0
83834591322,6,-7,-2,-13,-1,0,-1,-2
83834591322,-4,4,-6,0,-3,-1,-3,-5
83834592751,6,16,2,18,0,-2,-1,-2
83834592751,-3,-8,-2,-31,-5,-3,-2,0
83834604786,4,4,1,9,-1,-1,1,-2
83834604786,0,5,1,-6,2,-1,0,0
83834613799,-4,0,0,-4,-2,-2,-2,-2
83834613799,-1,0,-3,6,1,-1,1,0
83834628784,2,-3,-2,8,0,0,1,-2
83834628784,14,0,-3,-5,0,-1,-2,-1
83834630316,-2,-31,-3,-5,-4,0,-1,-2
83834630316,-3,-1,-4,-3,-1,-1,-3,-1
83834651242,-1,-3,-4,-6,-2,0,-3,-5
83834651242,-3,-1,-3,1,-1,-2,-2,-3
83834652780,2,4,-1,-7,-2,-1,-1,-1
83834652780,0,-4,-3,-8,-2,0,1,-3
83834664817,5,0,-2,-1,-2,-2,-1,-4
83834664817,-6,3,1,-4,-2,-2,0,-5
83834673820,-5,1,-2,-6,-2,-1,-1,-4
83834673820,-6,-20,0,9,1,-1,0,-2
83834688843,1,4,0,1,-4,-1,0,-1
83834688843,-3,1,1,-3,0,-3,-1,4
83834690201,-1,17,4,-7,0,-2,-2,3
83834690201,1,1,5,9,3,-1,0,6
83834711175,1,0,3,1,0,-2,-1,6
83834711175,11,-9,0,0,-1,1,0,3
83834712793,5,9,4,-5,0,-1,1,2
83834712793,0,3,0,3,-1,-2,1,3
83834724766,0,-2,2,4,1,-1,0,0
83834724766,-4,1,0,-1,0,-1,2,2
83834733763,-3,-7,-3,-4,2,-2,0,1
83834733763,1,4,0,6,1,0,1,3
83834748567,-4,-22,-5,-4,-3,-4,1,-3
83834748567,-7,0,0,7,1,-2,1,-3
83834750267,-5,-35,-2,4,-3,0,0,-3
83834750267,1,2,0,-7,0,0,3,1
83834771123,2,7,-1,-6,-1,0,1,1
83834771123,-5,2,-1,-4,0,-3,-2,0
83834772850,6,-6,-2,10,0,1,0,-2
83834772850,-6,1,-1,-6,-1,1,-1,-2
83834793689,1,2,1,4,1,1,-1,1
83834793689,-4,1,-1,-11,-1,0,1,-3
83834795229,-4,2,-5,0,-2,-2,-2,-4
83834795229,-5,-3,-3,-1,-1,-3,-4,-5
83834808704,0,2,-4,-2,-2,-1,-3,-2
83834808704,-2,-1,-3,-4,-2,1,-3,-1
83834810272,-1,2,-4,-1,-3,-1,-3,-1
83834810272,3,23,-1,-1,-1,-2,-3,-2
83834831277,5,9,-4,-3,-3,-1,-4,-3
83834831277,-1,3,-3,-8,-4,-1,-3,-5
83834832818,-4,2,-3,-6,-3,-2,-4,-5
83834832818,11,-12,-7,-10,-2,-1,-2,-4
83834844940,15,16,6,7,0,2,-1,4
83834844940,-3,-3,-3,2,-3,-2,-1,-2
83834853802,-1,3,0,-3,-3,0,-2,-1
83834853802,0,-2,-2,-3,-2,-2,-3,0
83834868668,-10,-10,-3,-14,-2,-1,-4,-5
83834868668,4,2,-2,4,-3,0,-1,-1
83834870280,1,-23,-1,0,-1,1,-2,1
83834870280,-1,-1,-2,0,-1,0,-2,-1
83834891085,-5,1,-5,-12,-4,-3,-3,-11
83834891085,-7,1,-3,10,-5,-2,-2,-4
83834892767,-16,2,-3,-5,-2,-2,-3,-3
83834892767,3,-3,0,2,-1,0,-2,1
83834904831,-4,5,-3,-3,-1,-1,-2,-4
83834904831,-3,-6,2,0,1,0,0,-1
83834913830,4,6,2,-5,2,-2,-1,2
83834913830,-20,-9,-4,11,-7,-5,-1,-3
83834928085,1,2,2,3,-1,1,0,-1
83834928085,-6,-3,0,3,1,0,-1,-8
83834934957,-8,-23,-3,-3,1,-1,1,11
83834934957,-4,-1,2,5,2,0,-2,-4
83834958847,-3,-10,-2,4,0,-1,1,2
83834958847,0,-1,0,8,-2,-2,-2,10
83834960260,11,7,0,-3,2,1,0,0
83834960260,-1,-2,-2,-9,-4,-2,-1,-5
83834964970,-9,-10,-2,-1,-4,-2,-2,11
83834964970,4,1,-2,-12,0,1,-2,2
83834973782,6,13,2,2,1,0,-1,-1
83834973782,7,-16,-3,-10,-6,-1,-1,-1
83834988003,-2,2,-1,4,-2,-3,-1,3
83834988003,-6,-2,1,-6,-1,0,2,-5
83834994965,-3,4,-1,1,-3,-3,2,6
83834994965,4,13,1,-8,2,-2,-2,-5
83835011090,2,-5,3,16,1,-3,-1,-3
83835011090,-7,1,2,-4,-1,-1,-1,-2
83835012725,-1,0,1,-1,-2,0,1,-5
83835012725,-5,2,4,2,2,0,3,-4
83835024778,0,1,1,5,1,-1,3,10
83835024778,-1,0,0,-5,-1,-2,0,1
83835033795,1,9,3,1,-1,-2,-1,1
83835033795,-9,0,1,-6,-1,0,-1,2
83835047984,-12,-10,-3,4,-1,0,-2,-9
83835047984,23,3,1,6,2,0,3,5
83835054825,-1,-24,-3,-2,-2,-1,-2,-4
83835054825,4,-2,1,-1,0,1,0,4
83835071205,-1,-2,-1,-6,-1,-1,0,1
83835071205,-4,-3,-2,1,1,-1,1,-2
83835072728,-7,5,-1,-6,-3,-2,-2,-5
83835072728,-3,-8,-6,6,-1,0,0,2
83835084954,-3,0,-3,-5,-1,-1,0,-3
83835084954,2,-5,-4,-3,-3,-2,-3,-4
83835093788,-11,1,-1,1,1,0,-2,1
83835093788,-4,-2,-6,1,-3,-3,-1,-4
83835108115,-3,0,-2,14,-1,0,-1,-4
83835108115,-1,-2,-3,-10,-1,-2,-3,-2
83835114975,-3,2,-1,4,-2,-1,-4,-11
83835114975,3,0,0,-2,0,-1,-2,2
83835131126,-8,11,-3,-11,-3,-2,-3,3
83835131126,0,-7,-3,-3,0,-1,-1,-1
83835132708,2,3,0,12,2,0,-2,-7
83835132708,-5,4,-2,-6,-4,-1,-2,-2
83835153818,-1,-3,1,-9,-2,-3,-1,-5
83835153818,-5,10,0,6,3,-2,0,-2
83835155244,-2,-4,-2,-8,-1,0,-1,1
83835155244,4,-3,0,5,0,0,0,1
83835167962,4,-5,-1,-6,-2,-1,0,-3
83835167962,10,4,1,2,-3,-1,-2,-5
83835174947,0,1,-2,0,-1,0,1,6
83835174947,-21,-2,-4,-3,0,-4,-3,-3
83835191170,-4,-4,-2,-4,-1,1,-1,-8
83835191170,-2,14,0,0,-1,-1,0,1
83835192760,3,3,-4,-25,-5,-2,-1,0
83835192760,22,6,2,17,2,2,1,1
83835213609,2,-2,-1,-7,0,-2,-2,-2
83835213609,-9,-3,-4,3,-4,-2,-4,-2
83835215226,4,-2,-3,5,0,-1,-2,-2
83835215226,-3,0,0,-14,-2,-3,1,0
83835227182,6,11,0,-1,-1,-2,-2,0
83835227182,5,-7,-1,-1,-1,-2,-1,-1
83835236213,-1,-2,-1,2,0,0,0,-2
83835236213,2,-8,-5,-5,0,-1,-2,-5
83835251042,1,1,0,6,0,0,1,3
83835251042,-9,10,-2,-3,-3,-1,-3,-2
83835252765,-4,-3,0,1,-4,-2,-2,-1
83835252765,-13,0,0,-14,-3,-1,-1,0
83835273598,20,0,2,13,-1,1,-1,0
83835273598,-6,-2,1,-2,0,-1,0,-3
83835275234,0,-4,-1,-1,-1,-1,1,-4
83835275234,5,1,-1,7,0,-1,-1,0
83835287895,-7,-4,-3,-13,-3,-2,-1,-3
83835287895,-4,-8,-2,-4,0,0,-1,3
83835294700,2,2,1,-4,-1,-2,0,-4
83835294700,-5,-5,0,2,-1,1,0,3
83835311084,-2,-3,-2,0,1,-2,-2,0
83835311084,-6,-53,-6,-1,-1,-2,-1,0
83835312739,13,-4,-1,-9,0,-1,-1,1
83835312739,4,11,2,9,-1,-1,-1,0
83835333571,-1,-5,-2,-1,-1,-1,1,0
83835333571,1,9,1,-1,-1,1,-2,0
83835335165,-2,1,0,-4,0,-1,-1,-1
83835335165,-5,-12,-4,1,-3,-2,-3,1
83835347927,23,7,0,3,0,-1,-1,-5
83835347927,-3,3,-2,5,0,1,0,0
83835354720,-6,2,-1,5,1,-2,0,1
83835354720,0,7,0,2,-1,-1,-1,-2
83835371068,-9,-6,-3,-14,-1,0,0,5
83835371068,-6,-22,-1,1,0,-3,-1,-2
83835372675,7,20,1,-2,-1,-1,-2,0
83835372675,-2,-5,-4,-6,-1,-3,-2,-3
83835393566,-6,-5,-1,6,0,-1,-3,0
83835393566,-11,5,-2,-3,-3,-1,-1,-3
83835395179,-11,-1,-1,1,0,1,0,-1
83835395179,1,-6,-1,-4,0,0,-1,-3
83835407858,-8,-4,0,-5,-2,-1,1,-2
83835407858,-1,10,-1,1,0,-1,0,0
83835414709,-1,-9,-1,-3,-2,-1,-1,-5
83835414709,-3,-29,-5,-4,-3,-2,0,-2
83835431111,0,-2,-1,5,1,-1,-4,-9
83835431111,6,7,3,0,-1,0,1,7
83835432729,1,-5,-3,2,-1,1,1,0
83835432729,-4,4,3,1,-1,0,-1,1
83835453581,-7,-2,-2,-4,0,-1,-1,-5
83835453581,3,-1,-3,1,-2,-2,-1,-4
83835455151,-7,0,0,7,-1,-2,1,1
83835455151,11,2,0,-10,-1,-1,0,-3
83835467939,-1,2,1,-7,-3,1,1,1
83835467939,-3,-12,-3,-7,-2,-2,-1,-2
83835474756,-13,-7,-3,1,-1,-1,-3,0
83835474756,4,6,1,1,2,1,1,-2
83835491035,-3,-2,-1,1,-1,-2,-1,1
83835491035,0,-18,-2,-6,-2,-1,-1,-2
83835492684,-4,-3,-2,2,-1,-2,-1,-5
83835492684,-1,2,0,6,-1,-1,-1,1
83835514076,-4,-2,-1,-4,-3,-1,0,0
83835514076,14,6,1,-5,-1,-1,0,-2
83835515697,4,5,2,6,-1,0,1,1
83835515697,-5,5,-2,-2,1,0,0,0
83835528199,1,3,0,9,0,-2,-2,-3
83835528199,1,4,-2,-7,-4,0,-1,-1
83835534843,1,-4,-1,-6,-1,0,-1,-2
83835534843,1,38,4,0,-1,-1,-1,1
83835551116,0,-4,-1,-10,-3,-1,-1,-1
83835551116,-7,5,0,4,0,-1,2,-1
83835552701,15,2,-1,-5,-2,-1,-2,-2
83835552701,-6,0,0,7,-1,-2,-1,-3
83835573603,-1,-3,-1,-8,-3,-2,-2,3
83835573603,3,6,0,3,-1,0,-3,0
83835575256,-6,1,-1,-3,0,0,-2,2
83835575256,0,-11,-3,-3,-3,-1,-4,-3
83835588199,-1,-2,0,-1,-1,0,-2,-1
83835588199,-7,-2,-2,-7,-1,-1,0,0
83835594851,-1,-3,0,6,1,-1,-1,-2
83835594851,-27,-13,-3,2,-4,-3,-3,-3
83835611129,-16,-5,-5,2,-1,-4,-1,-6
83835611129,-2,19,1,-1,-1,0,-1,3
83835612758,-4,-10,-3,-5,-2,0,-1,-2
83835612758,2,0,-2,-4,1,1,0,2
83835633604,1,-13,0,2,2,0,-1,-1
83835633604,-2,3,-3,0,-1,-3,-3,-4
83835635203,0,-1,-3,-3,-3,-3,-2,0
83835635203,2,-5,-1,-3,-1,-1,-2,-3
83835647264,-6,-2,-3,-3,1,-2,0,0
83835647264,11,2,1,-12,-1,0,-1,-1
83835656269,-2,-5,-1,10,0,0,-1,2
83835656269,1,-4,-2,-4,-2,-2,-2,0
83835671205,-27,-2,-4,0,-3,-3,-2,-3
83835671205,-4,-3,0,-3,1,0,-1,0
83835672762,-1,2,-2,6,-3,-1,0,-1
83835672762,-3,-16,1,6,1,-1,0,-1
83835693861,8,2,-2,-1,-1,-1,-1,1
83835693861,3,-2,-4,1,-1,-2,-2,-11
83835695301,-3,-4,1,-8,-1,-1,1,7
83835695301,6,1,-1,1,1,-2,1,-1
83835707235,-2,-18,-2,0,-2,0,0,1
83835707235,0,-1,-3,2,-2,-3,0,-3
83835716185,-1,4,0,-5,0,-1,0,-4
83835716185,-1,-6,-2,1,0,-1,-1,0
83835731040,6,7,-1,-3,-1,-1,-1,2
83835731040,-5,0,1,-1,0,-2,0,1
83835732755,-3,-3,-3,-5,2,-1,-1,-2
83835732755,-1,0,-2,-6,-3,-3,-2,0
83835753561,4,1,1,16,0,2,1,-1
83835753561,1,8,-2,-11,-4,-1,-1,2
83835755192,-20,-8,-3,-5,-3,-1,-1,-2
83835755192,-5,-2,-2,-1,0,-3,-1,-9
83835767271,2,4,0,-2,-1,-1,0,3
83835767271,13,6,5,7,2,0,0,0
83835776254,4,2,-1,-5,-1,-1,-2,-1
83835776254,-10,0,-3,-14,-3,0,-1,-2
83835791101,-4,9,-1,5,0,0,-1,-5
83835791101,-6,-8,-1,1,-2,0,-3,0
83835792841,3,0,-1,-1,1,-1,-3,-4
83835792841,6,-2,-1,6,-2,-1,-1,0
83835813626,6,5,-2,-8,-1,-4,-2,-1
83835813626,-7,11,-3,-1,0,-1,-1,-1
83835815231,7,-2,1,0,-2,-1,-1,-2
83835815231,1,2,-2,2,0,0,-2,1
83835827216,0,-2,-1,-4,-1,-1,-2,-1
83835827216,0,-1,-2,-2,-3,-1,-1,-1
83835836224,-21,1,0,5,-1,-2,-1,0
83835836224,-1,-3,-1,0,1,1,0,-1
83835851026,1,-4,-3,-4,0,0,-1,-2
83835851026,-2,-7,-2,6,0,-1,-2,-1
83835852744,3,2,-3,-9,-2,-1,-1,-2
83835852744,19,3,2,5,0,-1,0,1
83835873664,1,5,-1,3,-2,-1,-2,-1
83835873664,-9,-47,-6,0,-2,-1,0,-2
83835875194,5,1,0,-4,-1,-2,-1,-2
83835875194,-7,3,-3,-1,-1,-3,-2,1
83835887270,1,-3,-2,-14,-4,0,0,-3
83835887270,-3,5,-1,6,0,0,-1,-1
83835896248,3,-1,-1,-9,-2,-2,-1,0
83835896248,2,-7,-1,3,0,0,0,-3
83835911352,-1,0,1,0,2,-2,-1,-3
83835911352,7,-3,-4,-2,-1,-2,-3,-1
83835912810,2,1,1,0,-2,0,-2,-3
83835912810,-3,6,0,-1,-2,-1,-1,1
83835933746,-3,-3,-1,1,0,1,0,0
83835933746,-5,-20,-2,-5,-1,-1,-2,0
83835935223,14,1,-1,6,0,0,-2,0
83835935223,-3,-1,-1,-1,-2,-1,-2,0
83835947405,1,-3,0,-1,-1,0,-1,0
83835947405,2,7,1,-4,-2,-1,-1,0
83835956305,-3,0,-2,-1,-2,-1,-2,0
83835956305,-10,-27,-3,-6,-1,1,-1,-2
83835971319,-4,0,-1,-5,-4,-3,-1,-2
83835971319,-5,8,1,7,0,1,0,1
83835972742,-5,-1,-1,-1,-1,0,-2,-2
83835972742,0,8,-1,1,1,0,-1,-1
83835993810,-13,-5,-2,-3,-1,-1,-4,-3
83835993810,13,13,0,-5,-1,-1,1,-3
83835995239,2,3,1,1,0,0,1,0
83835995239,1,3,-1,-2,0,-1,-1,1
83836007233,2,-7,-3,0,0,-1,-1,-2
83836007233,-3,3,-2,-4,-1,-2,-1,0
83836017116,2,0,-1,2,0,-1,1,2
83836017116,-11,-4,-5,-3,-2,-1,-2,-5
83836031021,1,7,0,-2,-1,-1,0,2
83836031021,-6,-1,0,2,-1,-2,-1,0
83836032696,0,4,-1,-3,-2,-1,-2,-1
83836032696,1,-7,2,-2,-2,0,0,1
83836053585,0,-4,-3,14,1,0,-1,-1
83836053585,-4,0,0,-3,1,0,0,-1
83836055194,-4,-1,-1,-1,-2,0,0,-3
83836055194,17,-15,-2,-5,0,-2,0,0
83836076044,4,6,2,-4,-2,0,-3,2
83836076044,-1,1,-1,2,-3,-1,-1,-2
83836077666,-4,-8,0,-1,1,-2,1,-1
83836077666,0,5,-2,4,-1,-1,-1,-3
83836091060,-1,-4,-2,0,-1,-1,-2,-6
83836091060,-3,-4,-3,-2,-2,-2,-1,0
83836092792,-7,0,-4,-1,-3,-1,-3,0
83836092792,-2,6,1,-7,-2,-1,-2,0
