timestamp,emg1,emg2,emg3,emg4,emg5,emg6,emg7,emg8
83863862754,1,2,2,21,4,0,1,0
83863862754,-2,-4,-4,-4,-3,0,-1,-2
83863869586,-10,-4,-2,-7,-4,-3,-2,-5
83863869586,-20,6,1,8,0,-2,0,-4
83863885895,-6,-21,-6,-8,-4,-3,-4,-2
83863885895,-8,-6,-1,5,1,1,-2,2
83863887548,-3,-7,1,0,-1,-1,-2,-2
83863887548,0,-2,-1,-3,-4,-1,-3,0
83863908473,-2,0,-1,-2,1,0,-2,-2
83863908473,-1,2,0,-2,1,0,0,2
83863910035,3,-5,-2,1,-2,-3,-2,-2
83863910035,4,2,0,9,1,0,0,-3
83863930914,3,4,-1,-17,-7,0,1,-2
83863930914,0,18,0,18,1,-1,0,1
83863932538,3,-3,-2,-20,-3,0,0,-3
83863932538,0,0,-2,-2,-3,-1,0,1
83863945927,-5,0,-1,7,3,1,-2,-2
83863945927,-4,-2,1,-6,1,0,-1,0
83863947546,-1,-3,1,-3,-2,-1,-1,-1
83863947546,-7,-4,-3,4,0,-2,-2,-4
83863968489,2,3,0,-18,-3,-3,-1,0
83863968489,-2,-7,-1,-9,-5,0,-2,0
83863970075,3,-1,-1,13,3,0,-1,-3
83863970075,-2,-6,-1,-9,-4,-1,-1,-2
83863982793,2,-1,-1,1,0,0,-1,0
83863982793,-1,-4,0,5,0,0,-1,-1
83863989574,-22,4,-3,-1,3,-2,-3,-4
83863989574,3,-2,-2,0,-10,-2,-1,1
83864006021,-1,2,1,8,1,0,-2,-3
83864006021,-3,-25,-2,-4,0,-1,0,4
83864007537,6,4,0,2,0,-1,0,-1
83864007537,2,3,-1,-6,-2,0,-1,0
83864028589,1,3,1,2,2,-3,0,-2
83864028589,-4,-5,-3,-1,-2,-1,-1,-3
83864030086,20,0,3,2,-1,-2,-2,-1
83864030086,2,-5,-1,-2,1,-2,-1,-2
83864042157,0,-3,-2,-7,-2,-1,-1,-1
83864042157,0,5,-3,-3,-1,-2,-1,-1
83864051087,-2,-6,-3,4,-4,0,0,-4
83864051087,-1,4,0,-6,-1,-1,-2,0
83864065938,1,0,-1,4,-2,0,-1,-1
83864065938,-7,-2,0,5,-1,0,-1,-1
83864067509,2,2,1,9,4,0,-1,1
83864067509,1,-2,0,5,-4,-1,-1,1
83864088415,-27,-10,-5,-7,-2,-3,-2,-4
83864088415,-1,0,0,-9,-3,-1,0,-2
83864090063,-3,-2,-1,1,-2,-1,-2,-1
83864090063,-2,-4,0,-2,3,1,1,0
83864102112,5,3,-2,13,1,0,-1,-1
83864102112,-9,-1,-2,-6,-4,-1,-1,-2
83864111118,-2,-2,1,-4,-1,-3,0,0
83864111118,-1,6,-1,0,-2,-1,-2,0
83864125943,3,-1,-1,-1,-3,-1,-2,0
83864125943,2,0,-3,0,0,1,-1,1
83864127524,0,-4,-2,-18,-3,1,0,-1
83864127524,-1,-3,1,-6,1,-1,0,-1
83864148470,0,3,-1,0,-3,-1,0,-2
83864148470,2,-2,2,3,1,-1,-2,-1
83864150161,-4,-4,-1,6,-3,-1,-1,-3
83864150161,1,1,-1,5,-1,-2,-1,-1
83864162090,2,0,-1,-10,-2,-2,-2,1
83864162090,1,17,1,6,6,0,-2,-1
83864171077,3,-2,-1,7,-4,-1,-1,0
83864171077,-3,-3,-2,-4,-2,-2,-3,-2
83864185954,2,-3,1,6,1,-1,0,1
83864185954,2,1,1,-3,-2,-1,-1,0
83864187566,-3,-2,-1,1,3,-1,-1,-2
83864187566,0,-1,-3,0,-2,-3,-1,-2
83864208418,2,6,1,4,3,1,1,-1
83864208418,0,-3,-3,-16,-5,-3,-2,-3
83864210067,-1,-4,1,11,0,2,-1,0
83864210067,-1,-2,-1,-2,0,-2,-3,-2
83864222073,0,-2,-2,-4,-1,0,0,0
83864222073,0,-2,-2,-2,-1,-2,2,-1
83864231122,-5,-3,0,-6,-3,-3,-1,-2
83864231122,0,1,0,16,4,1,1,1
83864245962,0,-1,1,4,7,1,1,1
83864245962,-1,-3,-2,0,-6,-1,0,0
83864247564,-3,0,-5,-15,-8,-3,-3,-1
83864247564,-2,-1,0,1,5,1,1,-2
83864268417,2,-3,-2,-9,1,0,-1,-2
83864268417,-16,4,0,-5,-8,0,2,2
83864270043,0,0,-1,-8,6,1,1,1
83864270043,-1,10,-3,0,-10,1,-4,-2
83864282113,1,-11,-1,-19,-1,-10,-4,0
83864282113,4,-2,-2,4,-3,3,0,1
83864291038,0,1,2,-1,1,-7,-3,-1
83864291038,-4,2,1,-8,6,6,6,1
83864305325,-2,5,1,9,-8,4,-2,-3
83864305325,0,-22,-5,-24,-3,-9,-4,-2
83864312132,-1,-4,-1,4,-1,-1,-5,-2
83864312132,2,-6,2,15,7,-1,-3,-2
83864328445,-7,4,-3,0,-4,-3,-6,-44
83864328445,7,2,4,2,2,-1,9,21
83864330092,-2,0,0,38,12,1,3,-3
83864330092,7,-8,-3,-60,-16,9,1,14
83864342092,-2,-1,-1,2,2,-22,-5,1
83864342092,-4,3,-1,16,-9,5,-3,-10
83864351085,3,20,-1,-11,3,24,9,5
83864351085,-2,-3,-2,5,-5,-14,7,-12
83864365313,-1,-3,0,14,-4,-5,-11,7
83864365313,4,0,-4,-32,-1,-15,-12,-4
83864372078,-4,-2,-2,9,-5,14,0,0
83864372078,0,0,1,30,6,4,4,-1
83864388431,0,-3,-9,-42,-11,1,-7,6
83864388431,-3,1,-1,30,-7,-10,-8,-8
83864390064,-2,-11,-7,-16,-17,-4,9,-10
83864390064,-7,-3,-1,10,4,-20,-2,9
83864402113,3,-2,5,29,15,25,10,8
83864402113,-6,1,-2,7,6,-15,-2,-10
83864411070,0,-8,-2,-33,-19,2,-24,-8
83864411070,-9,-5,-8,-7,4,3,3,-51
83864425259,-18,3,-2,-22,2,-2,11,61
83864425259,10,-25,1,11,5,-11,-6,-8
83864432065,-17,-19,-2,-5,4,-14,-1,-25
83864432065,-1,-1,-1,-2,-1,24,4,32
83864455882,-1,1,0,5,-21,-3,-9,-16
83864455882,-7,2,-1,26,27,26,20,4
83864457521,6,2,-8,-13,-14,-41,-4,2
83864457521,-1,-6,-9,-23,-22,-5,-23,6
83864462129,-1,-3,0,19,-20,-31,-11,-10
83864462129,2,8,4,-7,23,56,4,13
83864471120,2,4,1,18,19,22,9,-10
83864471120,0,1,-1,2,4,18,21,15
83864485282,5,0,-2,-13,-21,-32,-2,-3
83864485282,-3,2,0,21,-1,-40,-23,-30
83864492079,0,-2,-4,-29,-12,1,-12,17
83864492079,1,-1,5,7,18,12,-6,-6
83864508477,-6,-3,4,30,1,15,16,-9
83864508477,3,1,1,-20,-19,1,-2,5
83864510063,-6,-4,-3,4,4,8,-4,-4
83864510063,0,2,-4,-14,-27,-48,2,0
83864530978,-1,17,-8,-13,27,37,-4,-17
83864530978,-2,-3,-6,3,11,99,27,4
83864532580,-1,2,3,7,-18,-79,-1,0
83864532580,-1,2,-2,-16,0,-55,-63,-22
83864545309,2,-4,-4,-26,17,19,9,2
83864545309,-11,0,-2,-5,-23,33,8,-36
83864552078,6,-6,-3,25,-4,0,6,89
83864552078,-2,-4,-3,3,-10,-12,0,0
83864568462,4,-3,1,-15,-25,-93,-3,6
83864568462,9,-1,-2,7,8,21,-11,8
83864570064,11,9,9,-28,43,51,16,-9
83864570064,2,0,-3,31,8,81,63,-3
83864590911,-5,-3,-5,-18,12,-7,-49,1
83864590911,-3,-1,-3,-23,-42,-124,-38,-13
83864592529,-4,3,-2,12,-1,23,-13,-18
83864592529,-6,-2,2,17,-27,-25,13,4
83864604561,8,1,2,10,16,-1,14,-8
83864604561,-3,-1,-7,-20,-22,-67,-30,-1
83864613624,-7,-1,-3,4,44,68,20,-7
83864613624,6,7,10,5,-3,61,20,18
83864628456,-4,-6,-2,2,0,15,10,-15
83864628456,-5,-1,-1,-10,3,-11,-10,15
83864630111,-4,-2,-1,-8,-25,-64,-20,-13
83864630111,-1,3,1,12,17,-12,-20,-14
83864650928,1,-21,-4,5,-19,15,20,25
83864650928,5,1,2,13,31,12,4,-1
83864652565,-6,-1,-3,-14,-39,-16,-7,-44
83864652565,1,1,2,-9,16,-4,-5,7
83864664585,3,3,4,-11,-8,11,-8,-6
83864664585,-6,0,2,29,10,18,17,16
83864673572,-2,-4,-2,-1,5,7,15,-2
83864673572,-3,-3,-3,-26,-5,-20,-24,-13
83864688410,-2,1,2,28,12,5,-10,-1
83864688410,-1,-2,-4,-41,-5,4,17,-20
83864690062,4,5,4,29,-7,-7,-4,13
83864690062,-1,-5,-2,-13,13,-3,-7,-11
83864710924,-2,-2,-3,-9,-19,9,7,1
83864710924,3,15,5,14,18,3,11,7
83864712545,-2,-6,5,13,-3,-7,-13,-3
83864712545,2,-4,-12,-38,-8,2,3,8
83864724655,-6,-1,5,-9,13,7,-3,-18
83864724655,-1,0,-11,-47,2,-4,-2,4
83864733578,0,1,3,26,-24,-4,1,6
83864733578,-8,-6,-9,-48,-23,-6,0,-4
83864748426,-1,2,0,7,22,1,-4,-35
83864748426,4,-2,-3,19,5,6,3,66
83864750122,-1,-5,-5,-21,2,2,1,-4
83864750122,-1,-2,6,68,17,-4,-4,-5
83864772264,2,-1,-7,-53,-15,0,-1,3
83864772264,-1,-3,1,-19,-21,2,0,-10
83864773889,-3,0,3,21,17,4,3,1
83864773889,-4,-15,-6,-26,-9,-7,-5,10
83864784582,-5,-2,-4,12,8,3,0,7
83864784582,5,1,-3,10,-20,-4,-1,-10
83864801059,0,-1,-2,18,9,0,-3,7
83864801059,-1,4,2,-17,5,-1,-2,-7
83864808464,1,0,4,52,-13,3,2,6
83864808464,-3,-4,-4,-10,1,-3,-2,-12
83864810114,0,2,-11,-21,-12,-5,-4,-5
83864810114,5,4,4,3,3,-3,-2,0
83864830894,0,1,1,-5,10,6,3,7
83864830894,-1,1,7,44,13,3,2,3
83864832556,1,-2,-4,21,-26,-8,-3,-2
83864832556,-3,4,-4,0,-1,-2,-4,-5
83864844661,4,0,1,23,-1,-1,-1,2
83864844661,-2,-1,1,-10,6,2,1,-8
83864853632,-1,3,1,-15,8,0,1,5
83864853632,-2,-20,2,32,3,-1,-1,-4
83864868410,1,2,-3,-20,-21,-4,-3,2
83864868410,1,-1,2,-14,5,1,0,4
83864870047,1,0,0,-5,8,2,0,4
83864870047,1,5,-3,9,-6,-3,-4,4
83864891440,-1,3,2,-9,3,1,1,7
83864891440,-4,-5,4,18,2,0,-3,-9
83864893027,3,-1,3,-32,0,3,10,6
83864893027,-1,1,-4,46,8,1,0,-2
83864904646,-1,-3,-7,-9,-1,0,0,-2
83864904646,0,2,0,-20,1,-7,-9,-10
83864913621,-5,9,3,0,-15,-2,-5,-7
83864913621,4,13,7,7,0,3,0,1
83864928466,2,-26,-11,40,14,3,0,-6
83864928466,-1,-7,-6,-9,-19,0,2,3
83864930059,-2,-3,1,4,20,-2,-3,-5
83864930059,-3,9,8,-37,-9,-6,-4,-5
83864958439,-1,5,-4,65,6,-3,-1,-1
83864958439,-9,2,2,0,-5,-3,-6,-14
83864960062,3,-7,-7,-16,-6,-4,-4,-13
83864960062,-6,2,-16,-24,-1,5,3,74
83864964558,9,10,12,-4,-1,-8,-6,-37
83864964558,33,35,6,18,-1,-1,1,71
83864973594,-10,-18,-8,-20,5,13,11,-73
83864973594,32,-1,11,39,-2,-7,3,44
83864988462,-53,6,12,-70,-21,-11,-10,92
83864988462,-1,-15,-38,8,5,12,21,6
83864990063,-50,-14,0,34,24,11,-1,-89
83864990063,88,-5,-15,-8,-2,-2,9,97
83865010969,14,49,29,-15,-4,-5,-11,-54
83865010969,-34,3,25,-22,-9,-5,-20,-106
83865013453,-27,11,-16,-49,-13,-17,-23,-21
83865013453,50,-11,8,10,6,6,36,-15
83865024598,-24,11,-40,-36,8,4,12,44
83865024598,-9,9,33,37,9,-2,2,-37
83865033549,39,-1,2,34,-3,2,-10,86
83865033549,-26,14,-16,-78,-23,-7,-15,0
83865048389,23,-10,-10,77,3,3,-30,-16
83865048389,33,-8,-12,-30,-20,-4,7,42
83865050031,-53,-10,7,36,38,10,-1,34
83865050031,-46,19,17,-23,-23,-14,-20,-128
83865070938,-8,-12,-3,-3,-1,3,20,13
83865070938,-8,-8,-25,5,10,1,-14,-33
83865072552,4,3,14,-27,-19,1,11,9
83865072552,-14,-2,-22,-38,-3,-13,-20,-29
83865084605,-12,-16,11,-46,-16,6,-3,-118
83865084605,16,-1,5,38,-24,-74,-10,59
83865093592,17,4,-13,46,32,19,9,-12
83865093592,-26,2,9,-26,-16,47,12,-41
83865107739,30,-9,7,26,14,30,19,70
83865107739,7,4,10,30,25,32,4,28
83865114608,4,7,-7,-43,-27,-33,-13,3
83865114608,-36,-21,3,35,2,-32,-20,-25
83865130909,19,3,-1,3,-1,-19,8,13
83865130909,-20,-9,-8,-49,-9,15,3,-29
83865132527,11,4,-2,-57,-19,-7,-1,-6
83865132527,-15,0,2,81,23,4,9,22
83865144576,-4,-6,-5,-13,-6,-2,-2,-12
83865144576,-4,-6,0,28,7,-1,6,-8
83865153616,3,-27,-4,3,-9,-1,2,13
83865153616,5,0,0,-28,6,-2,-3,-8
83865167798,-3,-10,-17,-24,-7,1,4,6
83865167798,-15,-10,6,-16,5,6,-3,-10
83865174573,14,4,-4,14,-9,-3,-1,14
83865174573,-6,-4,-3,28,14,5,1,0
83865190929,6,5,9,-10,-13,-7,-8,-10
83865190929,7,24,-1,0,-2,3,2,7
83865192543,-6,-6,-2,-1,1,0,2,3
83865192543,-3,-1,4,23,7,-3,0,-2
83865204531,-23,0,-4,-5,0,-4,-3,0
83865204531,4,16,-10,-31,-10,-2,-4,-8
83865213592,6,-7,0,13,2,3,0,7
83865213592,1,-6,-3,3,-2,-2,-4,4
83865227737,18,2,2,11,1,-1,-1,-1
83865227737,-4,-10,-4,4,-4,2,-2,-4
83865234583,4,-3,2,13,0,-5,-2,-2
83865234583,-11,-28,-5,-10,-6,-1,-1,4
83865250928,7,2,-3,11,8,-4,-5,-7
83865250928,-3,-13,-3,10,2,-1,0,-5
83865252478,17,14,1,-22,-10,-2,-2,4
83865252478,-11,5,0,9,3,0,0,-5
83865264564,-3,-10,-3,-19,-10,-2,-2,-1
83865264564,-15,-11,1,7,8,2,0,0
83865273560,7,9,0,7,-5,0,1,3
83865273560,0,3,-3,-5,1,-2,-3,-2
83865287851,-6,-3,-1,-5,2,1,1,-1
83865287851,-1,-7,-9,7,-2,0,1,3
83865294606,-3,-1,-2,-3,-2,0,-1,-4
83865294606,1,5,2,31,3,-7,-5,0
83865311048,-2,-10,0,-23,-5,-2,-1,2
83865311048,4,-4,-1,-28,-6,1,0,-3
83865312558,-4,2,2,5,4,-1,1,0
83865312558,1,2,-2,-12,-5,3,3,-2
83865324552,-3,-10,-3,21,8,-5,-6,1
83865324552,-3,-5,-1,-2,-9,-1,1,-2
83865333543,-4,-4,-2,-8,-1,-1,1,-3
83865333543,3,2,-1,0,2,0,-2,1
83865347548,33,16,7,1,-2,4,3,5
83865347548,-1,-3,-3,-2,3,4,-1,1
83865356088,1,-1,-1,-3,-3,-12,-6,0
83865356088,4,2,1,20,1,-4,-2,-3
83865370921,-9,-3,-3,-4,2,4,-1,-1
83865370921,-3,-4,-2,10,4,2,-2,-3
83865372531,3,5,4,-6,0,4,3,1
83865372531,-7,-5,-3,-9,-22,-7,-3,-2
83865384672,-8,-3,-4,-9,1,-3,0,-4
83865384672,0,10,-10,9,-3,-3,-4,-3
83865393515,-6,-13,15,12,3,2,2,-1
83865393515,-1,3,-4,2,9,-1,-2,-2
83865407813,-3,-9,11,4,1,1,3,2
83865407813,1,0,2,3,-2,-3,-3,-1
83865414637,2,8,-6,-10,-1,-3,-3,-1
83865414637,-2,-1,-4,-2,-1,1,1,-1
83865430976,-5,6,1,3,2,-1,0,-2
83865430976,-3,-7,-1,-3,2,-2,-3,-1
83865432604,-4,-1,-2,15,-3,-8,-2,-6
83865432604,-2,1,-2,-35,-4,3,-1,1
83865444558,2,-7,-9,-11,-4,2,3,2
83865444558,-6,-6,1,-4,0,7,-1,-1
83865453605,0,0,-2,13,6,-12,-2,0
83865453605,-21,-1,0,-7,-4,3,2,-3
83865467745,-3,10,-1,19,-1,-3,-3,-4
83865467745,-3,-14,0,17,5,0,-2,-1
83865474587,-1,-1,-5,-28,-13,-3,-2,-1
83865474587,2,-3,2,-6,1,-1,0,0
83865490931,-6,0,-1,32,0,-3,-5,-2
83865490931,-4,3,4,-8,10,1,5,-2
83865492551,-3,-1,-4,-8,-5,5,2,-1
83865492551,3,-5,-2,-5,-4,-3,0,-1
83865513433,-5,-3,-4,-13,-3,10,4,-3
83865513433,4,3,0,21,-1,-24,-6,-3
83865515087,-1,-3,0,3,12,10,0,2
83865515087,4,2,6,-12,2,12,5,4
83865527789,-1,-5,-6,16,2,-7,-5,-2
83865527789,0,2,2,-11,-11,4,4,1
83865534593,0,0,-10,-12,-1,-4,-3,-1
83865534593,-6,-4,0,14,-2,-6,-2,-1
83865550888,2,-7,-3,-9,4,12,6,1
83865550888,2,1,1,3,-6,-10,-6,-1
83865552573,-1,-7,-5,8,-3,-3,-2,-1
83865552573,-2,5,1,2,-6,1,-1,5
83865573378,11,3,0,-7,2,-4,0,1
83865573378,2,-2,0,-3,0,6,3,-1
83865575035,0,5,4,4,-3,-9,-6,-2
83865575035,3,-5,-1,11,5,6,-3,2
83865587104,-5,0,0,-29,-6,-7,0,-2
83865587104,-2,-1,-4,-6,3,4,-3,1
83865596097,-1,-1,0,13,-1,5,2,-2
83865596097,1,-3,-3,14,-4,-11,-4,-4
83865610959,-6,-2,0,-16,-7,-3,-1,-2
83865610959,-3,1,-3,-24,-3,0,-4,-4
83865612529,-3,-3,-2,-17,-1,-1,1,-3
83865612529,1,-2,0,-13,1,1,2,-3
83865633437,-2,0,3,11,-1,-3,-1,-1
83865633437,-2,-3,-5,1,-2,-2,3,-3
83865635045,1,5,0,-3,-4,0,-8,0
83865635045,0,-21,-4,-4,6,-6,0,-2
83865647084,0,14,-1,20,1,-1,-1,-2
83865647084,1,-3,0,-15,-6,1,3,1
83865656059,-1,0,-3,9,2,7,1,-1
83865656059,0,7,-3,-1,-6,-6,-7,-8
83865678435,-3,-2,-3,-3,-5,-9,-6,-5
83865678435,8,-10,-3,15,-2,0,2,3
83865680053,11,7,5,3,-2,1,2,1
83865680053,-1,3,-2,-8,1,-1,-2,-1
83865693437,-4,-4,-2,-8,-1,-2,-2,-4
83865693437,2,3,0,4,-5,0,0,-1
83865695036,-3,-14,-3,-7,2,0,-1,-2
83865695036,2,2,2,5,6,-1,1,-2
83865707117,-2,-4,-2,17,-7,-1,-4,-1
83865707117,-5,21,-4,-20,-3,3,-2,-1
83865716053,-4,-2,2,7,1,-2,1,-1
83865716053,-3,1,3,12,2,0,1,-1
83865730931,-5,-4,2,14,4,-1,1,-2
83865730931,-3,0,-3,-22,-10,-5,-6,-2
83865732545,0,-2,-5,3,1,1,0,0
83865732545,6,17,2,-6,-2,1,1,1
83865753419,-1,-1,-2,1,3,-2,-1,-2
83865753419,-1,-3,2,7,2,0,2,0
83865755022,-3,0,-3,0,0,0,2,-2
83865755022,-4,-6,-4,-10,-6,-4,-2,-2
83865767055,-3,-3,0,-3,-1,-1,-3,0
83865767055,-5,-5,-1,9,1,1,-1,-2
83865776083,-21,-33,-9,-10,-6,-5,-4,-4
83865776083,0,-1,-1,5,0,-3,0,0
83865791456,-1,-1,-3,-11,-2,-1,-1,0
83865791456,-3,-5,-1,1,0,-3,0,-1
83865793042,2,7,2,8,-2,-2,1,1
83865793042,-3,-5,-6,-14,-5,-1,-1,-1
83865813499,-6,-5,-1,0,-2,-3,-2,-3
83865813499,15,4,1,3,1,-1,0,-3
83865815059,2,5,-2,-2,-2,-1,0,-2
83865815059,-4,-7,-4,-14,-3,-1,-2,-3
83865827085,2,3,1,12,1,-2,0,0
83865827085,-4,5,-2,4,-2,-1,-1,-2
83865836091,3,-3,0,-6,2,1,0,1
83865836091,0,-3,0,-3,-5,-1,0,0
83865850956,-2,-3,0,-1,-2,-2,-1,0
83865850956,-8,19,2,2,1,-2,-1,-3
83865852571,3,1,-4,-4,-1,-3,-1,0
83865852571,-4,-1,0,0,0,0,-1,-1
83865873406,11,-2,1,0,-1,-1,1,1
83865873406,-7,1,-3,2,0,0,1,3
83865875034,1,7,2,-6,-1,0,-3,0
83865875034,2,-2,-3,3,-2,-2,0,-1
83865887095,3,2,1,-4,0,0,-1,1
83865887095,2,-12,-3,-12,-1,-2,-1,1
83865896115,0,3,-2,16,0,-2,-1,1
83865896115,-1,-2,-3,-9,-4,-1,-3,0
83865910273,-3,-1,1,-5,-3,1,-3,-3
83865910273,-2,-9,-2,7,1,-2,-2,-4
83865911049,-18,-5,-7,-5,-2,-3,-4,-6
83865911049,0,3,0,6,0,0,-3,-3
83865932755,-10,-16,-6,-5,-4,-2,-1,-3
83865932755,-2,-26,-1,-12,-4,-1,-1,0
83865933569,1,2,-1,3,-1,0,-1,1
83865933569,11,-10,2,11,1,-1,-2,2
83865955264,-1,10,5,-6,1,-3,-2,4
83865955264,-6,-1,0,2,0,1,-2,2
83865956018,0,-1,6,-5,-3,-2,1,-3
83865956018,-1,-5,-1,-1,0,1,-1,6
83865970253,-4,-2,0,0,2,-1,2,2
83865970253,-10,-4,0,10,1,0,-1,4
83865971083,0,7,2,-8,1,-1,1,4
83865971083,-6,-1,3,4,-2,-2,0,-2
83865992770,-3,-1,-3,-7,-1,0,-1,-1
83865992770,2,3,-2,-6,0,-1,2,0
83865993554,1,6,-2,9,0,-1,-1,0
83865993554,-33,-8,-4,0,0,0,0,-4
83866015203,3,-2,0,3,0,-1,-1,-3
83866015203,0,-5,-4,-1,-2,-1,-2,-5
83866016017,-2,-1,0,-7,-1,1,-1,-2
83866016017,4,3,-4,-4,-2,-1,-2,-5
83866030053,1,-1,-5,-12,-2,-1,-2,-4
83866030053,-2,1,-1,11,-1,-2,-3,-5
83866037774,3,-4,-3,-2,-2,-2,-1,-5
83866037774,2,5,-1,-3,-2,-2,-4,-4
83866052749,6,24,-3,-7,-3,0,1,-3
83866052749,3,-21,-4,-12,-2,0,0,-3
83866053498,-1,-6,-3,0,-2,-1,-3,-1
83866053498,2,0,-2,7,0,-2,-3,-6
83866075263,6,-3,-6,-12,-4,-4,-7,-1
83866075263,-2,5,1,2,-6,-1,-3,-2
83866076043,-8,-1,-1,-6,-1,-1,-3,-1
83866076043,-2,2,-1,-2,0,0,0,-1
83866090286,-4,-10,-3,4,0,-1,-1,-2
83866090286,-2,5,0,-3,-1,-2,-1,2
83866091059,7,3,-1,-4,-3,-1,0,-1
83866091059,4,12,1,4,-1,-1,-1,0
83866112815,-13,-22,-3,1,-2,-2,-2,1
83866112815,-7,5,1,-6,1,-1,-5,-2
83866113555,4,14,3,0,-1,0,0,-8
83866113555,2,-3,1,0,0,1,2,1
83866135314,5,0,1,2,-1,1,2,-30
83866135314,-24,-3,-2,-5,-1,-3,-1,14
83866136051,-4,-7,1,7,2,-1,-3,-33
83866136051,1,-3,-3,-10,0,-2,3,46
83866150256,1,2,3,3,-1,-2,0,3
83866150256,-6,-6,-8,-4,-4,-5,-7,-1
83866151075,-1,-4,0,-3,0,0,2,-12
83866151075,17,-5,-4,-4,-1,-2,-3,-30
83866172751,-2,-31,-4,2,2,-1,-1,38
83866172751,-18,3,0,-1,-3,-2,-5,-68
83866173550,0,-4,-2,3,-1,0,-2,6
83866173550,4,-1,-1,-4,-2,-2,-1,14
83866195260,3,10,-2,2,-2,0,-1,12
83866195260,9,4,-2,-2,0,1,2,-8
83866196031,1,-18,-4,-4,-3,-1,-1,10
83866196031,-2,1,-2,-1,-1,1,-1,1
83866210259,-26,0,-2,-3,-2,-2,-3,-34
83866210259,12,8,-1,-1,-1,-1,3,29
83866211028,-2,4,-3,-2,-3,-1,-2,8
83866211028,-34,-1,-1,-2,0,-2,-4,-21
83866232751,17,7,2,-1,-1,0,-1,-2
83866232751,9,-2,0,0,0,-1,-1,2
83866233596,0,0,0,-1,1,-2,1,16
83866233596,0,-5,-3,-1,-1,-3,-1,-24
83866255208,-16,-7,-3,-1,-2,-1,-2,-10
83866255208,-2,-9,-1,-1,0,-1,0,22
83866256042,7,8,0,-2,-2,-1,-2,-1
83866256042,4,8,-1,-3,-2,-1,-1,4
83866270276,-2,9,0,1,0,0,-1,3
83866270276,2,0,-2,0,1,-1,0,-4
83866271003,-10,-8,-4,-1,-2,-1,-2,-1
83866271003,0,4,0,2,-3,0,-2,-1
83866292743,5,3,-1,5,1,0,0,9
83866292743,4,-5,-6,-17,-4,-1,0,-6
83866293516,-1,12,5,12,0,-2,0,2
83866293516,-21,-6,-2,-3,1,-1,-2,3
83866315243,8,4,3,-1,1,-1,0,-2
83866315243,2,-2,0,4,0,-1,0,0
83866316020,-4,-30,-6,-9,-2,-2,0,-10
83866316020,-3,-6,-2,1,-1,-1,-1,-2
83866330263,-8,2,1,-2,-2,0,-1,-2
83866330263,-7,0,0,-1,-1,-2,-4,-13
83866331084,-4,6,0,-1,0,1,0,-5
83866331084,6,-2,0,2,-1,1,0,2
83866352733,-1,-11,-6,-4,-6,-4,-5,-9
83866352733,7,7,3,2,1,2,1,11
83866353502,4,-1,-1,-1,1,0,-1,1
83866353502,-12,0,-1,-2,-2,-2,0,6
83866375230,15,-10,-2,-4,-1,0,-2,-3
83866375230,-10,5,2,4,-1,0,1,6
83866376018,1,5,1,-1,-3,0,0,6
83866376018,2,3,-1,-2,0,0,0,-4
83866390274,-1,30,-1,-2,0,-2,-2,-13
83866390274,2,-8,0,4,-1,-1,-2,-3
83866391032,-8,-8,-2,-2,-1,0,0,-1
83866391032,8,7,3,-2,0,-3,-1,-16
83866412723,-8,4,-1,0,-2,-1,1,3
83866412723,0,-24,-3,-2,-2,-2,-2,-5
83866413484,-5,-1,-1,-4,-2,-2,0,6
83866413484,4,-4,-3,-1,0,-1,0,3
83866435928,-3,-31,-4,0,-1,-1,-1,2
83866435928,3,9,-2,-6,-1,0,-1,2
83866436712,4,-1,1,1,-2,0,-3,2
83866436712,-14,-14,-2,-2,-3,-3,-2,-5
83866450297,11,8,3,-4,-1,2,3,13
83866450297,-2,0,-4,4,1,-2,-1,-3
83866451072,-8,0,-3,0,0,-2,-3,-2
83866451072,9,2,0,0,0,-1,-1,0
83866472778,-7,-2,-2,-4,0,-2,-1,3
83866472778,0,2,0,-4,-3,0,1,-18
83866473563,5,3,1,2,1,-1,-1,2
83866473563,-2,-10,-5,-9,-3,-1,-1,1
83866495912,0,-13,-1,0,0,-2,-2,3
83866495912,0,0,-2,0,0,0,-2,9
83866496687,2,0,-1,-2,-2,-1,-3,0
83866496687,13,-4,-3,2,0,0,-1,-3
83866510272,5,14,0,1,1,0,-1,-2
83866510272,-16,-6,-3,0,-2,-1,-2,5
83866511003,0,3,0,-3,-1,1,-2,-3
83866511003,12,-3,-2,-1,-4,-4,-3,22
83866532731,1,4,-1,-1,0,0,-1,-5
83866532731,-8,15,1,-2,0,0,0,2
83866533506,8,-46,-1,3,0,-1,3,4
83866533506,-4,2,0,1,0,-2,0,1
83866555926,-10,-1,-2,-2,-3,-3,-3,-2
83866555926,4,5,1,1,1,-1,-1,0
83866556742,-7,10,-3,0,-2,-1,-3,-5
83866556742,-1,-2,-3,-13,-2,0,0,-5
83866570240,-8,-9,-1,8,0,-2,0,-3
83866570240,8,-1,-1,-2,-2,0,-1,-1
83866571015,-1,7,-2,-2,-2,0,-1,0
83866571015,2,-2,1,3,-2,0,-2,-9
83866592762,-28,5,-3,-8,-1,-1,-3,9
83866592762,5,-5,-2,-2,-3,-1,-1,4
83866593542,0,9,0,0,-2,-3,-3,-2
83866593542,-6,5,3,10,1,0,-1,-10
83866615974,-9,13,-3,-14,-4,0,-2,-12
83866615974,28,-1,0,9,1,-1,0,3
83866616714,-9,-19,-4,-12,-1,-1,-1,2
83866616714,2,0,-2,1,-1,-1,-1,1
83866630209,13,5,2,5,1,1,2,5
83866630209,-13,-9,-3,-3,-1,-3,-1,-1
83866631045,13,11,0,3,-2,-1,2,-4
83866631045,-4,0,3,0,0,-1,-2,5
83866652804,8,-11,-2,-1,-3,-1,-3,-5
83866652804,-2,-2,0,-5,1,-1,0,2
83866653529,-22,0,-5,6,-1,-3,-5,5
83866653529,-7,15,0,-2,-2,-1,-1,-6
83866675937,1,-13,-1,4,-2,-1,-2,-2
83866675937,-9,4,-5,-8,-3,-3,-5,-5
83866676735,-3,-11,0,-5,-2,0,-2,-1
83866676735,2,2,-3,-1,-1,-1,-1,0
83866690210,-2,2,-2,-2,0,-3,-2,-5
83866690210,5,-3,0,1,-3,0,-1,5
83866691018,3,7,0,0,0,-2,0,-2
83866691018,-2,-5,-1,-6,-3,-1,-1,3
83866712758,-3,-8,0,4,0,-1,1,0
83866712758,-3,-3,-2,1,1,1,-1,-2
83866713548,3,9,0,1,-1,-1,-1,-3
83866713548,-7,-32,-3,-2,0,-1,-1,-6
83866735912,0,2,-1,-1,-2,-2,-1,0
83866735912,2,6,0,2,0,0,-1,0
83866736711,2,5,2,-3,-2,1,-1,-3
83866736711,-19,-2,-6,-4,-3,-3,-4,-1
83866750259,-3,-3,-1,-1,-2,-1,1,3
83866750259,-2,8,0,0,0,-2,0,-23
83866751002,-8,0,0,-4,-1,-2,1,-1
83866751002,20,8,3,4,0,0,0,4
83866772732,-3,-22,-6,-3,-3,-3,-1,-3
83866772732,-7,1,-1,-3,-1,-2,-2,1
83866773525,5,4,-1,-1,-2,-1,-2,-1
83866773525,-3,4,0,0,-1,0,-2,-10
83866795995,-1,5,0,2,0,0,-4,2
83866795995,2,-35,-2,1,-3,0,-1,4
83866796739,1,-5,-5,-4,-2,-2,-1,-4
83866796739,-4,-15,-2,0,-1,-1,1,5
83866810210,-3,-2,0,2,1,0,0,-1
83866810210,-25,-1,-2,4,-3,-1,-1,-21
83866811058,-2,1,-3,-7,-3,0,-2,-3
83866811058,-2,2,-2,-5,-1,-1,-3,0
83866832764,-4,4,-2,0,0,-1,-2,-4
83866832764,12,1,-1,0,-1,-1,-2,11
83866833494,0,-15,-3,-1,0,0,-3,2
83866833494,3,9,1,2,1,-2,0,-1
83866855939,3,2,-2,-8,-3,-3,-1,1
83866855939,1,-1,-1,-8,-1,-1,0,3
83866856708,-10,0,-2,3,0,-1,-2,-3
83866856708,-6,-2,-1,-3,-2,1,-2,1
83866870247,0,-2,-1,2,-1,-1,0,-4
83866870247,2,8,0,-1,-1,-1,-2,4
83866871036,-38,6,0,-9,-1,-4,-4,-22
83866871036,5,3,-1,6,-1,-1,-2,-1
83866900912,1,-5,-2,-5,-1,0,-1,0
83866900912,-7,18,1,0,-1,0,1,-5
83866901753,26,9,1,2,0,0,2,4
83866901753,-9,-7,-3,-2,0,-3,0,-4
83866915914,9,6,4,-2,-1,1,-1,3
83866915914,-2,-2,-3,0,1,0,-1,5
83866916713,2,-4,1,1,0,1,0,1
83866916713,-3,3,0,3,0,-1,0,-1
83866930211,4,5,0,3,0,0,2,2
83866930211,0,-7,-4,-9,-2,-1,-1,-8
83866931044,8,4,0,1,0,0,0,9
83866931044,7,-1,0,-4,-2,0,0,1
83866952758,-2,-5,-3,1,-2,-1,-2,-2
83866952758,-9,6,4,1,-2,1,-1,13
83866953560,-4,14,-1,0,-1,-1,-1,-21
83866953560,-1,-24,-2,0,-2,-1,-1,7
83866983487,4,-2,-1,-9,0,0,1,0
83866983487,9,-3,-3,-2,-3,-1,-2,0
83866984235,3,0,-1,3,-1,-1,1,8
83866984235,7,13,1,15,2,1,0,-2
83866990213,-4,0,-1,1,-1,-1,-2,-6
83866990213,1,-4,0,-2,-1,-1,-1,-1
83866991048,-4,-2,-1,-8,-2,-1,1,6
83866991048,1,2,-3,-2,-2,-2,-3,-6
83867012756,-6,-4,-2,0,-1,-2,0,2
83867012756,2,-2,-1,0,0,0,-3,-3
83867013549,2,0,0,1,0,-1,-2,-1
83867013549,-30,-2,-5,-10,-2,-3,-4,-24
83867036432,4,2,0,-1,-3,0,-2,-3
83867036432,1,-1,0,-2,-2,-2,0,5
83867036674,-6,-3,-4,-2,-1,2,1,0
83867036674,5,5,0,-6,-3,-2,0,5
83867049560,-9,-1,-1,-1,-1,-1,-3,-5
83867049560,3,-6,-3,-7,-1,0,-2,-3
83867057741,-4,-8,-3,10,1,-2,-2,1
83867057741,15,8,1,-10,-1,0,3,9
83867072740,-2,-3,-3,4,-2,-1,-2,0
83867072740,0,-1,0,-3,-1,-2,0,1
83867073534,-1,-4,1,-2,-1,-1,-2,3
83867073534,2,-1,-2,0,2,-2,-1,3
83867095936,-6,1,-1,-3,0,-1,1,0
83867095936,5,5,-1,-9,-2,0,-2,-3
83867096743,4,3,1,10,-1,-1,-1,-1
83867096743,-3,-23,-2,1,0,-1,-2,-4
83867109614,-8,-1,-2,-4,0,-1,-3,-11
83867109614,24,12,-1,1,-1,-1,0,-10
83867117717,-3,10,2,-1,-1,-1,4,13
83867117717,1,5,-2,-8,-2,-1,2,2
83867132764,1,-2,-1,-1,-2,0,-1,4
83867132764,1,-3,-1,2,-2,-1,0,-3
83867133542,-6,-4,-1,2,0,-2,-2,-13
83867133542,6,0,0,5,-1,-1,-2,10
83867155925,1,3,-1,-5,-1,-2,-2,3
83867155925,-1,-31,-5,0,-1,-1,-2,0
83867156743,-6,-8,-2,-2,1,-1,-4,1
83867156743,-8,0,-1,-2,0,-1,-1,-5
83867169583,7,-1,-2,2,-2,-3,-1,0
83867169583,-3,0,-4,-1,-2,0,0,-4
83867177792,2,-6,2,-12,-2,-1,0,5
83867177792,-2,-5,0,1,1,-2,-1,-5
83867192786,-5,0,-2,-2,-1,0,-1,-4
83867192786,-3,3,2,10,0,-2,-1,5
83867193476,4,0,-3,2,-2,-1,-4,-3
83867193476,-17,-10,-6,-27,-6,-1,-4,1
83867215935,-2,0,1,14,1,-2,-1,-4
83867215935,-9,1,1,9,0,-3,-3,-1
83867216693,7,-5,-2,-11,-2,1,0,-2
83867216693,-3,3,0,4,-3,-1,-1,-3
83867229610,-4,-4,-2,-10,0,-2,0,0
83867229610,-7,-4,0,-3,1,-1,0,0
83867237772,1,5,-1,2,-1,-3,-1,-2
83867237772,2,1,-1,-2,-1,2,2,0
83867252712,3,-2,-1,3,-2,0,0,0
83867252712,-10,2,-1,0,0,-2,-2,-21
83867253540,1,-9,-5,-9,-2,-2,-2,-7
83867253540,3,5,1,5,1,-2,-1,3
83867275907,0,-3,0,1,-1,1,1,-3
83867275907,-17,1,-3,-9,-2,-2,-3,9
83867276790,-3,-5,-2,-2,-3,0,-2,-4
83867276790,2,-3,-4,0,-4,-1,0,-6
83867289585,-3,2,1,1,-1,-2,-2,4
83867289585,7,3,0,-1,-2,1,1,2
83867297746,2,7,-1,-4,-1,-2,1,1
83867297746,-3,2,0,4,-1,0,-1,0
83867312705,0,-4,0,0,0,0,1,-1
83867312705,-2,-5,1,2,-1,-1,0,-2
83867313537,-3,-9,-3,4,-2,-2,-1,-1
83867313537,10,7,3,7,0,-1,0,-2
83867336333,1,-4,-1,-7,-2,0,0,-1
83867336333,1,-2,-1,-2,-1,-1,-2,-1
83867336731,-6,-2,-2,1,-2,-1,-2,2
83867336731,16,3,-1,-1,-1,-1,-3,19
83867358408,8,12,2,-5,-1,0,1,-7
83867358408,2,3,-2,6,0,-2,0,4
83867359213,3,-5,-1,-2,-2,-1,0,1
83867359213,0,17,-1,-1,-1,0,-2,0
83867372755,-1,-4,-1,-3,-2,-2,-2,1
83867372755,-2,-2,-1,-13,-1,0,-1,-5
83867373517,3,5,-1,5,0,-1,0,4
83867373517,-5,-3,-1,-5,-1,-1,0,-8
83867395974,-8,-4,-3,-2,-3,0,-1,2
83867395974,-2,0,0,-1,-1,0,0,-3
83867396744,-11,-2,-5,-7,-4,-2,-4,-3
83867396744,-12,-4,1,-1,0,-1,-1,2
83867425910,-3,-6,-2,-1,-2,-1,-4,-1
83867425910,0,-4,-2,-2,-3,2,-1,3
83867426709,-8,17,1,1,-1,-1,-3,-20
83867426709,10,-19,-7,-3,-2,-4,-3,-4
83867432817,-2,3,0,-1,-1,-1,-1,1
83867432817,-2,2,0,2,0,-1,-2,-1
83867433564,3,2,0,-2,-2,-1,0,4
83867433564,-6,-4,-3,2,-2,0,-2,-6
83867455914,3,19,-1,-4,-1,-2,-2,-2
83867455914,2,-2,-2,3,0,-2,-1,3
83867456682,7,-8,0,0,0,0,0,0
83867456682,-7,-3,-1,2,-2,0,-2,2
83867478433,0,-5,-1,-6,0,-1,0,4
83867478433,-3,0,-2,2,0,1,2,-1
83867479271,1,-3,-2,2,0,-1,0,2
83867479271,-5,-23,0,-3,0,-1,-2,-6
83867492737,-11,-8,-1,10,0,-1,-1,-3
83867492737,-3,-2,-3,-10,-1,-2,-2,0
83867493534,-11,-5,-1,1,0,-1,-1,3
83867493534,-1,5,-1,-1,-2,-1,-2,-4
83867515928,-1,-6,-3,-3,0,-1,-2,-1
83867515928,5,-5,-1,3,-1,-1,-2,20
83867516705,10,-5,-1,-4,-2,-1,0,-9
83867516705,0,13,1,0,0,-1,1,-1
83867538445,-6,-14,-2,4,1,-2,-1,-5
83867538445,-12,1,-2,-4,-3,-3,1,-5
83867539250,-3,4,1,-5,-1,0,1,6
83867539250,1,2,0,0,-3,-2,-2,0
83867552740,0,0,-1,-3,-3,-2,-1,-1
83867552740,5,0,-1,-3,-1,-1,0,-2
83867553481,2,-10,-2,1,0,1,0,3
83867553481,-6,-1,-1,1,0,0,0,-8
83867575958,-8,-1,-2,-5,-1,-2,-1,3
83867575958,-1,0,-1,2,-3,-2,-1,-10
83867576710,1,4,-1,4,0,-1,-1,-1
83867576710,-3,-4,-3,-1,-1,0,-1,-5
83867598375,0,-2,0,3,1,-2,-3,18
83867598375,4,5,1,1,0,1,0,-12
83867599149,-3,-17,0,1,-1,-1,-4,-5
83867599149,3,-3,-1,-3,-1,-1,0,2
83867620911,1,8,-1,-5,-1,1,-3,-4
83867620911,-3,-16,-3,4,-1,0,-2,2
83867621723,6,6,0,-7,0,-3,1,1
83867621723,-2,0,-2,-2,-2,-1,-2,3
83867635917,2,3,-1,-7,-2,0,-1,-8
83867635917,-3,3,-2,-2,-1,-2,-1,-2
83867636705,-3,-3,-2,6,-3,-1,1,-3
83867636705,1,-2,-1,3,0,-2,-2,-12
83867658423,3,-1,1,3,0,1,2,5
83867658423,-18,-6,-5,2,-2,-2,-6,-22
83867659161,2,13,0,-13,-2,-1,-1,1
83867659161,-17,-11,-2,-7,-1,-2,0,-1
83867672727,2,-2,-2,14,0,-2,-1,-7
83867672727,0,3,-2,7,1,-2,0,5
83867673554,1,-5,-3,-9,-1,-2,-1,9
83867673554,-2,2,-1,-5,-1,-1,-2,-2
83867695935,-3,-3,-1,-11,-2,-1,-4,-2
83867695935,7,-1,-1,-1,-2,-1,-2,4
83867696744,-4,-1,0,7,0,0,-1,-2
83867696744,2,2,-1,-1,1,0,-1,3
83867718422,2,-13,-3,-8,-3,-4,-1,0
83867718422,4,3,0,-3,0,1,-2,0
83867719215,0,-4,-3,0,-2,-3,-2,-5
83867719215,-1,0,-1,-3,-1,-1,-3,0
83867732756,9,-11,-2,0,-1,-1,-2,-11
83867732756,-4,-2,-2,-7,-3,-2,-1,-12
83867733517,-13,-1,-3,4,-1,-2,-3,-3
83867733517,-2,-3,-2,0,-2,-1,-1,-4
83867755253,-9,-3,-4,1,-2,-3,-1,-1
83867755253,-1,1,1,-4,0,-3,0,3
83867756036,1,-6,-2,0,-2,-2,0,0
83867756036,7,5,0,-1,-2,-2,0,-5
83867778450,-10,-19,-4,-4,-2,-2,0,0
83867778450,2,-1,-1,0,-2,-2,-3,5
83867779268,1,6,1,0,-2,1,-1,1
83867779268,-6,-3,0,0,0,-1,0,2
83867792741,4,6,0,-4,2,1,2,1
83867792741,-1,-3,0,5,0,0,1,4
83867793492,3,-1,-1,-4,0,-1,-3,-3
83867793492,0,7,2,-1,-1,-2,-1,4
83867815247,17,-23,-5,-1,-3,-1,-1,0
83867815247,-8,4,0,-4,-2,-2,-1,-2
83867816013,1,6,2,-1,-2,0,0,-23
83867816013,-1,0,-1,-10,-2,-2,-1,6
83867838407,-5,11,2,16,-2,-2,-1,-1
83867838407,2,-2,-1,-10,-1,1,1,2
83867839209,-5,-29,-4,-2,0,2,-2,5
83867839209,-1,-4,-3,3,0,-1,1,0
83867852742,1,10,1,-4,1,0,-1,-6
83867852742,-1,-2,0,-1,-1,-2,0,5
83867853566,-3,9,0,2,-1,-2,0,4
83867853566,-1,-2,-1,-2,-1,0,0,-4
83867875254,-4,15,0,-7,-3,-1,-2,3
83867875254,4,2,0,-1,-1,-2,0,-1
83867876031,-21,4,-2,-1,1,-1,2,2
83867876031,-2,-4,-3,3,-2,-1,-1,-1
83867898426,-3,4,0,2,1,-2,0,0
83867898426,4,-2,0,-4,0,0,-2,1
83867899237,9,1,0,-6,-2,-1,0,4
83867899237,0,3,-2,-4,-1,-1,-1,-15
83867912762,-8,3,0,3,2,-1,-1,-6
83867912762,4,-4,-4,-3,-4,-3,-2,-1
83867913501,14,-18,1,3,1,0,1,15
83867913501,-2,-1,0,0,-3,-2,-2,3
83867935238,4,-1,-2,-7,0,-1,-2,3
83867935238,-1,17,0,0,0,1,-3,-5
83867935991,0,3,-2,0,-2,-2,-1,-5
83867935991,-2,2,-1,-4,0,0,-2,-1
83867958449,0,-1,0,4,-2,-2,-1,1
83867958449,-6,1,-3,4,0,-1,1,2
83867959217,-1,-1,-5,-6,-4,-2,0,-3
83867959217,2,-2,1,-4,0,-2,1,1
83867972097,-4,2,0,0,-3,0,-2,-1
83867972097,-6,-8,0,-1,1,0,-1,-3
83867980295,5,1,-1,-6,-1,-2,0,7
83867980295,3,-6,1,5,-1,-2,3,-10
83867995910,-1,-1,-2,1,-2,-1,-2,0
83867995910,4,-4,-1,-3,-3,-1,-3,0
83867996722,4,2,-1,0,-1,-2,-5,-12
83867996722,-1,4,-2,-4,0,-1,-1,8
83868018396,-3,0,-1,-4,-1,-1,1,-1
83868018396,-5,-5,0,1,0,-1,0,-1
83868019174,0,4,-2,2,0,-1,0,-7
83868019174,-6,8,2,4,-2,-2,-4,-1
83868032093,-13,-38,-7,-15,-2,-1,-3,0
83868032093,17,-7,-1,3,-1,-1,-1,0
83868040290,3,10,4,8,0,0,1,1
83868040290,1,-3,-2,-11,-3,0,-2,0
83868055939,-4,6,-1,8,-1,-1,0,0
83868055939,-3,-2,-4,-20,-3,-2,0,0
83868056730,0,-5,0,0,-2,-2,-1,0
83868056730,-3,-1,-2,-6,-2,-1,-1,-1
83868078397,7,7,2,1,1,-1,-1,-3
83868078397,-4,-2,-3,3,-1,-1,-2,5
83868079242,-4,3,0,8,-1,-2,0,-20
83868079242,-1,-5,-2,-2,0,0,0,-2
83868092084,-1,1,1,-3,1,-2,-2,-1
83868092084,6,2,-2,-3,-2,-2,-2,-4
83868100205,-6,-3,-1,-1,0,0,-1,8
83868100205,1,-18,-3,4,2,-1,-2,1
83868115994,-1,3,-3,0,-4,-1,1,-4
83868115994,-6,2,2,-4,-2,-1,-3,-6
83868116738,0,-3,-3,-9,-3,0,-3,0
83868116738,12,-12,-4,-4,-1,-1,-2,-1
83868138437,-7,8,2,4,-1,0,-1,1
83868138437,-2,0,2,4,0,0,0,-2
83868139205,-3,-1,-1,-7,-2,-1,-4,1
83868139205,-4,3,-1,3,-2,-1,-1,0
83868152083,-3,-3,-4,1,-1,-2,1,-4
83868152083,-4,1,-1,1,0,-1,2,0
83868160204,0,2,-1,0,-1,0,0,1
83868160204,1,2,-3,-5,-3,0,-3,20
