timestamp,emg1,emg2,emg3,emg4,emg5,emg6,emg7,emg8
89288757977,-1,-1,2,1,-1,1,0,1
89288757977,-3,-2,0,-1,0,2,1,1
89288763331,-1,0,-4,-1,-1,-3,-3,-9
89288763331,7,-3,-2,-3,-1,-3,-4,8
89288764099,5,-1,-2,0,0,2,1,4
89288764099,-1,-1,-3,0,-1,-2,-2,-4
89288764917,0,-2,-1,-1,-2,-1,-1,0
89288764917,-10,-2,1,0,-1,1,2,3
89288766538,-1,-2,-2,-3,-1,-3,-1,-11
89288766538,5,-1,-3,-2,1,-2,-2,6
89288769937,-2,-3,1,-2,-1,0,1,1
89288769937,-1,0,0,-2,0,-1,0,-3
89288784612,0,2,-2,0,-2,-2,0,1
89288784612,-17,-1,0,1,-1,1,-5,-6
89288790269,11,-1,1,-1,0,1,-1,3
89288790269,-1,-1,-2,0,0,0,1,-2
89288798889,-4,-4,-1,-1,-3,-4,1,-1
89288798889,0,0,-1,0,-2,0,-2,-5
89288821759,-9,0,-3,-1,0,-1,-5,-7
89288821759,15,1,-1,-1,-2,-1,1,0
89288822547,-14,-2,-1,-1,-2,-1,-1,-2
89288822547,-1,-5,2,-1,-1,0,3,0
89288867712,-1,-1,6,0,1,2,-1,3
89288867712,2,-1,-4,0,0,-2,-4,-3
89288869341,7,1,-3,-1,0,-4,2,6
89288869341,-16,-4,-1,-2,-3,-3,-1,-23
89288870130,1,1,1,0,0,3,3,11
89288870130,1,-1,-3,-1,-2,-3,-2,-8
89288872578,4,2,2,2,0,-1,-6,0
89288872578,14,-3,-3,-4,-3,-2,-5,8
89288880807,-8,-5,-5,-2,-2,-1,1,-8
89288880807,-11,0,2,2,1,-1,0,9
89288887536,-1,-1,0,-4,-2,1,-1,-1
89288887536,7,5,4,2,1,-1,6,5
89288895120,0,-1,-5,-2,-1,-3,-2,-8
89288895120,3,-3,-2,-2,-2,1,-14,4
89288910073,-6,-1,-2,-1,-3,0,20,-2
89288910073,-24,-1,1,3,1,-2,-6,-2
89288917549,10,2,1,0,0,0,1,1
89288917549,0,-1,1,-1,0,-1,1,6
89288941410,15,4,-1,1,1,1,-7,6
89288941410,0,-2,-4,-2,-1,0,-2,7
89288942249,-18,-2,2,-2,-3,-4,0,-20
89288942249,6,-3,-1,0,-1,0,-3,-2
89288955791,8,-1,-2,-1,-3,-3,-4,0
89288955791,3,-3,-2,-1,0,-1,5,6
89288956569,1,-2,-1,0,1,-1,-4,3
89288956569,0,5,4,-3,0,-2,2,-5
89288978488,-7,-4,-7,-2,-1,-1,-1,-8
89288978488,-5,-4,-8,-4,-3,-2,-4,-4
89288979191,22,0,-4,-3,-3,-2,-1,3
89288979191,-2,-1,0,-2,-2,-2,0,-5
89289001566,-10,-2,3,4,0,-3,-11,6
89289001566,4,1,-6,-4,0,1,4,-3
89289002297,-16,-2,0,-1,-1,-1,6,3
89289002297,20,2,-1,1,-3,0,5,5
89289015839,0,-4,-1,-3,-1,0,-3,7
89289015839,-5,0,0,1,0,1,-1,-8
89289016778,8,0,-6,-3,-2,0,-6,7
89289016778,-2,-3,0,0,0,1,0,6
89289038510,-11,1,1,-2,-1,-1,0,-15
89289038510,4,-1,0,0,-1,-1,-7,2
89289039065,-5,-5,-6,0,-2,-3,-1,-8
89289039065,-1,-1,0,-1,-1,-2,2,7
89289060942,1,-3,-1,0,0,-1,-1,-2
89289060942,1,-2,0,-1,0,1,-3,-3
89289061588,-20,2,1,0,1,0,-3,2
89289061588,-12,-4,-1,0,-2,0,0,-8
89289075837,0,0,-1,-2,-1,-1,-1,-3
89289075837,18,2,0,-2,0,-2,1,1
89289076616,-16,-4,1,0,0,-1,-3,-10
89289076616,-5,0,-3,-2,-1,0,-1,-6
89289098503,-10,-2,-1,-2,-2,0,4,-7
89289098503,4,-1,2,-1,-1,-2,-7,5
89289099036,18,1,1,0,-2,-1,-1,5
89289099036,-12,-4,-4,-3,-2,-2,-2,-6
89289121011,3,-2,-2,-2,-3,0,-1,-5
89289121011,-6,0,-1,0,-1,-2,0,-2
89289121604,1,-2,-4,0,-3,-3,1,-3
89289121604,-1,-1,0,1,0,-1,1,8
89289135194,-6,-1,0,0,-1,-2,-5,-16
89289135194,7,-1,-1,-1,-2,-1,-1,2
89289143302,-1,-2,-1,-1,-1,-2,-1,5
89289143302,1,-4,-1,-2,-1,-3,1,-1
89289158656,-1,0,0,-2,-1,-3,-1,2
89289158656,-2,-2,2,-1,-1,-3,2,2
89289159455,-8,2,1,1,0,-1,-3,-13
89289159455,13,1,-2,-3,-1,1,0,-6
89289180905,-40,-3,-2,-2,0,1,-3,3
89289180905,-1,-1,-3,0,-1,-2,1,-6
89289181718,5,0,0,0,1,-1,0,5
89289181718,-6,-2,-2,0,-2,-2,0,-5
89289195115,9,-1,-2,-2,0,-1,-2,6
89289195115,16,2,2,0,-1,3,3,-5
89289203536,-12,2,0,0,-2,-3,-5,-8
89289203536,-3,-3,0,-3,-2,-1,-2,1
89289218385,9,1,-1,0,0,-1,-1,3
89289218385,-30,-10,-5,-2,-1,1,-1,-8
89289219198,42,5,1,-1,-2,-2,-4,13
89289219198,-6,0,-2,-2,-2,-1,0,-2
89289241702,1,-3,-1,-1,-2,0,0,-8
89289241702,-7,1,-2,-1,0,-1,-3,4
89289242308,-9,-4,0,-2,0,-1,1,-3
89289242308,-10,1,-2,-2,-1,-2,-4,-7
89289255113,3,0,2,-1,0,-1,3,9
89289255113,2,0,1,1,-1,0,-11,-13
89289263287,-15,-3,-6,-5,0,-2,4,-14
89289263287,23,3,1,3,1,-1,-2,-4
89289278305,-18,0,2,0,-3,-1,-1,5
89289278305,0,0,1,-2,-2,0,0,11
89289278985,12,-1,-2,0,-1,1,-1,5
89289278985,-15,-1,-2,-1,0,1,1,-6
89289301573,10,0,4,-1,0,-3,-5,1
89289301573,-3,0,-3,-2,-2,-3,6,0
89289302434,-2,-3,-2,0,-3,0,-1,2
89289302434,-10,-3,-4,-1,-2,-2,0,-1
89289315013,8,0,-2,-1,0,-4,0,-2
89289315013,2,1,10,2,0,0,0,-2
89289323292,-4,-7,-13,-5,-1,-1,0,6
89289323292,-9,-2,0,-2,-1,-2,-3,-4
89289338317,17,1,-2,-1,-2,0,1,1
89289338317,3,-2,-2,0,-2,-1,-3,0
89289339067,-6,1,6,4,0,0,0,-2
89289339067,2,-3,-2,-2,0,0,-6,4
89289361398,-14,-5,-3,-1,-2,1,7,-3
89289361398,7,3,-1,0,-1,-1,-2,-1
89289362258,-3,-1,2,0,0,-1,-1,4
89289362258,-4,-2,-5,-1,-2,-2,1,-1
89289375065,1,-1,0,-1,0,0,-5,-5
89289375065,13,1,-5,-2,-1,0,1,2
89289383284,-33,-1,1,-2,0,-1,-4,-4
89289383284,13,0,-1,-2,0,-2,0,10
89289398563,3,-3,-5,-2,-2,-3,-5,-5
89289398563,-4,0,-1,-1,-1,-1,0,4
89289399016,10,2,-1,-1,-1,2,0,1
89289399016,-17,-2,0,-2,-2,1,1,-11
89289421587,14,1,1,-2,-1,-2,-1,4
89289421587,-13,-5,-4,-2,0,-2,-2,-1
89289422503,4,1,2,-3,-1,0,1,-5
89289422503,5,0,-2,0,-2,-2,1,5
89289435373,0,-3,-5,-3,-1,-1,-1,-2
89289435373,-12,-2,0,-1,-1,0,-2,-10
89289443374,1,-1,0,1,-1,-1,-1,2
89289443374,13,1,-1,0,0,-1,0,-3
89289458377,-45,-5,-3,-2,-2,-1,-3,-5
89289458377,0,0,0,-3,-2,-1,3,-1
89289459115,4,0,-1,-3,0,-5,-6,-4
89289459115,-1,-2,-1,-1,-3,-1,-1,1
89289481604,-3,-3,-5,0,-2,0,2,5
89289481604,22,2,-2,-1,-1,-1,-1,11
89289482383,-5,-2,-1,-1,-2,-2,-2,-2
89289482383,-4,-2,0,0,0,-1,-2,-5
89289495214,5,3,2,1,1,-1,-1,3
89289495214,-2,-2,-3,-2,-2,0,0,3
89289503431,5,-2,2,-1,1,0,-2,-2
89289503431,1,0,-1,-2,-1,1,1,1
89289518471,13,-2,-3,0,-3,-1,2,12
89289518471,-8,-1,0,-2,0,-1,-2,-8
89289519095,0,-2,-1,-1,-4,-1,-1,0
89289519095,-6,-3,-3,-2,0,0,-1,-1
89289541599,11,1,0,-1,-2,-2,-3,0
89289541599,-11,0,1,0,-1,-1,-3,-4
89289542340,6,1,0,-1,1,-1,2,1
89289542340,-5,-2,-2,-3,-2,1,-2,-5
89289564155,-8,0,4,2,3,0,-1,-7
89289564155,5,0,0,0,1,0,2,2
89289564842,13,4,1,0,0,-1,-5,-7
89289564842,-27,-1,2,-1,0,0,9,2
89289578501,6,4,5,1,0,-2,-4,-7
89289578501,2,-2,-4,-1,-2,-2,-2,3
89289579158,1,-2,-3,-1,0,0,1,2
89289579158,9,1,2,1,0,2,-1,-3
89289608961,-5,-1,-4,-1,-1,0,-3,-2
89289608961,-12,-2,-1,-2,-2,-2,0,-4
89289609705,10,-2,-3,-2,-3,-2,-2,0
89289609705,-7,-4,-1,-1,-1,-1,-1,3
89289624169,-5,-1,-3,-4,-2,3,-2,-6
89289624169,9,-2,0,-1,-2,-3,-3,0
89289624720,-8,0,0,0,-1,-1,1,-3
89289624720,3,0,-2,0,-1,-2,-2,-1
89289638384,7,-4,-6,-3,-1,-2,1,2
89289638384,-11,-2,1,-1,0,0,-2,-6
89289639153,-12,-2,-3,-2,-1,1,0,-2
89289639153,10,2,1,1,-2,-4,-2,1
89289661676,-8,-2,-4,0,0,-1,0,-5
89289661676,-2,-1,-3,-2,-3,-1,-1,4
89289662331,-5,-5,-2,-2,-2,-2,0,-1
89289662331,4,1,-1,1,1,-1,-4,14
89289684099,11,0,0,0,1,-2,1,2
89289684099,12,-1,-1,-1,1,2,0,-1
89289684862,-40,-3,0,-1,-2,0,-3,-5
89289684862,-2,-3,-3,-2,-2,-3,-5,-2
89289698449,-6,-2,0,-1,-2,0,3,-6
89289698449,4,2,0,-1,-1,1,1,-5
89289699092,4,-3,-4,-3,-2,-3,-8,5
89289699092,7,1,-1,-2,-1,0,2,-2
89289721697,3,2,-1,-1,-1,-1,2,-1
89289721697,-13,-3,-3,-1,-3,-2,-1,-7
89289722338,2,2,-1,0,0,1,4,-1
89289722338,-4,0,0,-3,0,-1,-2,-6
89289744211,11,1,0,-2,-2,-2,-2,-2
89289744211,-6,-2,-1,1,-1,-2,-1,1
89289744827,5,0,1,0,-1,-2,0,-4
89289744827,-2,-1,-3,-1,0,-2,-2,-6
89289758562,-4,-3,0,-1,-2,1,-1,-1
89289758562,0,-2,-2,-1,0,-2,-2,-2
89289759077,-6,-1,1,-3,-2,-1,-3,-15
89289759077,6,0,-2,0,-2,-1,0,1
89289781748,-7,-2,-2,-1,0,0,-3,0
89289781748,-4,1,0,0,0,-1,-2,-4
89289782348,10,-2,0,-3,-2,-1,1,18
89289782348,5,-1,0,-1,-1,-1,-1,-7
89289804186,-1,2,3,2,1,0,0,2
89289804186,-9,-7,-7,-5,-4,-1,-4,0
89289804850,6,2,1,1,0,-1,-1,6
89289804850,9,0,0,1,0,0,-3,0
89289818383,-17,-1,-1,-1,-2,-1,2,4
89289818383,-8,-1,0,0,1,-2,0,0
89289819112,-1,-2,-2,-1,-2,1,3,-5
89289819112,-5,-1,-1,-3,0,-4,-3,-9
89289840132,15,1,0,-2,0,0,-2,-1
89289840132,0,-2,1,-1,-2,0,-1,2
89289849177,-4,-3,-2,-2,0,-1,-2,0
89289849177,-10,0,1,0,-2,-1,-1,-15
89289863994,-1,-3,-3,-3,-3,-1,-2,1
89289863994,-1,-1,-2,-2,-2,-2,0,-1
89289865598,-8,0,-1,1,-1,0,0,-2
89289865598,12,-3,-3,-4,-3,-2,1,3
89289886436,-7,-2,-3,-2,-2,0,-2,-6
89289886436,4,-1,-2,-1,-1,-3,-1,-1
89289888063,-1,-2,-1,-1,0,-1,-2,-4
89289888063,-7,-2,0,-1,-2,0,0,3
89289900100,-1,-1,2,-1,-2,-2,-2,-3
89289900100,3,1,-3,-1,-1,0,-1,-2
89289909069,14,-1,-5,-5,-3,-3,-2,10
89289909069,-15,1,0,0,0,1,0,-4
89289924021,-5,-1,-3,-1,0,-2,0,-3
89289924021,3,-1,1,-1,1,-2,0,1
89289925705,-6,-2,-2,-3,0,-1,-2,-4
89289925705,-7,-4,-2,-1,-3,-2,-4,4
89289946510,9,0,1,0,-1,-3,2,-2
89289946510,-7,-1,0,0,-1,0,-1,-4
89289948123,1,3,1,0,0,-1,1,-3
89289948123,1,0,-1,-3,0,-1,-2,8
89289960131,-3,0,-1,-1,-1,-1,-3,-3
89289960131,29,1,0,-2,0,-1,-2,1
89289969093,-17,-1,0,0,0,0,1,-3
89289969093,5,-3,-2,-1,-2,-2,0,-3
89289983991,7,-1,-2,-1,-3,1,-1,5
89289983991,7,0,-3,-3,0,-1,-3,0
89289985612,0,-4,-1,2,-1,-1,-2,-1
89289985612,-8,-1,0,-1,0,-1,2,-2
89290006477,1,-4,-2,-3,0,-1,-1,3
89290006477,-16,-2,-1,-2,-2,-1,1,21
89290008047,4,2,2,0,0,1,-2,-19
89290008047,-6,0,2,0,-4,0,0,0
89290020077,-3,1,-7,0,-1,-2,-5,-2
89290020077,-3,-3,2,-4,-4,-4,1,4
89290029155,-6,-3,-1,-1,0,0,-1,5
89290029155,5,-1,-4,-3,-4,-5,-7,-4
89290043895,7,2,3,3,4,3,9,6
89290043895,-12,-1,-1,2,2,1,0,-14
89290045511,19,0,-3,-3,-5,-3,2,2
89290045511,-4,-2,1,-1,-1,1,0,-4
89290066477,-11,-4,2,-1,-3,-7,-13,-9
89290066477,-3,2,1,4,4,4,3,-1
89290068057,-1,-2,-8,-4,0,3,3,-1
89290068057,0,-3,-6,-2,0,-1,-2,2
89290088929,-5,-3,-4,-6,-10,-8,-4,-5
89290088929,2,2,-1,0,-13,-11,-8,-8
89290090538,1,3,14,9,17,10,-1,-1
89290090538,5,2,16,4,11,3,7,6
89290103545,-9,-9,-40,-16,-15,-18,-4,-7
89290103545,-6,-4,-2,-2,-8,-27,-8,-8
89290110107,-1,0,-5,-6,-32,1,2,3
89290110107,5,7,10,5,27,34,11,4
89290126516,7,4,16,6,53,34,15,9
89290126516,-4,-2,1,0,-12,38,-1,-1
89290128005,3,1,3,5,4,-63,0,4
89290128005,1,0,-8,-21,-37,7,-3,-3
89290148967,-3,-3,-2,8,8,-18,-12,-8
89290148967,-2,-1,1,13,3,14,15,4
89290150581,-1,-3,4,5,36,24,-6,0
89290150581,-4,-6,-7,-3,-30,-25,-1,-4
89290163387,-3,-1,-6,-12,-40,-35,-19,-6
89290163387,-2,-1,-2,-17,-15,-31,-3,-1
89290170302,-6,-5,7,-16,-43,-52,-16,-4
89290170302,-1,-5,-10,-6,-17,-17,9,2
89290186483,2,1,5,-4,-11,87,26,20
89290186483,3,2,1,15,103,39,8,2
89290188021,4,7,10,27,46,55,20,7
89290188021,-2,-2,-1,17,29,23,-7,0
89290209145,-5,-7,-13,-11,-76,-73,-24,-13
89290209145,-2,-2,-2,-9,-59,-41,-14,-4
89290210636,-6,-5,-10,-13,11,12,5,-1
89290210636,-2,-1,3,3,22,-18,-6,-4
89290223324,1,1,2,1,-10,17,9,-2
89290223324,15,-5,0,-7,4,-7,3,3
89290230062,-42,-3,-6,2,-19,-20,-24,-10
89290230062,-3,-5,-8,-13,-29,-3,3,-1
89290246717,3,1,8,6,27,25,-5,-4
89290246717,-1,-1,0,6,33,5,5,-5
89290248079,4,-2,-9,-14,-26,2,4,-3
89290248079,4,-1,-12,-3,-1,-8,-4,-6
89290269021,-13,-1,4,-2,-2,-13,-5,2
89290269021,-9,-1,1,0,-26,-10,-9,-8
89290270582,9,-2,-3,-5,1,2,1,-2
89290270582,-8,0,1,3,8,20,-7,0
89290283372,9,-1,3,9,45,15,8,-1
89290283372,0,1,0,-1,-13,-1,1,1
89290290401,-5,-1,-4,-3,-24,-23,-9,-3
89290290401,7,3,-2,2,12,5,8,7
89290306701,-3,-1,9,5,11,7,3,-1
89290306701,-14,-1,-5,-4,-3,1,4,-1
89290308119,41,-1,-11,-15,-25,-9,-1,7
89290308119,-1,1,-3,-5,-13,-15,-12,9
89290336461,13,1,17,-2,8,-5,12,-20
89290336461,-14,-2,-1,9,6,2,-19,-7
89290338058,3,-2,3,8,0,9,12,-1
89290338058,-1,-2,-16,-30,2,2,0,6
89290342719,-3,-1,-10,-3,3,-8,-8,3
89290342719,9,-2,0,-7,-20,-5,1,2
89290351638,7,2,3,12,11,9,1,-3
89290351638,-13,-1,8,11,13,1,2,-11
89290366554,-6,0,-2,-1,-6,-2,2,4
89290366554,0,-4,-7,-8,-15,0,2,-6
89290368088,-13,-2,5,5,13,2,-8,1
89290368088,2,4,15,6,3,-4,-4,0
89290389057,-1,-4,-31,-13,-7,-9,-7,-2
89290389057,3,1,5,19,3,5,3,6
89290390564,-20,-7,-24,-6,-2,2,-10,-5
89290390564,5,-7,-31,-44,-18,-16,-8,-12
89290402827,-5,2,11,-3,-1,-1,-5,2
89290402827,0,-4,-21,-13,5,2,-1,6
89290411638,-7,3,8,9,2,3,-2,0
89290411638,10,2,24,14,-5,-5,1,4
89290426502,-3,2,14,13,0,-1,1,1
89290426502,6,0,2,-3,0,3,-3,2
89290427997,6,3,6,-6,-2,5,22,3
89290427997,-6,-3,-2,19,1,0,-16,-5
89290449019,12,0,15,1,-2,-7,-3,2
89290449019,1,1,-17,-4,-1,-1,2,-6
89290450611,-14,-3,1,1,4,2,3,-8
89290450611,-18,-6,-16,-12,-4,1,-5,-12
89290462683,15,2,-28,-2,-2,-6,-7,8
89290462683,10,6,27,3,-1,-2,-10,-18
89290471563,10,3,2,-2,3,3,12,0
89290471563,-12,-1,6,14,1,-3,-6,-2
89290486403,-6,-11,-42,-35,-4,-4,8,-1
89290486403,-9,9,19,24,6,9,23,-10
89290488066,5,1,23,-20,-8,-6,-16,1
89290488066,8,6,15,4,-3,-3,3,1
89290508010,-6,-9,0,11,-9,-8,-4,-7
89290508010,-16,-12,-28,-22,4,4,0,1
89290524731,-1,4,24,29,2,2,-1,0
89290524731,10,-5,-24,2,0,-1,6,-3
89290525550,-18,-1,9,-3,-2,0,-8,7
89290525550,6,-1,-6,-1,-3,-2,-3,3
89290531579,-6,-4,-20,-6,-1,0,-4,3
89290531579,4,-3,14,4,-1,-1,1,2
89290546573,-5,6,20,-1,1,4,7,1
89290546573,3,-6,-29,-5,-4,-6,-6,0
89290548095,-41,4,-3,-5,-1,-1,0,0
89290548095,2,4,7,1,1,3,-5,-4
89290576651,4,-18,12,8,2,1,-3,3
89290576651,-7,6,37,1,-5,-6,7,1
89290578125,6,-4,-11,-7,1,1,0,-1
89290578125,-5,-3,-8,3,-1,7,-1,0
89290591490,3,15,2,4,0,-2,1,0
89290591490,10,2,1,10,3,-2,-5,20
89290593028,-3,-5,14,0,-4,-1,1,-29
89290593028,-10,-11,-39,-24,-7,-10,-7,-5
89290606884,10,7,27,22,-1,1,2,-5
89290606884,-5,-9,-33,-11,-3,0,2,4
89290608536,12,7,12,13,6,2,-3,4
89290608536,-1,-1,18,4,4,0,6,2
89290629179,-4,-1,-6,-3,-1,-1,-3,-4
89290629179,-4,4,29,-1,1,0,-5,-1
89290630634,4,-7,-14,-3,-3,-2,-7,3
89290630634,-3,-1,-3,-2,-1,-4,-1,-6
89290642530,2,-2,-17,-1,0,-1,3,-3
89290642530,-4,1,13,9,-2,-1,-8,8
89290651611,7,-4,-4,14,0,1,-3,0
89290651611,-1,0,0,-40,-9,-4,4,2
89290666631,13,-9,-13,8,0,0,-2,-5
89290666631,-32,-6,-5,-15,-3,1,-1,-4
89290668077,5,5,11,17,5,2,3,2
89290668077,3,3,30,-12,4,0,1,6
89290689141,-8,-7,-4,9,-11,-8,-6,-4
89290689141,1,-1,3,-5,-7,-2,-5,-13
89290690662,-3,-5,-10,-11,1,5,16,9
89290690662,-3,4,1,23,1,-1,-5,-3
89290702660,1,-12,-14,7,3,-1,-6,-4
89290702660,3,6,12,16,-16,1,28,4
89290711660,-4,0,3,2,3,-3,-17,-6
89290711660,4,0,7,14,-6,0,13,-3
89290726563,-5,8,43,-12,12,3,5,11
89290726563,3,-5,-19,20,3,-6,-14,-4
89290728086,9,-5,-29,-12,-1,3,1,0
89290728086,-9,-8,-30,-20,-16,-7,2,-2
89290749060,6,-2,7,20,7,3,1,5
89290749060,-51,-4,22,-21,-10,-1,4,-26
89290750583,2,-1,-14,-16,8,-3,-7,4
89290750583,0,-4,-11,50,16,-2,-12,-4
89290762601,-25,17,13,21,-8,6,3,-4
89290762601,40,-14,-59,-72,-26,-15,2,0
89290771606,4,8,22,11,12,-3,-18,16
89290771606,6,13,23,27,42,23,6,-1
89290786441,-13,-7,44,1,0,6,5,-8
89290786441,1,-5,-59,4,-25,-10,-14,-6
89290788020,-49,-15,-25,-13,-25,-14,2,-5
89290788020,14,1,22,-4,3,-3,3,5
89290808948,5,15,8,9,2,-7,-10,-2
89290808948,6,-4,-9,-52,2,4,-3,3
89290810551,3,-41,-77,-13,-20,-14,0,-15
89290810551,-14,2,-11,-19,-2,-6,-7,-1
89290822549,0,1,34,-17,-1,-3,-15,-11
89290822549,6,1,-23,16,0,-1,-34,-1
89290831573,1,10,18,22,28,16,103,64
89290831573,56,-6,23,6,15,15,-92,-11
89290846692,-27,-7,-34,-9,-4,0,11,13
89290846692,18,8,40,20,2,-8,-10,-1
89290848148,1,7,15,10,-14,-11,-22,-16
89290848148,-6,-9,-2,-11,-17,-5,30,4
89290869103,12,5,-45,-33,-5,-3,1,3
89290869103,-7,-8,-20,24,18,12,-1,-1
89290870647,-7,-4,2,-5,-14,-18,-10,-12
89290870647,-14,6,12,-16,-36,-7,16,2
89290882630,4,-2,6,6,2,-5,-16,-11
89290882630,-6,11,27,8,38,21,22,4
89290891615,14,10,-3,3,-5,11,-17,-13
89290891615,-15,-13,-33,-1,-6,0,7,3
89290906025,1,-2,4,-4,-6,-8,4,2
89290906025,-3,-9,22,12,0,-10,-1,2
89290912828,-2,12,23,2,9,5,-4,-8
89290912828,14,1,-13,9,-4,-6,10,8
89290929032,-35,-11,-22,-17,-9,-3,1,-30
89290929032,3,3,-14,4,2,-4,-18,9
89290930619,4,3,10,-12,-3,1,-23,-17
89290930619,6,4,11,0,-2,1,7,8
89290942732,-5,-6,-8,7,6,-2,-6,-5
89290942732,8,4,27,15,3,5,4,2
89290951573,-4,-4,3,-22,-4,-1,-6,-6
89290951573,-12,-4,-31,-4,-5,-11,-3,-5
89290966052,16,-3,-8,-2,1,4,3,9
89290966052,-8,1,21,6,-2,1,2,-2
89290972854,18,-1,-4,-3,2,4,-5,9
89290972854,8,3,17,13,4,7,32,-6
89290996515,-6,6,-33,-7,-3,-3,-7,4
89290996515,-7,-9,25,1,-1,1,13,14
89290997994,14,5,17,1,4,1,3,-1
89290997994,-6,-8,-23,-5,-3,-2,-10,6
89291011478,26,10,33,5,1,-2,9,14
89291011478,0,1,-4,0,-3,-1,2,2
89291013023,-10,-6,6,-3,-4,0,-4,-4
89291013023,-20,0,-15,-6,1,2,-2,-21
89291025758,-7,-7,-13,-4,-4,-1,-4,15
89291025758,1,4,4,2,2,-3,-3,-11
89291032570,0,0,7,3,-1,2,-10,-7
89291032570,-7,-4,-28,3,0,3,11,4
89291048942,-34,-7,-1,-26,-4,-4,-8,-11
89291048942,14,3,-8,-8,2,-1,0,-16
89291050559,-3,-1,-3,-9,-4,-1,-10,3
89291050559,-13,-10,10,18,-1,-2,0,-5
89291071478,14,-3,4,14,2,4,5,-4
89291071478,-12,1,2,-1,-4,-1,-3,-8
89291073024,7,1,-9,-17,-5,-5,-5,6
89291073024,5,1,17,-2,0,-2,-1,9
89291085727,-12,-5,-24,-1,-4,-2,-8,-46
89291085727,-10,3,19,5,0,0,-2,8
89291092588,14,-4,2,5,0,-1,5,-1
89291092588,-2,4,1,-3,-2,-4,-10,1
89291108957,13,4,-8,2,0,2,-22,2
89291108957,18,-5,12,-4,-3,0,-3,4
89291110538,-7,3,10,4,-3,-9,-15,-11
89291110538,-6,-5,0,-5,0,-5,9,-7
89291131495,0,1,5,3,3,2,-4,6
89291131495,5,5,6,0,-4,-5,-11,-7
89291133115,-7,-12,-38,-19,-7,-1,0,0
89291133115,-6,1,6,5,1,1,4,-1
89291145137,14,0,-5,2,5,1,12,12
89291145137,1,6,7,5,0,7,5,1
89291161656,-12,-6,11,-33,-15,-8,-2,-10
89291161656,-7,-6,-58,-16,-4,-1,0,1
89291168981,3,1,22,-5,-2,0,6,4
89291168981,-9,-18,-75,-6,-3,-5,-4,-6
89291170541,-7,6,35,24,11,4,-3,-1
89291170541,6,3,28,15,3,-5,-14,-3
89291191475,4,3,11,9,-4,0,4,3
89291191475,7,-7,4,-54,-9,-4,-4,-9
89291193082,-12,-1,-50,0,-4,4,12,10
89291193082,0,0,-14,-6,-5,-1,-5,-5
89291206026,0,-1,8,3,15,-2,-2,-4
89291206026,5,15,70,35,32,7,0,0
89291212579,-3,-21,-38,-5,-27,-8,1,4
89291212579,-10,-1,18,0,4,3,5,0
89291229021,8,-1,-1,-5,-1,-3,-4,4
89291229021,-8,-4,1,11,-1,1,-3,-1
89291230625,7,13,19,-4,3,5,5,-2
89291230625,-7,-9,-7,39,-13,-5,-7,-2
89291251474,1,-6,-11,-12,-5,-1,14,5
89291251474,-10,0,-14,-14,-5,-6,-2,1
89291253065,7,8,0,10,15,10,-1,-1
89291253065,0,3,25,-13,-16,-4,-2,-1
89291265314,-2,5,23,6,0,-6,-10,-3
89291265314,-2,6,56,40,0,-2,17,0
89291274144,-8,-17,-93,-63,-22,-9,-17,-10
89291274144,2,10,28,-10,5,1,-5,-18
89291288942,-5,-9,24,26,0,1,-4,3
89291288942,-2,-5,-17,-59,-12,-1,25,6
89291290560,17,2,19,7,-1,-5,-19,-12
89291290560,-1,-1,-6,-1,16,-2,5,10
89291311395,1,6,10,0,3,7,11,-2
89291311395,11,-3,-13,27,1,-1,-9,0
89291312944,-8,-8,-41,-6,-4,4,9,2
89291312944,2,5,27,-18,8,-1,-1,0
89291325076,-8,-10,-57,-7,-9,-1,-24,-4
89291325076,-5,5,30,36,17,8,31,1
89291334103,23,1,22,-3,-25,-9,-13,24
89291334103,-15,1,-4,-15,5,2,-13,-21
89291349159,-5,2,3,-7,-14,-3,12,-2
89291349159,-3,1,-10,-5,1,-4,-26,-13
89291350642,20,-5,0,11,12,1,13,-4
89291350642,-6,-5,-15,7,-13,-5,0,14
89291371421,6,-1,-3,-4,4,0,-3,-5
89291371421,-5,-2,-23,-10,-8,-1,-3,3
89291372965,-13,6,35,23,14,2,6,1
89291372965,3,-4,-4,-3,-5,-2,-6,3
89291385328,-11,-6,-13,-6,-4,2,8,-4
89291385328,0,-7,-37,-16,-9,-7,-10,0
89291394118,-22,7,23,14,9,2,9,-4
89291394118,16,-1,-1,-1,1,2,0,1
89291408918,7,2,7,-2,-4,-3,1,2
89291408918,-5,-3,-11,-5,-9,-3,-2,2
89291410485,-5,2,8,7,10,0,-8,-7
89291410485,-6,-3,-2,0,-4,-1,2,-6
89291431691,1,0,-2,-1,-2,0,0,3
89291431691,0,-6,-16,-8,-5,-1,-7,-1
89291433137,-12,-2,6,8,6,1,3,-5
89291433137,8,3,-2,-5,-2,-1,0,3
89291445158,-4,-4,-5,-2,-3,-3,2,0
89291445158,-6,-3,-5,0,-1,-2,-4,-4
89291454303,6,4,12,3,3,1,1,1
89291454303,-6,-3,4,9,0,-1,0,-2
89291469209,-7,-2,-5,-11,-3,-2,-5,-5
89291469209,2,-8,-10,-1,-3,-4,-5,-2
89291470628,0,25,24,4,0,-2,3,2
89291470628,1,-2,-8,-2,-3,-3,6,2
89291491446,-11,-3,4,3,-1,0,-4,-4
89291491446,-26,-4,-7,-6,-3,-6,0,-2
89291493048,3,-8,-4,1,-1,0,4,-5
89291493048,-10,-2,0,-3,0,-4,-2,-6
89291514130,14,8,3,0,0,3,3,11
89291514130,6,3,1,-1,-2,0,-1,-3
89291515610,-8,-9,-1,4,3,-3,-9,-4
89291515610,-1,1,5,6,0,2,7,10
89291528912,2,-3,-8,-1,-3,-3,-10,6
89291528912,0,-2,-1,1,-1,-1,-4,-27
89291530510,-12,-6,-5,-1,1,1,1,0
89291530510,4,1,-3,-4,-1,0,-4,-1
89291551474,1,-2,-2,4,-1,-1,4,-2
89291551474,5,-1,0,5,1,2,-1,7
89291553069,-4,0,-2,-7,-1,-2,-2,-1
89291553069,-2,-3,-2,1,-3,-3,-2,-2
89291565142,0,-1,-3,-4,-2,-3,0,2
89291565142,-3,0,-1,-2,-2,-2,-1,4
89291574142,3,-4,-2,1,-2,-4,-3,-4
89291574142,2,0,-2,-4,1,2,-8,4
89291589013,-2,-4,-3,1,3,5,7,-2
89291589013,-7,-2,-1,-3,-3,-1,-7,-3
89291590581,0,1,1,4,-2,0,-1,1
89291590581,2,-1,-5,-5,-3,-4,-10,-6
89291611488,-5,-2,0,-4,-4,-2,9,-4
89291611488,4,2,3,2,3,3,-2,3
89291613068,0,-5,-2,0,-1,1,-1,2
89291613068,-1,0,-1,-2,-1,-4,-1,-2
89291625077,-4,0,1,-2,-2,-3,-5,-6
89291625077,6,0,-2,-1,-2,0,4,8
89291634117,-2,-5,-7,-7,-2,-4,0,-4
89291634117,1,-1,1,1,-1,1,3,0
89291648955,-3,1,-3,2,-2,-1,-1,-1
89291648955,1,1,3,1,3,1,2,2
89291650570,-1,-3,-1,2,3,-1,-2,0
89291650570,-1,0,-3,-7,-9,0,-1,-2
89291671432,0,-1,-4,-4,-2,-4,-3,0
89291671432,-3,-2,-3,-1,-2,0,3,2
89291672988,2,0,2,3,2,0,-6,-2
89291672988,-4,0,0,0,0,-1,2,-1
89291685095,2,-3,-2,-1,-7,-7,-8,6
89291685095,-1,-1,-2,-5,-4,-2,0,-3
89291694145,1,4,3,3,8,10,1,-1
89291694145,3,-2,1,1,3,0,1,4
89291708938,-6,-4,0,-2,-5,-4,-8,-7
89291708938,1,-3,2,-1,-4,-6,-2,5
89291710546,-3,-7,-10,-6,-5,-1,6,-1
89291710546,2,5,6,1,5,5,0,-1
89291731431,0,1,1,1,3,0,0,-3
89291731431,-4,1,-1,0,-2,-1,-8,-1
89291732985,-3,-2,0,-3,-4,-6,-5,-5
89291732985,-2,-4,-9,-2,-4,-2,8,-1
89291745091,-5,0,0,-1,3,0,-3,-1
89291745091,1,0,-1,-1,1,2,4,1
89291754103,1,0,-1,-3,-5,-2,0,-1
89291754103,-11,-4,-4,-2,-1,-2,0,-5
89291768929,10,0,1,-2,0,-1,-2,2
89291768929,-10,1,-1,-1,0,-2,-1,-6
89291770511,-11,-1,0,-2,-2,5,-18,-4
89291770511,13,1,-1,-4,-8,-16,9,9
89291791461,-9,0,0,1,4,7,4,-3
89291791461,10,-1,0,3,11,20,7,2
89291793051,7,-2,-1,2,2,1,2,17
89291793051,-30,-1,-2,-4,-5,-4,-20,-41
89291805128,2,-2,-3,-3,-8,-13,8,0
89291805128,5,3,-1,0,-2,-4,1,1
89291814074,-5,2,6,3,2,3,5,4
89291814074,7,-3,-1,-1,-1,-2,-4,5
89291828333,-7,-1,-2,-4,-3,-2,1,1
89291828333,-4,-2,-3,-5,-5,-3,-6,-5
89291835081,-2,-2,0,-1,0,-3,2,-9
89291835081,0,-1,0,3,2,1,-1,7
89291851406,1,-1,-1,-8,-5,4,0,-2
89291851406,-1,-4,-3,2,-2,-2,2,4
89291853037,8,0,-2,0,-4,-9,-8,-6
89291853037,-3,1,5,4,3,1,-5,3
89291873975,3,4,6,9,4,5,8,-1
89291873975,-2,-9,-7,3,-7,-6,-21,-5
89291875533,-9,0,-8,-16,-1,1,44,-2
89291875533,14,-1,0,-2,0,-1,-9,22
89291888331,-6,1,2,-2,1,-3,-2,-18
89291888331,-4,0,10,6,0,-6,-3,3
89291895076,4,-3,-1,5,1,3,-5,-3
89291895076,-9,-6,-17,-7,-3,-1,3,-5
89291911389,3,0,-6,-2,1,-2,2,5
89291911389,-36,-6,-1,-4,-3,-1,1,-21
89291912994,10,-1,2,1,-2,-7,-6,-4
89291912994,-12,-1,2,-3,-2,0,5,3
89291925105,6,5,13,9,0,-1,-11,-7
89291925105,5,0,7,-2,-2,-4,1,-1
89291934025,5,-2,-7,-2,-2,-3,-3,14
89291934025,-14,0,-7,-3,-1,0,-1,-18
89291948264,25,3,0,-3,-1,0,1,13
89291948264,-4,0,-5,-7,-1,2,8,4
89291955203,-8,0,3,1,-1,-4,-8,-10
89291955203,14,-1,4,3,1,2,1,-1
89291971697,-15,-5,-3,0,-1,-5,-8,-3
89291971697,10,0,-4,-6,-2,-2,-2,1
89291973126,-16,-1,0,1,-1,1,-6,4
89291973126,-5,-1,-1,1,-2,2,0,-14
89291994477,-3,-2,-3,-4,-1,0,-3,-1
89291994477,-20,-3,-12,-1,0,-4,4,5
89291996042,37,5,5,-1,0,0,-8,-1
89291996042,-8,-5,-13,-8,-1,-2,-3,-1
89292008508,-7,-6,-5,-3,-1,2,3,5
89292008508,11,1,-1,-2,-1,-2,-3,-1
89292015379,-9,-1,4,4,1,4,10,2
89292015379,7,5,9,3,3,4,-13,1
89292031669,-2,-1,-2,-4,-3,-7,-1,4
89292031669,6,0,0,2,0,1,-3,2
89292033038,-8,-9,-16,-6,-7,-4,-3,-5
89292033038,5,-4,2,1,-1,-1,1,0
89292054006,-5,-4,-6,-1,1,4,-6,-9
89292054006,21,4,2,-2,-2,-3,1,15
89292055606,-55,-5,1,-1,-1,1,-5,-32
89292055606,39,3,0,2,-1,-6,-1,16
89292068533,2,0,-4,-1,0,2,-2,-9
89292068533,-10,-3,3,-1,0,-2,3,3
89292075228,7,4,-3,10,1,-3,-1,4
89292075228,3,-1,-7,-25,-3,-3,-2,-13
89292091725,2,-6,-3,-2,-4,-6,-3,8
89292091725,9,2,2,1,0,1,-2,-5
89292093020,-3,-1,2,1,-2,-1,0,6
89292093020,5,3,13,11,2,3,-3,-15
89292114020,5,2,2,0,-2,-1,2,1
89292114020,-4,0,-7,-1,-1,-1,0,-3
89292115597,10,-5,-11,-9,-3,-1,-1,4
89292115597,-8,-3,3,2,-3,-2,-2,9
89292128368,-10,-3,-2,-3,-1,-1,-7,-3
89292128368,-14,-3,1,3,-2,1,4,7
89292135026,27,5,9,1,3,1,-2,-14
89292135026,-12,-4,1,3,-1,-2,0,4
89292151635,-11,3,-1,1,-1,1,-4,-4
89292151635,10,-7,-9,-7,-4,1,-4,2
89292153073,-14,1,1,-2,-3,-8,-6,-12
89292153073,-11,-4,0,-1,-3,1,15,2
89292173971,15,-2,1,2,0,-3,-18,8
89292173971,-5,-2,-8,-9,0,-2,-3,-5
89292175627,-1,0,6,5,0,2,0,7
89292175627,-4,-2,-7,-2,0,-1,-2,3
89292187847,-12,-2,3,3,-1,-1,4,-12
89292187847,1,2,2,-2,0,2,3,-3
89292196668,3,-1,2,0,1,-2,-5,5
89292196668,0,0,1,3,-1,-1,0,-1
89292211518,2,1,-3,3,2,3,8,2
89292211518,-5,0,2,0,-3,-4,-4,-7
89292213065,16,-3,-3,-3,-1,0,5,1
89292213065,8,2,0,2,0,-1,-2,5
89292234076,-7,-2,-7,-8,-1,-1,12,1
89292234076,-4,-3,-1,-2,-3,-4,-6,-4
89292235561,-13,-2,-8,-3,-2,1,-2,-4
89292235561,22,-3,-2,-1,-3,-6,0,18
89292247696,-3,-2,-5,-6,-1,-1,-1,-6
89292247696,4,-1,1,2,2,-1,-1,-5
89292256614,0,-1,-2,-3,-4,-1,2,7
89292256614,-10,-2,-3,-1,-2,0,-7,2
89292271426,-22,1,0,0,-2,-2,4,-28
89292271426,5,0,-1,0,-2,0,2,3
89292273037,-7,-2,1,-2,0,-2,-6,-2
89292273037,-10,0,-3,1,2,1,1,-6
89292294156,-7,-4,1,1,-1,-1,-7,2
89292294156,10,1,-2,-5,-1,0,7,-1
89292295598,-2,1,10,4,2,0,-10,-1
89292295598,-4,-1,-17,-6,-2,-6,5,-1
89292308357,28,-2,0,-1,-1,-1,-1,15
89292308357,-8,0,0,2,1,1,-1,-2
89292315122,3,-2,0,-3,-1,-1,2,7
89292315122,-3,-2,8,3,-1,1,-4,-13
89292331466,2,-4,-4,-2,-3,-2,-3,-1
89292331466,-2,-1,-4,-6,-1,-3,-2,0
89292332990,-13,-3,-7,-5,-2,-4,1,-2
89292332990,15,0,1,0,-1,1,-4,5
89292354171,-4,2,-2,0,-1,1,2,-3
89292354171,8,-2,5,3,-1,1,-10,3
89292355586,1,-8,-13,-5,-4,-4,11,5
89292355586,-25,1,4,0,-1,-2,-4,-36
89292368582,-1,1,2,0,1,-2,-1,6
89292368582,1,0,0,0,-2,-2,0,-1
89292375190,2,1,0,-1,0,1,-1,-2
89292375190,-3,-2,3,0,0,0,1,7
89292391483,3,-2,-5,-2,-2,-1,0,-2
89292391483,-14,-3,-2,-1,-2,-3,-3,-11
89292393076,-1,-2,-2,1,-2,-3,-3,1
89292393076,-39,-5,-9,-4,-1,-2,-2,-2
89292414031,65,8,4,0,2,-1,3,16
89292414031,-10,-2,-1,-1,-1,0,0,1
89292415621,6,2,5,3,-1,0,-2,0
89292415621,-6,-3,-1,0,-1,1,-1,3
89292427597,-12,-4,-4,-3,-3,-2,-3,-8
89292427597,2,1,-2,-1,0,-2,-2,-4
89292436659,4,2,-1,-1,2,-1,0,3
89292436659,7,-2,-1,0,-1,0,-3,-1
89292451538,-18,-4,-2,-1,-1,-2,2,-3
89292451538,5,1,-2,0,-1,-2,-2,-3
89292453086,-14,-2,1,1,-1,0,-2,-6
89292453086,9,2,3,-1,-1,-1,0,4
89292473959,-3,-5,-4,-4,0,0,0,-2
89292473959,-54,-10,-9,-3,-4,-1,-4,-15
89292475607,27,3,5,1,1,1,-1,0
89292475607,-5,-1,-6,-2,-2,0,4,-1
89292487719,9,-1,1,-1,-1,-1,-2,7
89292487719,4,-1,1,-1,0,0,1,3
89292496648,-3,-1,-2,0,-2,0,0,4
89292496648,-6,-2,2,-2,-1,-1,-3,-8
89292511669,-16,-1,-1,-2,-1,-2,0,-4
89292511669,11,-2,-3,-2,-1,-3,0,2
89292513138,-7,-1,0,-2,0,-2,-2,-3
89292513138,13,1,-2,-2,0,-1,-2,4
89292533906,-15,-7,-8,-6,-4,4,12,-8
89292533906,-20,-2,1,-2,-3,-5,-12,1
89292535513,3,-4,-1,-3,-1,0,-1,-2
89292535513,-1,-3,-2,1,-2,-1,-1,-5
89292547810,-9,1,1,0,0,-1,-1,1
89292547810,2,-1,0,-1,0,0,3,-5
89292556614,-7,-1,-2,-1,-4,-2,-3,-3
89292556614,0,-3,-2,-1,-2,-3,-2,1
89292571588,-5,-1,-2,-1,-1,-2,-5,-7
89292571588,14,0,-3,-3,-1,-1,1,4
89292573098,1,0,-1,-1,-1,-1,-3,4
89292573098,-16,-5,-5,-3,-4,-4,-7,-8
89292593948,5,0,2,-1,-1,-3,6,7
89292593948,-17,0,1,0,0,-1,-3,-31
89292595627,5,-2,-1,-2,0,-1,-2,2
89292595627,-3,-2,0,-2,-1,0,5,3
89292607789,-5,0,2,0,1,-1,-6,-1
89292607789,10,-1,-2,1,-1,-1,0,6
89292616639,-10,-1,0,0,0,-3,0,-5
89292616639,5,0,0,-1,-1,0,3,0
89292631506,-4,-2,0,0,-1,-2,-6,-2
89292631506,12,1,2,1,0,0,4,7
89292633030,-5,-2,-3,-2,-2,-1,-2,-4
89292633030,7,0,2,-1,0,-3,-1,4
89292653915,-10,-2,-3,-1,-2,-1,-3,-3
89292653915,9,1,-1,-1,0,2,1,12
89292660058,0,-3,-4,-3,-2,-1,-3,-4
89292660058,4,0,-1,-1,-1,1,-1,0
89292667524,-10,-2,-1,-3,0,0,-5,-4
89292667524,-1,0,2,1,0,0,7,-1
89292676576,-6,0,2,-2,-2,-1,-3,-3
89292676576,9,-1,-3,0,0,-1,-8,-1
89292691427,4,0,-1,0,0,-2,10,5
89292691427,0,-2,0,-1,-2,0,-4,10
89292693012,-2,-1,-2,0,1,1,1,-3
89292693012,3,1,2,1,-1,-2,0,-1
89292713906,8,1,0,0,-2,0,-6,-8
89292713906,-10,1,-2,-1,1,0,0,8
89292715512,-2,0,0,-2,-1,-1,5,3
89292715512,-8,-3,-3,-2,-1,0,-8,-16
89292727784,3,0,1,1,-1,-1,-3,7
89292727784,3,-3,-2,-1,-2,-2,1,-2
89292736605,2,-1,-1,0,-1,-2,-4,-7
89292736605,2,0,-1,0,-1,0,4,5
89292751689,-3,-1,-2,-1,-1,-1,-2,-1
89292751689,-1,-3,-5,-4,-3,-2,-1,-8
89292753138,2,0,0,0,0,-1,-2,4
89292753138,3,-1,-1,-1,-2,-1,5,11
89292774071,-6,-2,-2,-1,-1,-3,-3,0
89292774071,2,-4,-3,-3,-3,-3,-4,-5
89292775585,0,1,0,0,0,1,0,1
89292775585,2,2,0,-1,1,0,1,-1
89292787855,-3,-1,-3,-1,-1,1,-3,-5
89292787855,0,-1,1,1,-1,0,-1,-3
89292796639,-13,-4,-4,-3,-2,-3,-2,2
89292796639,6,3,4,2,-1,-2,-1,6
89292811651,-6,-8,-7,-4,-3,0,3,9
89292811651,-3,1,2,-1,0,-4,-4,-15
89292813027,-9,-2,0,-1,-1,0,0,-3
89292813027,-5,-3,-1,-1,-2,-3,-3,-1
89292833962,11,1,2,0,-1,0,0,3
89292833962,6,-1,-1,-1,-1,0,2,6
89292835535,1,-1,-1,-2,-2,-2,-1,-3
89292835535,-7,-2,-1,-2,-2,-1,-1,-4
89292847539,-8,-3,0,0,0,-2,-5,-8
89292847539,1,-2,-3,-2,-2,-2,-3,-1
89292856635,2,-1,1,0,0,-1,-1,0
89292856635,-1,0,-3,-1,-1,-2,-3,0
89292871710,-8,-1,1,0,-1,-2,-1,-5
89292871710,-4,-2,0,1,-1,-1,-2,-8
89292873091,2,-3,-4,-2,-3,-1,4,2
89292873091,26,3,2,1,0,-1,0,3
89292894203,-17,-3,-2,-2,-2,-2,-5,-9
89292894203,-4,-1,2,1,-1,-1,-2,1
89292895657,-3,1,0,0,-1,-1,-3,-4
89292895657,-10,-3,-2,-2,-1,-1,-2,-4
89292916444,10,-1,-2,-2,-1,-1,-4,2
89292916444,8,0,-1,1,0,-1,-1,6
89292918004,-3,-2,-1,-3,-3,-2,-6,-2
89292918004,-10,-3,-2,-1,-2,-1,2,-2
89292931449,14,1,3,0,0,0,0,21
89292931449,-2,-2,-6,-2,0,-2,1,-6
89292932977,2,0,-1,2,0,-1,-1,2
89292932977,-7,-2,-3,-2,-2,-1,-1,-1
89292954034,0,1,-1,1,-3,-2,0,0
89292954034,2,-2,-1,-1,-1,0,-1,2
89292955620,4,-1,1,0,0,2,0,1
89292955620,-27,-4,0,0,0,1,-9,-3
89292976453,16,4,0,0,-2,-1,8,0
89292976453,8,0,0,-1,0,-3,-4,-3
89292977993,0,-2,0,1,-1,-2,-1,-4
89292977993,4,-2,0,1,0,-1,0,2
89292991485,-23,-4,-2,-2,-2,-2,-4,-14
89292991485,-6,-2,-1,-3,-2,0,1,-2
89292993087,4,0,-2,-1,0,0,1,3
89292993087,3,-1,-1,-1,-2,-1,-1,-4
89293013969,2,0,-1,0,0,0,-3,-4
89293013969,-2,-2,0,-1,-3,0,2,14
89293015644,7,-3,-4,-3,-4,-2,3,17
89293015644,2,-2,-4,-3,-2,-1,-2,-14
89293036467,-3,0,-1,-1,1,-1,-3,-3
89293036467,-7,-1,-1,0,-1,-1,-1,0
89293038046,-6,0,-2,-1,-1,-2,0,-2
89293038046,7,-2,-4,-2,0,-1,2,9
89293051385,1,0,-2,1,-2,-1,-4,-8
89293051385,0,-1,-2,-2,-2,0,0,5
89293053032,-1,-4,-1,-2,-1,-2,-3,-15
89293053032,-6,-1,2,0,-2,-5,-1,0
89293073939,-8,-2,-3,-1,-1,-1,-3,-5
89293073939,3,-1,-1,-2,-3,-1,0,-1
89293075597,0,-1,0,-2,-2,-1,-2,-6
89293075597,14,1,-3,-2,-1,-1,0,0
89293095621,-10,-4,1,-2,0,-2,0,8
89293095621,-9,-7,-5,-4,-4,-2,-2,-5
89293104149,2,2,0,-1,-1,-2,0,-1
89293104149,3,1,-2,0,-1,0,0,-2
89293110781,3,-1,-2,0,-1,0,-1,7
89293110781,-2,-2,-2,1,0,-2,-1,-4
89293117809,6,2,0,-1,0,-2,-2,-1
89293117809,-3,-3,-2,-1,0,-1,-4,0
89293133967,1,0,0,0,-4,0,0,-4
89293133967,-6,-2,-1,-1,1,-1,0,22
89293135503,9,1,1,1,-1,0,1,2
89293135503,-6,-3,0,-2,0,0,-1,3
89293156691,0,-1,0,-1,0,-2,-1,-6
89293156691,3,0,1,0,-1,-1,0,1
89293158089,-3,-3,-2,-2,-2,-3,-3,0
89293158089,1,0,-2,-2,-1,-1,-2,0
89293171020,0,-2,-1,-1,-1,-2,2,4
89293171020,-3,0,-1,-3,-2,0,-4,-15
89293177571,2,-1,0,-1,1,1,-2,-3
89293177571,-26,-4,-2,0,-1,-3,-3,-8
89293193940,21,4,2,-1,0,-1,-2,3
89293193940,-8,-1,-2,-3,-1,-1,-2,-8
89293195513,-10,0,-3,-2,0,0,-1,-5
89293195513,17,1,0,1,-3,1,0,6
89293216534,-19,-4,-3,0,-1,-3,-3,-6
89293216534,5,-1,0,0,-1,-3,-6,-8
89293218057,1,-2,-3,-1,-1,-4,5,14
89293218057,1,1,0,-2,0,-1,-1,0
89293230844,3,-1,-4,-4,-1,-2,-3,-5
89293230844,2,2,1,1,0,1,-1,-7
89293237915,-8,-5,-2,-1,-3,0,-4,-5
89293237915,-8,-2,-1,-1,-1,-1,1,-3
89293254179,4,-2,-3,-1,-1,-1,1,1
89293254179,0,0,0,0,1,1,0,0
89293255609,-3,0,1,1,-3,-1,1,-4
89293255609,-8,-1,-2,1,-1,-1,0,2
89293276566,5,0,0,-1,-1,-1,-3,-25
89293276566,11,-3,0,-2,0,-1,2,30
89293278122,-14,3,1,1,1,-1,-4,-28
89293278122,15,3,-2,-2,0,1,0,2
89293291040,-9,-2,-3,0,-2,0,0,3
89293291040,4,2,1,-2,-3,-2,-1,-1
89293297656,-7,-4,-3,-1,0,0,1,1
89293297656,-16,-3,-2,-3,-3,-5,-5,-12
89293313972,-1,0,-1,-2,-1,0,1,0
89293313972,-2,-2,-2,0,-1,0,0,-11
89293315531,-5,-3,-1,-1,0,-2,-2,3
89293315531,0,0,1,0,0,-1,-1,-5
89293336683,3,-4,-5,-1,-2,-2,-2,6
89293336683,-20,-1,-1,0,-1,-2,-4,-12
89293338066,25,2,-1,1,-1,0,1,8
89293338066,-3,-4,-4,-2,-1,0,0,2
89293350965,-5,1,1,-3,-2,-2,0,-1
89293350965,-1,0,-2,-1,-2,0,0,-2
89293357803,-3,-2,1,-1,-1,0,-3,2
89293357803,3,0,2,-2,-2,-2,0,6
89293381721,-7,0,-1,0,-1,-3,-1,-13
89293381721,4,-3,-4,-1,-1,-3,0,2
89293382989,-3,-2,-4,-2,-1,1,-1,1
89293382989,-2,-2,-1,-2,-2,-2,-3,0
89293396725,-3,-1,0,-1,-1,0,-3,-4
89293396725,0,0,0,0,-2,-2,0,-1
89293398130,1,-3,-5,-3,-2,-1,-2,-2
89293398130,-3,1,0,-1,-2,-1,2,-8
89293410197,-13,-1,-1,-1,0,-1,-2,-4
89293410197,20,0,-4,-2,-3,-6,-3,5
89293419138,14,2,0,1,-1,-3,0,3
89293419138,-13,-3,-2,-2,-1,0,-1,-7
89293434150,5,-1,-2,-2,-2,0,-2,6
89293434150,-10,-1,1,-1,-1,1,-1,-3
89293435566,-5,1,-1,-1,0,-2,-3,-2
89293435566,8,-1,0,1,-2,-3,0,0
89293456625,-4,-4,-1,-1,1,-1,0,3
89293456625,-5,-3,-2,-1,-1,0,-1,2
89293457989,-3,0,0,-1,-2,0,-1,0
89293457989,-2,0,-3,-4,-1,-2,-1,2
89293470311,0,-1,-1,-1,-1,0,0,2
89293470311,-4,-2,-1,-1,-1,-2,-2,-9
89293479114,-3,-1,-1,-1,-1,-1,1,2
89293479114,0,3,-1,1,0,1,-1,1
89293493971,1,0,1,0,-1,0,-1,3
89293493971,5,3,5,-1,0,2,-1,4
89293495519,-11,-3,-3,0,-2,0,-2,-4
89293495519,-2,-2,2,-1,-4,0,-2,2
89293516653,-14,-2,-1,0,-2,-1,-1,-14
89293516653,13,2,1,0,0,0,-2,3
89293518133,-9,0,-1,-2,1,-1,-2,-5
89293518133,3,0,-1,-1,-2,-1,1,0
89293530163,-3,-1,2,0,1,-1,-1,1
89293530163,-5,-1,-1,-2,-1,-3,-1,-5
89293539120,-3,0,-3,-2,-2,-1,0,-4
89293539120,4,-3,-3,-1,0,-1,-1,-1
89293553997,4,1,-3,-2,-1,-1,-1,4
89293553997,-5,-4,-2,-1,-1,-1,0,-3
89293555573,0,-3,-1,-2,-3,-2,-3,4
89293555573,-2,2,4,1,1,-2,-2,0
89293576400,3,-1,-4,-3,-1,-2,-2,3
89293576400,-4,-3,-1,-2,0,-1,-1,2
89293577959,1,1,2,-1,0,-1,-3,-15
89293577959,0,0,-1,-1,0,-1,-2,-2
89293590034,1,-1,2,-2,-1,-1,1,2
89293590034,0,-1,-4,1,-2,-1,-1,0
89293599135,-3,-3,0,-1,-1,-1,0,1
89293599135,-2,-5,-3,-1,-3,0,-3,-2
89293614147,7,1,-1,-4,0,-1,-1,1
89293614147,-7,-1,-3,-2,-1,-1,-2,-7
89293615792,0,-1,-1,-1,-2,-2,-1,3
89293615792,-1,-2,-1,-2,0,-1,-1,0
89293636409,-2,-1,-1,-2,-1,-1,1,-1
89293636409,-1,0,2,-2,-1,-2,-1,-2
89293638101,-1,-2,-1,-1,-4,-1,-2,1
89293638101,2,-1,-1,-3,1,1,0,0
89293650293,-1,-2,-4,-1,-1,0,0,-1
89293650293,-1,-1,-3,-1,-2,0,-1,-3
89293659131,0,1,2,-1,0,-1,-2,1
89293659131,-3,0,-5,-2,0,-2,-1,-2
89293674194,0,-1,3,1,-2,-3,-3,1
89293674194,-2,-1,-1,0,-1,-2,-2,-4
89293675636,0,0,3,-1,0,-1,-2,1
89293675636,3,3,-6,1,0,-1,2,1
89293696569,-5,-9,-49,-6,-3,-2,-4,-3
89293696569,0,0,2,-1,-2,0,-1,0
89293698025,-2,-2,-3,-1,0,-2,-1,0
89293698025,-1,-1,6,-1,-2,-2,0,1
89293718196,2,1,7,0,-1,1,-1,1
89293718196,-2,-1,-6,1,-1,-1,-1,-2
89293719041,-1,-2,-1,-4,-3,-1,-1,-2
89293719041,1,-3,-1,1,0,0,0,-2
89293733316,-1,0,7,0,1,0,1,0
89293733316,-2,-1,1,-2,-2,0,-2,-2
89293734011,0,-1,4,-1,-1,-1,0,0
89293734011,-1,-1,-4,-2,-3,-2,-2,0
89293755782,1,-1,3,-1,0,-3,-1,1
89293755782,-1,-1,0,-2,1,-2,-1,-1
89293756561,0,0,-6,-2,0,-1,0,-1
89293756561,-3,0,-2,-1,-2,-1,-2,-2
89293778367,0,-1,5,-1,-1,-2,-1,-2
89293778367,-2,-1,0,-1,-2,0,0,0
89293779074,-2,-2,-15,-1,0,-1,-1,1
89293779074,-3,-6,-7,-5,-2,0,-1,-2
89293793553,1,5,29,5,-1,1,1,0
89293793553,2,0,4,-2,-1,-1,-1,-1
89293793997,-5,-3,2,0,1,1,-2,-3
89293793997,-3,-1,-5,-1,-2,-2,-1,-1
89293816036,0,-3,-3,-2,-1,-3,0,-2
89293816036,-3,-2,8,-1,-1,-1,-2,-1
89293816518,-1,0,-1,-2,-2,-2,1,-1
89293816518,-1,-1,2,0,-1,-2,-2,0
89293838298,0,0,-1,-1,-2,-1,-2,0
89293838298,0,0,-7,0,-2,-1,-2,-3
89293838927,-2,0,-3,-1,-3,-1,0,-1
89293838927,-2,-1,-2,1,-2,0,-1,-2
89293853213,-2,0,-2,-2,0,-1,0,-3
89293853213,1,-2,-8,-3,0,-1,0,11
89293853974,0,-1,-1,-2,-2,1,-2,-1
89293853974,-1,0,8,1,-1,-1,0,-1
89293875791,-2,-1,-5,-2,-1,1,-2,-1
89293875791,0,-3,-4,-3,-1,0,-1,-4
89293876545,-2,0,3,0,0,-1,-1,-1
89293876545,0,-1,0,0,0,-1,-1,-1
89293898372,-3,0,-2,-1,-2,0,0,0
89293898372,2,-2,-2,-1,-3,-1,-2,-5
89293899123,1,0,2,-2,0,-1,-1,-1
89293899123,-1,-1,-2,-2,0,1,-3,-3
89293913382,-4,-1,-4,-2,0,-1,-2,0
89293913382,3,2,1,1,-2,-1,0,-5
89293914163,1,-1,1,0,-1,0,-1,-3
89293914163,-2,1,-1,0,1,0,2,5
89293935867,2,-1,0,0,-2,0,-1,-3
89293935867,-3,0,-3,-1,-1,-4,0,0
89293936691,1,-2,-1,-1,-1,-2,-1,-1
89293936691,1,-3,2,-2,0,-1,-2,2
89293958333,0,1,-2,-1,-1,-1,-2,-2
89293958333,-3,-2,-2,0,0,2,0,-1
89293958979,2,0,-1,-1,-2,0,-1,1
89293958979,-2,0,0,-2,-1,-2,-1,-3
89293973574,-1,-1,-1,1,-2,-1,-2,2
89293973574,-4,-3,-2,-1,0,-1,-2,-1
89293974014,-1,-1,-1,-3,-1,-1,-3,0
89293974014,-2,-1,-1,-2,-1,0,-1,-3
89293996063,-1,-1,-3,-1,1,0,0,-2
89293996063,1,-3,-3,-1,-1,0,0,11
89293996656,-2,-1,1,-2,-1,-1,-2,-4
89293996656,2,-2,-2,0,-2,-2,1,-4
89294018250,1,-3,-2,-1,-1,-1,-2,0
89294018250,-2,0,-1,-1,0,-1,-1,-3
89294019017,-2,-2,-2,0,-1,-2,-1,-1
89294019017,-1,1,-1,0,-2,-2,-2,0
89294033277,-5,-3,0,-2,-1,0,-1,-1
89294033277,-2,-1,0,-2,-1,-1,1,-4
89294033950,0,0,-2,-1,-1,-2,-2,-4
89294033950,-2,0,-1,0,-2,-2,-2,-1
89294055960,0,-1,-2,0,-2,-1,-1,-2
89294055960,-3,-2,-1,-1,-2,-2,-2,-3
89294056615,-3,-2,-1,-1,0,-1,2,2
89294056615,-1,-1,0,-2,-1,-2,-2,-2
89294078237,1,-2,-1,-2,-1,-1,-1,-1
89294078237,-3,0,-1,-1,1,1,-1,-2
89294079005,-1,-1,-2,0,-3,-4,-1,0
89294079005,0,0,-3,-1,-1,-1,-2,-2
89294093218,-1,-1,0,-1,0,-1,0,1
89294093218,-3,-4,-2,0,-2,-1,-1,-3
89294094013,-2,-1,-3,0,-1,-2,-1,1
89294094013,-4,-2,-1,-2,-2,1,0,0
89294115744,1,0,-2,-1,1,-3,-4,-1
89294115744,0,-1,-1,-2,-1,-2,-3,-2
89294116523,-1,-1,-1,-2,0,0,0,-1
89294116523,-2,-1,-1,1,-2,-1,0,-1
89294138297,-2,-1,-2,-1,-1,-1,1,-3
89294138297,4,-3,0,-1,-2,-1,-2,10
89294139219,1,-2,1,0,0,-1,-1,-2
89294139219,5,-1,-3,-1,1,-2,-1,2
89294153244,-8,1,-2,-1,-2,-2,-3,-9
89294153244,6,1,0,-1,-3,-1,0,-3
89294154165,0,-2,0,-2,0,-1,0,0
89294154165,-3,-1,0,0,-1,-1,0,1
89294175793,3,-1,-1,-1,0,-1,-1,-1
89294175793,-5,1,0,-3,-1,-2,-2,-6
89294176612,-3,-1,-1,-1,-1,-1,-1,-3
89294176612,-1,-2,-2,-3,1,0,-1,-3
89294198280,-2,0,0,0,-2,0,-2,2
89294198280,-2,0,-2,0,-1,-2,-2,-3
89294199091,1,-2,-1,-1,-2,-1,-1,0
89294199091,-2,-2,0,-3,-1,-1,-1,4
89294214776,1,-2,0,-1,1,1,-3,-1
89294214776,-1,0,-2,-2,-1,0,0,-1
89294215580,-2,0,-1,-1,-2,-1,-2,0
89294215580,0,1,-2,-1,-2,0,-1,-3
89294235738,1,-2,-2,-2,-3,-1,-1,1
89294235738,-1,-2,-2,1,-1,-1,-1,-2
89294236540,-2,-1,0,-1,-2,-1,-2,-6
89294236540,1,0,0,0,0,-1,-4,-1
89294258412,-4,-2,-1,-2,-2,-2,1,0
89294258412,-13,-3,-1,-1,-3,0,-1,-6
89294259159,13,-1,-1,-1,-1,-3,0,-1
89294259159,0,-1,-1,-1,-1,-1,-1,-1
89294273581,0,0,0,-3,-2,0,-1,0
89294273581,-2,0,1,-3,-3,1,-1,0
89294274079,-9,-2,-2,-1,0,1,-2,-1
89294274079,-2,-3,-4,-2,-2,-2,-2,-4
89294295740,2,-2,0,0,-2,3,-1,-1
89294295740,-2,-1,-2,-1,-1,-1,0,-3
89294296647,0,-2,-1,0,-1,-1,-1,1
89294296647,0,-1,1,1,-1,-1,0,-1
89294318426,-4,-1,-1,0,-2,-1,0,-1
89294318426,3,1,0,-1,0,-2,0,-1
89294319098,-4,-1,-1,-3,-1,-2,-2,1
89294319098,-2,-1,0,-2,0,-1,-1,-1
89294333594,-2,-1,-1,-3,-1,-2,-1,-1
89294333594,-1,1,-2,1,-1,-1,-1,0
89294334041,4,1,0,-1,-1,0,-1,2
89294334041,-3,-1,-1,-1,-2,0,-2,-1
89294355982,2,-2,-1,-1,0,-2,1,0
89294355982,0,-1,-2,-2,-2,-2,-2,-1
89294356613,-4,-1,-2,-1,0,-1,0,-4
89294356613,-1,0,-1,-1,-1,0,-2,-2
89294378279,1,2,-2,1,0,0,0,0
89294378279,0,-1,-1,0,-1,-1,0,1
89294379101,-4,-2,-2,0,-1,0,-1,-3
89294379101,-1,-1,-1,-1,-1,-1,0,-5
89294393232,3,-1,0,-2,0,-3,-2,10
89294393232,0,0,-1,-3,1,0,-2,-3
89294394000,0,-1,0,-1,-1,-1,-1,-1
89294394000,-7,-3,0,-1,0,-1,0,-1
89294415988,3,1,1,-1,-1,0,-3,-3
89294415988,1,-1,-1,0,-2,-1,-2,-2
89294416549,-4,-2,-2,-1,0,-1,-1,-1
89294416549,-1,1,-1,-2,-1,-2,0,0
89294438382,-4,-2,-3,0,-3,-1,-1,-4
89294438382,1,-1,-1,-1,-1,-1,1,0
89294439127,-3,-1,-2,-1,-3,-2,-2,-4
89294439127,1,0,1,1,1,-1,1,2
89294452686,0,1,1,0,-1,-2,0,-2
89294452686,3,1,-2,-2,-1,0,-3,-3
89294460813,-3,-3,0,-1,-2,-3,-2,0
89294460813,-1,-3,-4,-2,-4,-3,-3,-3
