timestamp,emg1,emg2,emg3,emg4,emg5,emg6,emg7,emg8
59589430146,-8,-13,-6,-4,-2,-2,-2,2
59589430146,5,8,-1,-3,-1,-1,0,1
59589431117,2,6,-4,-4,-2,-3,-2,0
59589431117,-10,-5,0,2,-2,0,0,-1
59589453367,1,4,0,-1,-1,0,-2,-1
59589453367,-8,-11,-5,-2,-1,0,0,-8
59589454134,2,-4,-4,-1,-2,-1,-2,2
59589454134,-3,-4,1,0,0,-1,-1,0
59589467643,1,5,-4,-3,-2,0,-1,-3
59589467643,-8,-4,0,0,1,-1,0,0
59589468399,2,5,2,-1,-2,0,1,-1
59589468399,0,-1,0,0,-1,-3,0,0
59589490144,-3,-2,-1,0,0,-1,-1,-4
59589490144,0,-3,-3,-3,-2,-1,-1,-2
59589490934,-5,-4,-1,-1,-1,-2,-1,-2
59589490934,-1,-1,-3,-2,0,0,-1,-2
59589513368,-3,-1,1,1,-1,1,-1,-2
59589513368,16,9,0,-1,-2,-1,-1,3
59589514128,-13,-8,-1,-2,-1,-1,0,-4
59589514128,-6,-11,-5,-2,-1,-1,-2,-5
59589526972,-5,3,-2,-2,-2,-1,-2,-13
59589526972,-3,-2,-4,-2,-2,-1,-1,0
59589535197,6,-3,-3,0,2,-1,-2,1
59589535197,2,-1,-2,-3,-1,-2,1,0
59589550181,-4,1,-3,-1,-1,-1,0,0
59589550181,-5,-1,0,0,0,-1,-1,-7
59589550967,-1,3,-1,-1,-1,-1,-2,0
59589550967,3,-1,-1,-4,0,-2,-2,2
59589573582,0,-4,-4,-2,0,0,-2,0
59589573582,-4,0,-2,-1,-1,-2,0,-1
59589574158,-2,-5,-1,0,-5,-1,-2,-2
59589574158,2,8,1,1,0,-2,-1,-2
59589587321,-6,-1,1,1,-3,-2,-1,6
59589587321,-11,-8,1,0,-1,-1,-2,-11
59589595271,6,3,-2,-2,0,-1,0,14
59589595271,-7,-2,-1,1,-1,0,-2,-11
59589610203,4,-2,-4,-3,-1,-4,1,2
59589610203,-9,-3,-1,-2,-1,0,-1,-1
59589610936,1,-1,2,0,-2,-2,-2,-1
59589610936,3,12,-2,-2,-3,0,-3,2
59589633443,1,4,0,1,0,0,-3,-2
59589633443,5,15,3,1,-2,-1,-2,1
59589634171,-4,-6,-2,-1,1,0,-1,-8
59589634171,4,2,0,0,-1,0,-1,1
59589647010,0,-4,-2,0,-1,-1,-1,-3
59589647010,-1,2,-3,-3,-1,-2,-1,-1
59589655253,-2,1,0,-3,-1,-1,-1,0
59589655253,7,-5,1,1,-2,-2,0,3
59589670349,1,1,2,0,-2,-2,0,0
59589670349,-3,-3,0,0,0,-1,-2,-3
59589670977,7,0,0,0,-2,-2,-1,23
59589670977,-22,-3,-1,0,0,1,-1,-26
59589693373,2,-2,0,0,0,-1,0,1
59589693373,-2,-2,0,-2,-1,-1,0,1
59589694073,0,-2,-2,1,2,-1,-1,0
59589694073,7,8,-3,-2,-1,-1,-2,7
59589715951,4,-1,-1,-1,1,0,-1,-1
59589715951,-4,5,1,-1,-3,1,2,-1
59589716630,3,3,-1,1,-2,1,-1,-11
59589716630,2,-8,-1,-1,-1,-1,0,4
59589730108,-5,-5,-2,-3,1,-1,-2,-5
59589730108,5,-5,-5,-1,1,0,-2,3
59589730914,-5,2,-1,-3,-2,0,-1,-7
59589730914,1,-1,2,-3,-3,-1,-1,1
59589753394,10,6,1,-2,-2,-1,-1,2
59589753394,-4,-8,-2,0,-2,-1,1,-1
59589754134,-3,2,-1,0,-2,-1,-2,-5
59589754134,-6,-6,-2,-1,0,-3,0,10
59589766994,3,-4,1,2,-1,-1,0,-3
59589766994,0,-2,-4,-3,-1,-2,-2,3
59589775187,-9,-6,-1,-1,-1,-1,1,-23
59589775187,1,-3,-3,-3,-2,-1,-2,7
59589790160,7,17,4,0,-2,-2,-2,5
59589790160,1,-3,0,0,-1,-1,-2,-3
59589790928,-2,-5,-3,-2,-2,-1,-2,3
59589790928,-2,-5,-3,1,2,-2,-2,-4
59589813575,-3,1,-3,-4,-2,0,-1,-3
59589813575,-2,-4,1,-1,-1,1,-3,0
59589814076,-4,-5,-2,1,-2,-1,-1,-2
59589814076,3,0,-2,0,-1,-2,0,0
59589836079,-10,-10,-3,0,0,0,1,0
59589836079,10,4,-1,-1,-1,-2,2,0
59589836793,-9,-19,-1,-2,0,0,0,-2
59589836793,9,5,-1,-1,-2,1,-1,1
59589850439,-8,-3,-1,-1,-2,0,-1,-4
59589850439,-5,-5,-1,-1,0,0,-1,-1
59589851060,10,5,-2,-2,-1,-2,-1,14
59589851060,-2,9,2,-1,-1,1,-1,-22
59589873591,-6,-12,-5,-2,-2,-1,-1,5
59589873591,-5,0,0,0,-1,-1,0,0
59589874193,14,8,0,-3,-2,-2,-1,8
59589874193,-8,-3,-2,0,-2,-1,-1,1
59589896093,1,3,0,2,1,-1,0,-2
59589896093,-5,-3,-2,-2,-2,-1,-3,-2
59589896714,0,-1,1,-1,0,-1,1,-5
59589896714,5,-5,-1,-1,1,-1,-1,2
59589918633,-3,-1,-4,-5,-1,-1,0,-5
59589918633,0,-5,-2,1,-2,-2,-1,2
59589919165,-7,0,-2,-1,-1,-1,-1,-8
59589919165,-1,2,-2,-4,-2,0,-2,1
59589933520,-2,-3,-2,0,-1,0,-1,0
59589933520,3,2,-1,0,-1,-2,0,-2
59589934128,-3,1,0,-1,-1,-1,-1,-3
59589934128,-5,-5,-2,1,0,-1,0,7
59589955869,6,-2,0,-3,-2,-1,-1,6
59589955869,-4,5,0,-1,-1,0,0,-18
59589956636,-7,-10,0,0,-2,-1,0,-3
59589956636,-7,-14,-5,-2,-2,-2,0,3
59589978608,-2,0,2,-1,0,-1,-3,-2
59589978608,4,6,0,-1,0,1,-1,2
59589979053,-1,6,0,0,0,-1,-1,-4
59589979053,-1,3,-3,1,-3,-1,-1,-3
59589993550,-4,-4,1,1,0,0,-1,-3
59589993550,-5,-7,-2,-4,-1,-3,-1,0
59589994142,-2,-2,-4,-2,-1,0,-1,-1
59589994142,3,0,3,-1,-2,0,-1,2
59590015963,-8,0,-2,1,-2,-1,0,-6
59590015963,6,-1,-2,2,-1,-1,0,7
59590016641,-1,-1,-4,-2,0,0,-1,-2
59590016641,-10,-1,-1,-2,-1,0,-3,-8
59590030372,-1,0,0,-1,0,-1,-2,3
59590030372,-1,-4,-2,1,1,-1,-3,-6
59590030976,-4,1,1,-1,-2,-1,0,-2
59590030976,-1,-11,0,-2,1,-2,-3,3
59590053497,-2,2,-1,-1,0,-2,-1,-5
59590053497,-6,-6,-4,-3,-2,-3,-1,4
59590054203,-2,-5,-2,-4,0,-1,-1,-2
59590054203,2,2,1,1,0,0,-1,0
59590076056,1,-1,-1,-2,0,-3,0,3
59590076056,-4,-4,-2,0,-1,0,0,-1
59590076633,0,0,0,-1,-2,-1,-3,-4
59590076633,2,4,3,-3,-1,-2,0,-1
59590090168,-3,-3,-1,-1,-3,-2,-1,-4
59590090168,-1,0,2,-1,-1,0,0,-1
59590090913,-2,4,-2,-1,-2,-1,-1,0
59590090913,11,7,-3,0,2,-2,-2,0
59590120837,0,-9,-3,-2,-3,-2,-2,-2
59590120837,-4,-1,-1,-3,-1,-3,0,-1
59590121623,0,1,0,0,-1,-2,-2,9
59590121623,-1,-1,-3,-1,-1,-1,0,-8
59590135871,12,2,-5,-3,-2,1,0,16
59590135871,-6,18,2,-1,0,0,-2,-10
59590136646,-3,-1,1,1,-1,-1,0,1
59590136646,-13,-3,-3,-4,-2,-1,-1,-2
59590150202,-1,-4,-1,-2,-2,-4,-1,-1
59590150202,2,-2,-3,-2,-1,0,-1,2
59590150987,3,1,-1,-1,0,-1,0,-4
59590150987,-5,-4,-1,-2,-1,-1,0,-1
59590173400,-6,2,2,0,1,0,1,-6
59590173400,3,-2,2,-1,-2,-1,-1,2
59590174025,-8,-4,-3,-1,-2,-2,1,-6
59590174025,0,-4,0,-2,-3,-1,-1,-3
59590195840,0,-2,1,2,-1,0,0,-4
59590195840,-3,-7,-2,-1,-2,-1,0,0
59590196600,5,-1,-2,-2,0,-2,-2,0
59590196600,-3,0,-1,-1,-1,-2,0,0
59590210143,-3,2,-3,-1,0,-3,-1,-5
59590210143,-3,-5,0,1,0,0,0,-1
59590210978,1,0,-2,-2,-4,-2,-1,-3
59590210978,0,0,-1,-1,-2,-1,-3,-1
59590233349,0,12,-1,0,-1,-1,0,3
59590233349,1,-14,-7,-2,-2,-4,-1,10
59590234120,-4,-4,0,-2,-1,0,-2,-5
59590234120,6,1,0,0,0,0,-1,0
59590255845,-18,-1,-1,-2,-3,-1,-2,-12
59590255845,1,0,1,0,-2,0,0,1
59590256624,-4,-22,-4,0,-1,0,0,0
59590256624,-2,5,0,-1,-3,-2,-2,-2
59590270119,1,-4,-3,-1,0,0,0,0
59590270119,0,-3,-3,-4,-2,-1,0,-3
59590270903,-2,1,-1,-1,1,-2,-1,-2
59590270903,-2,-7,-4,-2,-1,-1,0,0
59590293593,5,1,-1,1,-1,0,0,-2
59590293593,-1,1,1,1,-1,-1,-1,-5
59590294135,3,3,-3,-1,-3,-3,-1,-1
59590294135,-1,-3,-1,-1,-1,-2,-3,1
59590323592,-5,-17,-2,-2,-2,0,-2,-1
59590323592,-2,2,0,-1,-3,-2,-3,5
59590324172,-1,2,0,-1,-1,0,1,-3
59590324172,2,-5,0,1,0,1,-1,-2
59590330366,-1,-3,0,-1,-1,-2,-1,-2
59590330366,2,-1,-2,0,0,1,0,1
59590330938,-9,-3,-3,-2,-1,-1,0,-17
59590330938,0,3,-2,0,-3,-1,2,4
59590353561,0,-1,0,-1,-2,-1,-1,-1
59590353561,1,-1,1,-1,-1,-1,-1,-3
59590354167,1,5,2,1,-1,-2,-2,2
59590354167,-7,1,1,-1,2,0,-2,-3
59590376006,-6,0,-3,2,0,1,0,-3
59590376006,6,-1,1,-1,-2,-1,-1,-1
59590376652,-23,-5,0,-2,0,-2,-2,-11
59590376652,-4,-1,-1,-2,-1,-1,0,-1
59590390225,1,10,-1,-2,1,-1,-1,3
59590390225,-6,-6,-2,-2,-1,-2,-1,-5
59590390983,4,-1,-2,-1,0,1,0,6
59590390983,-3,-22,-3,-2,-3,-2,-1,-1
59590412416,-3,9,0,-2,-2,-1,-1,-4
59590412416,-1,-2,-2,0,-1,-2,-2,-3
59590420204,6,1,0,-2,0,-1,-2,11
59590420204,1,0,-4,-4,-2,-3,-2,-5
59590435827,1,-5,1,-1,-1,1,0,-7
59590435827,-4,-2,0,0,-1,0,0,-1
59590436628,1,2,2,-1,0,-1,-1,6
59590436628,0,7,-1,0,-1,0,-1,-2
59590449566,0,-5,0,2,-1,-3,-2,3
59590449566,-1,3,0,-2,-2,-2,-1,-2
59590457941,2,1,0,1,0,2,-2,-3
59590457941,3,2,1,0,0,-2,0,2
59590473592,8,-8,-1,-1,-2,-1,-1,-3
59590473592,-3,-2,-3,-2,-1,1,-1,2
59590474213,1,-1,1,1,-1,-1,-2,2
59590474213,-5,-17,-2,-4,0,-1,-2,0
59590496097,-3,-3,-2,-3,-3,-3,-2,2
59590496097,-4,0,-1,-1,1,-2,-2,-6
59590496671,0,-1,-1,0,-1,-1,-1,1
59590496671,1,4,-4,-2,-1,-1,1,2
59590509470,-4,1,-2,-3,1,1,-2,-4
59590509470,2,1,0,-1,-2,-2,-2,1
59590525406,-8,3,-3,-2,0,-1,-1,-11
59590525406,0,-1,-3,0,1,-1,-1,2
59590533586,-6,0,1,-2,0,-2,0,-15
59590533586,3,8,-1,0,2,0,0,1
59590534216,20,8,3,0,-2,0,1,5
59590534216,4,4,-2,2,-1,1,-1,1
59590556050,-6,-3,-1,-3,-1,0,-1,0
59590556050,1,1,0,-1,-1,0,-2,1
59590556717,-3,-6,-4,0,-2,-2,-1,-5
59590556717,0,-1,0,0,0,-3,0,-1
59590569524,4,2,-3,-1,-1,-1,-1,2
59590569524,-2,-6,-1,0,0,-2,-1,-6
59590577928,-5,-3,-2,-2,-2,-1,-1,5
59590577928,1,7,2,1,-1,-1,-2,-4
59590593614,-2,0,1,2,0,0,-1,2
59590593614,-1,0,-2,-3,-2,-1,1,-1
59590594154,1,-3,1,-3,-2,-1,-3,1
59590594154,-2,0,0,-1,-2,0,-1,1
59590615823,1,1,1,0,-1,-1,-1,-10
59590615823,-5,-5,-1,0,0,0,0,4
59590616594,7,0,-3,-1,0,-2,-2,0
59590616594,1,4,3,-3,-2,0,0,-2
59590629465,0,-2,-4,-1,-3,-2,-3,5
59590629465,-7,-6,-2,-1,-2,0,-3,0
59590638514,-4,-2,0,1,-2,-3,0,-18
59590638514,-14,2,2,-1,0,-2,-1,-8
59590652252,2,-6,-2,-2,-3,-2,-1,2
59590652252,5,13,1,1,0,-3,-1,0
59590661003,0,-5,-3,-1,-1,-1,-2,6
59590661003,0,-1,-2,0,0,-1,1,0
59590675940,-6,-13,-1,0,-1,-1,-2,-2
59590675940,-1,2,-3,-3,-2,1,-1,-2
59590677508,-3,-3,-2,-2,-3,2,2,1
59590677508,4,-2,0,3,1,-1,-2,-1
59590689689,-1,1,-2,-2,-2,-1,-1,2
59590689689,1,-4,-1,-1,-2,-2,0,-1
59590698554,-2,-6,-3,-2,-1,-2,-3,-4
59590698554,-4,-2,-5,-3,-3,0,-1,0
59590713466,0,1,0,-1,1,-2,0,1
59590713466,6,-2,-2,0,0,-1,-1,13
59590714995,-8,2,0,-2,-1,0,0,-15
59590714995,-2,-5,-4,-3,-3,-1,-1,-1
59590736055,10,4,0,-1,-2,-1,-3,1
59590736055,-8,-5,-1,-1,-2,0,-2,1
59590737478,22,2,1,1,-1,-2,-1,14
59590737478,0,7,1,-1,-1,0,1,-2
59590749546,-7,-16,0,1,0,0,1,0
59590749546,-5,3,-9,-5,-2,-2,1,-6
59590758603,0,3,2,0,0,-1,-2,3
59590758603,0,2,-1,-1,-2,-1,-1,-4
59590773593,2,3,-2,-3,-2,-1,-1,-2
59590773593,-3,-3,2,2,-1,-1,-1,-5
59590775020,-7,-4,-2,-2,-1,-1,0,-1
59590775020,-3,-4,0,-2,-1,-1,-1,2
59590795965,-4,4,-2,-2,-4,1,-2,7
59590795965,0,-4,-1,-1,-2,-1,-1,-5
59590797471,-11,0,-3,-2,-1,-2,-2,-1
59590797471,2,-1,0,-1,0,-1,-1,-1
59590825874,-3,-1,-1,0,-1,-3,-1,-12
59590825874,11,13,-3,0,0,-1,-1,-3
59590827484,-1,-5,-3,-1,-1,0,-3,3
59590827484,6,8,4,3,1,1,-3,-2
59590833505,-3,-2,-1,0,0,-1,0,1
59590833505,15,-1,-1,-2,0,-2,-3,6
59590834980,-11,0,-3,1,1,-1,0,-7
59590834980,0,-5,-2,-1,-1,-2,-3,3
59590856056,-5,1,-2,-3,0,0,1,0
59590856056,1,-4,4,1,-1,0,0,-2
59590857504,3,-1,-2,-2,-3,-1,-1,6
59590857504,-6,-6,-2,-2,-2,0,-1,-2
59590878631,-1,4,0,1,0,-3,-4,4
59590878631,-8,-4,-6,-2,1,1,-1,-6
59590880112,2,-2,-1,-1,-2,-1,-1,-1
59590880112,-2,1,-1,-2,-2,-1,0,-1
59590893579,0,-1,1,-2,-2,-3,-2,-3
59590893579,-7,-2,-1,-1,-1,-1,1,-1
59590894996,-2,2,-1,-1,-2,-3,-3,-1
59590894996,0,-5,0,0,1,-1,-2,2
59590916074,2,0,-2,0,0,-1,1,-3
59590916074,-8,-5,1,-2,-1,-1,-2,-3
59590917475,3,0,0,0,-1,0,-2,1
59590917475,-5,-2,-1,0,-1,-2,-1,-1
59590938418,10,1,-1,1,2,0,-2,0
59590938418,-7,-5,0,-1,0,-1,-3,1
59590940025,-11,-1,0,1,0,-2,0,-25
59590940025,-18,5,-3,-3,-3,0,0,-8
59590952805,0,5,3,0,-1,0,-2,1
59590952805,-1,-1,2,1,0,1,0,-1
59590959722,2,1,-3,-3,-2,-2,0,7
59590959722,8,4,-2,-1,0,-2,-1,-2
59590975898,-1,1,0,-3,-1,-2,1,-7
59590975898,-6,-1,1,-2,-1,0,-1,-4
59590977475,3,2,2,-1,-2,-2,-2,4
59590977475,3,1,-2,0,0,0,-1,-3
59590998610,-5,-3,-4,-2,-2,0,-1,4
59590998610,2,-1,0,-1,-1,-1,-2,-4
59591000042,-2,-2,-3,1,1,-3,-2,2
59591000042,0,-5,1,0,0,-3,0,1
59591012695,-4,-3,0,-1,-1,2,0,0
59591012695,-3,-2,1,0,-2,-2,-2,-2
59591019492,0,-2,-1,-3,-2,-1,0,-1
59591019492,5,-7,-5,0,-1,0,-2,12
59591050942,-3,-3,-3,-2,-2,-2,1,-12
59591050942,-1,-1,-2,-1,-1,-1,0,1
59591052444,-1,-5,-2,-3,-1,-1,-2,2
59591052444,9,0,1,-1,-2,-1,-1,6
59591058540,-2,2,0,-1,0,-2,0,-1
59591058540,-1,-2,-2,0,-1,-1,-1,-2
59591059983,-2,-4,0,-1,0,1,0,0
59591059983,-3,-2,0,-1,-1,-1,-1,-5
59591072885,0,-2,0,0,0,-1,-2,0
59591072885,-7,3,0,-4,-1,-1,-2,-3
59591079584,4,1,-1,-1,-2,-1,-1,1
59591079584,-3,-1,1,-3,-1,1,-2,-7
59591095103,-5,-3,0,0,-1,0,-2,-1
59591095103,-3,5,-2,-2,-1,-1,-1,-4
59591103561,-7,-18,-4,1,-1,-1,-1,-3
59591103561,1,-1,0,-1,1,0,0,-3
59591118476,1,0,-1,2,0,-1,-1,-1
59591118476,5,-1,-2,-1,-3,-1,0,7
59591119991,-5,0,0,-1,0,1,-1,-4
59591119991,0,1,-1,-4,-1,-1,-1,3
59591132936,-1,-4,-5,-2,-1,0,0,-2
59591132936,4,4,2,-2,0,-2,-1,0
59591139447,0,3,-1,0,0,-1,-1,-3
59591139447,-1,-2,-1,-1,-2,-3,-2,-1
59591155780,4,0,2,2,0,0,0,1
59591155780,12,-3,-2,-1,-1,-3,-1,4
59591157658,-12,-18,0,-2,-2,1,1,0
59591157658,-2,1,-1,-1,-1,-1,-1,-4
59591178529,-4,-1,-1,-3,-2,-1,1,-1
59591178529,-7,-7,-1,2,0,-1,-2,-2
59591179923,-1,0,0,-2,0,-2,-1,0
59591179923,-5,-2,1,-2,1,-1,-2,-4
59591192761,-2,-6,-2,-2,-2,-1,-1,-1
59591192761,-5,3,-5,1,-1,-1,-1,-9
59591199533,8,-8,-3,-1,-1,-1,-1,1
59591199533,-5,-1,-2,-1,-2,-1,-1,-3
59591215885,-3,1,-1,-2,-1,0,-2,0
59591215885,-2,-2,-1,-3,-1,-2,0,-1
59591217488,10,10,0,0,-1,0,0,15
59591217488,-7,-3,-1,0,1,-1,1,-14
59591245923,2,-2,-2,0,-2,-1,-2,2
59591245923,0,-1,0,1,0,1,-2,-2
59591247526,1,3,1,-3,-2,-2,-2,-2
59591247526,-1,-3,0,1,-1,-2,-3,3
59591252711,-1,3,-2,-3,-2,-1,-1,0
59591252711,-2,-3,-1,-2,-1,-1,1,-2
59591259562,-1,4,-3,-1,-1,-1,-2,-5
59591259562,0,-5,-3,-1,-2,-1,-2,0
59591275890,-4,-2,2,-1,-2,-1,-1,-3
59591275890,9,-1,-7,-2,-2,-1,-2,0
59591277466,-5,0,1,-1,1,-1,-4,-4
59591277466,1,0,-5,4,-3,-2,-2,-4
59591298463,2,-2,-5,-4,0,-3,-2,2
59591298463,4,7,8,-3,1,-1,1,1
59591299939,0,-2,-6,-5,-2,-1,-1,-4
59591299939,-1,-1,9,-3,3,-2,-1,1
59591312014,-1,1,-3,-6,-2,-2,-1,-1
59591312014,-5,-4,3,2,-3,-1,0,0
59591321063,-3,10,-1,23,-3,-2,-2,-4
59591321063,2,1,5,2,0,-1,1,0
59591335795,0,1,6,30,7,0,1,0
59591335795,3,2,-6,25,-5,-1,-1,-2
59591337400,-6,-3,5,-3,-2,-3,0,-1
59591337400,-3,-5,-5,17,2,-1,0,-1
59591358385,0,-2,-2,-11,1,0,-1,0
59591358385,-7,3,4,8,1,0,1,-2
59591359960,-5,-22,-3,1,-1,-3,0,-3
59591359960,-1,1,-11,-14,-2,0,-2,0
59591372003,0,-1,0,7,4,2,0,-2
59591372003,-3,-2,1,-13,-1,-1,-1,-1
59591380985,3,6,-3,-4,-2,3,-1,0
59591380985,-1,-1,1,-14,-2,-2,0,-1
59591395807,-2,-2,0,12,1,-1,-1,-1
59591395807,-4,-9,-10,-71,-7,-2,-5,-3
59591397414,2,3,-1,1,-7,-3,0,-2
59591397414,2,0,-2,5,2,0,0,0
59591418664,0,0,-4,-1,-2,0,-2,0
59591418664,-3,-4,7,15,1,-2,-1,-2
59591420004,-1,2,0,-15,5,0,0,-2
59591420004,0,1,2,-2,-4,-1,0,1
59591431972,2,1,-10,-11,-7,-6,-2,-2
59591431972,-5,-4,-2,9,1,-1,-1,0
59591441072,-1,1,0,-6,-1,-1,0,-2
59591441072,-4,-2,1,29,1,0,0,-1
59591456081,-1,-1,-2,-24,-1,-1,2,-2
59591456081,0,1,-1,0,4,0,-2,-3
59591457497,-2,-10,-1,-35,-14,-7,-4,-1
59591457497,-2,-1,-1,11,7,8,0,-2
59591478455,-2,-2,0,-2,-4,-1,-3,0
59591478455,0,-3,-3,-1,0,-4,-1,1
59591479920,0,5,1,19,5,3,-3,-1
59591479920,2,-2,-1,-12,-3,-2,-1,1
59591492287,-3,-3,-1,1,-5,4,0,-2
59591492287,-1,1,-2,25,-1,-6,-5,-1
59591501041,0,3,0,-1,1,-3,1,0
59591501041,1,0,-3,-4,-1,1,-1,2
59591515418,0,2,1,0,0,0,3,0
59591515418,-4,-3,-3,-5,-1,-1,-1,-1
59591522260,1,-1,-4,5,-1,-4,-4,-2
59591522260,-4,-2,-1,-11,0,-3,-2,-2
59591538364,0,-1,2,-3,-2,0,0,1
59591538364,0,-4,-1,9,-3,0,0,-6
59591539981,-1,9,1,4,3,4,0,-5
59591539981,1,0,-2,-12,-5,-3,-6,-1
59591552207,-2,0,-3,10,1,-14,-10,-2
59591552207,-1,1,-1,-17,-6,2,6,2
59591561047,0,-1,-3,13,-1,0,0,2
59591561047,-3,-2,-5,6,-1,-1,0,-6
59591575397,-4,-2,3,-5,2,12,2,3
59591575397,2,1,0,-10,0,-19,-3,-2
59591582159,0,-2,0,-3,-6,5,4,0
59591582159,-2,0,2,3,1,0,-4,-4
59591598528,0,-6,-4,-16,-6,-18,-3,-2
59591598528,-5,-3,-2,-3,6,19,-1,-1
59591599949,2,1,-1,0,0,-1,-1,3
59591599949,-4,-21,-6,-8,-3,8,4,0
59591612218,-7,0,-3,0,-7,-11,-5,-6
59591612218,5,5,-1,2,-3,-12,-6,1
59591621066,2,-6,-4,-4,5,6,1,1
59591621066,1,7,0,4,0,-19,-2,-1
59591635480,9,0,4,12,7,19,8,10
59591635480,-1,-5,-3,-1,-4,4,-1,24
59591642035,-6,-1,-4,-1,-2,-4,-3,-13
59591642035,0,8,0,-10,-4,-3,-3,4
59591658636,-2,-14,-1,4,-1,-12,-7,1
59591658636,1,1,1,7,5,11,5,-6
59591660004,-2,-1,0,-9,-4,0,-4,-1
59591660004,3,3,-3,-6,-6,2,6,-1
59591671958,-13,1,-2,-6,2,-6,-11,-7
59591671958,-3,-1,-3,4,-4,-5,1,-4
59591680995,-2,-1,-2,-3,-4,-5,-2,6
59591680995,-1,-1,-1,-2,3,-7,0,-7
59591695228,2,2,-1,-4,0,5,1,1
59591695228,-2,-2,1,16,6,1,1,-3
59591701913,-4,-1,-2,-17,-8,3,2,-3
59591701913,4,-3,0,0,2,-5,-6,30
59591718365,-1,-1,2,1,0,2,-5,-16
59591718365,-4,5,-2,-6,-2,-4,0,-11
59591719976,-3,-4,0,4,1,-2,9,14
59591719976,-2,-1,0,-3,-3,4,-2,-4
59591740881,-10,-4,-4,-5,-5,-1,1,-4
59591740881,2,-3,-2,-1,-2,-13,-3,-4
59591742488,-5,-2,-1,7,2,5,-4,-3
59591742488,-4,-4,-4,-11,1,5,3,-11
59591755216,10,4,2,10,5,3,0,5
59591755216,-2,-3,-2,-3,-6,-3,-5,-5
59591761904,0,1,-2,1,5,-1,-1,-3
59591761904,2,10,4,-2,-6,-9,0,-7
59591778503,6,3,1,1,-1,1,6,8
59591778503,0,-4,-2,-5,-1,-3,1,25
59591779918,1,-3,0,4,-7,-11,1,-13
59591779918,-5,-2,-3,-3,0,10,-11,-9
59591800850,8,0,-4,-5,-3,-9,-5,-7
59591800850,2,-4,-2,0,2,16,7,9
59591802453,-1,4,2,3,6,-5,-9,-3
59591802453,2,3,2,3,-5,2,12,4
59591815374,-1,-4,-2,-6,-6,1,1,4
59591815374,1,2,-1,2,1,-12,-11,-13
59591822243,1,-1,-1,-3,-6,-9,-3,-5
59591822243,-6,-7,-1,8,-4,-16,1,-11
59591838683,-2,-1,0,-1,7,22,2,3
59591838683,3,11,6,3,1,-16,-7,-12
59591840098,-1,-3,-3,4,3,20,9,8
59591840098,-4,-4,-5,-12,-5,-8,-7,-2
59591860859,-9,-1,-2,1,-7,-7,1,-3
59591860859,1,1,-6,-13,-5,1,2,-7
59591862493,0,-1,0,-3,6,18,-6,-28
59591862493,-1,-1,5,20,4,-4,0,5
59591874702,-10,-5,-5,-19,-3,-2,5,0
59591874702,-6,-4,1,13,-4,-2,-11,-8
59591883558,1,0,-3,-6,-6,-1,3,6
59591883558,-4,-3,-2,2,1,5,0,2
59591898484,4,3,-2,3,1,-28,-7,-12
59591898484,-3,-2,-3,-7,-2,20,1,2
59591900032,0,-13,-2,17,1,-23,0,14
59591900032,-1,2,-3,-24,2,19,-4,-9
59591921037,1,1,2,5,-1,-1,0,3
59591921037,0,0,2,-12,0,6,9,-3
59591922566,0,0,-4,0,-1,-9,-8,0
59591922566,2,-3,-4,-1,-8,-3,-4,-3
59591934680,-4,-5,-4,-4,-3,-1,-8,-3
59591934680,-4,-7,-2,4,2,9,7,-3
59591943535,-6,1,2,0,7,-1,2,-1
59591943535,11,1,0,0,-7,-2,-6,40
59591958510,-5,2,3,4,-6,-17,-5,-4
59591958510,0,2,1,-1,-7,11,4,6
59591960009,-7,-10,1,-3,11,13,0,1
59591960009,0,0,1,2,0,-14,1,2
59591980892,2,-2,0,2,-8,7,-1,-5
59591980892,0,-3,-3,-4,0,-16,-6,-1
59591982476,-2,3,-3,-6,-15,9,-4,3
59591982476,-8,-1,2,-1,4,-19,-2,-15
59591994605,-2,-1,-2,-2,-2,0,-3,-2
59591994605,-2,-3,-4,5,13,10,2,1
59592003504,5,14,-1,-6,0,-11,-9,-14
59592003504,0,-6,0,1,-9,4,6,-5
59592018442,3,9,-3,6,5,8,1,-3
59592018442,-7,-13,-9,-20,-12,-15,0,3
59592020017,0,3,-1,5,2,-1,-5,-3
59592020017,1,5,-2,15,-1,2,-6,-1
59592040920,-3,-2,-4,-18,-6,-2,5,2
59592040920,0,2,1,-5,-3,7,-1,0
59592042451,-2,-4,-2,8,-10,-25,-8,-1
59592042451,-11,-6,-6,-11,5,20,1,-47
59592063353,1,-6,0,13,-1,-10,-1,5
59592063353,-1,1,0,0,3,-3,-2,-7
59592064916,3,-2,0,5,-2,-19,6,14
59592064916,4,6,2,6,12,18,-3,3
59592078423,4,0,-6,-11,-4,12,0,-9
59592078423,-4,-2,-4,-11,-9,-17,-2,4
59592080040,6,4,5,-8,-1,-1,-1,0
59592080040,1,4,4,7,-3,-14,11,12
59592100876,-4,-13,-3,-17,8,10,-9,2
59592100876,-1,3,1,-13,0,1,-7,-12
59592102537,-2,-1,-1,-17,-13,5,-4,2
59592102537,1,1,-4,6,10,-18,4,10
59592114531,0,0,-2,-2,-8,5,-4,-12
59592114531,-1,-4,0,23,7,-16,-2,8
59592123515,6,8,0,-13,3,17,2,-2
59592123515,0,-12,-4,0,-3,1,-7,-6
59592138351,-1,1,3,26,1,-3,3,10
59592138351,-5,-3,-4,-9,-7,-7,-2,-10
59592144689,1,0,-6,9,2,-1,-9,15
59592144689,-12,-9,-2,3,-7,-16,-2,-3
59592161093,-15,-19,0,-1,8,16,2,5
59592161093,0,-1,3,17,-10,1,6,-1
59592162504,-2,-3,0,-19,-7,-7,-6,-3
59592162504,8,0,-7,-1,-3,-19,-19,-9
59592174708,-9,1,-2,-18,4,6,8,-10
59592174708,-2,-4,-4,-29,-4,18,-3,3
59592183523,-4,-8,-4,28,10,-14,18,-1
59592183523,7,2,5,-10,-10,16,-7,1
59592198399,7,4,-4,22,-4,-12,0,4
59592198399,3,2,2,-13,2,-34,1,3
59592199911,-9,-1,-3,24,0,24,-18,-15
59592199911,-1,1,-2,3,2,10,16,9
59592220840,6,1,1,0,-9,-7,-7,4
59592220840,-2,1,5,32,-1,-5,-10,-9
59592222452,-1,-5,-3,-11,-6,-25,-9,-3
59592222452,-4,-1,3,-6,5,12,5,1
59592234560,2,0,5,3,3,-1,1,17
59592234560,-3,-17,-2,1,8,14,-1,-3
59592243506,-3,0,5,-6,3,-13,-10,-21
59592243506,-1,1,-4,9,4,9,5,13
59592266078,-1,0,-1,3,1,1,2,5
59592266078,3,3,-5,-38,-10,-3,-5,-3
59592267464,-2,0,1,5,9,2,10,6
59592267464,-3,-3,1,-21,-13,-4,-5,-4
59592281076,-3,3,-1,16,3,-3,-10,-14
59592281076,-3,-17,-1,9,-2,-7,5,6
59592282530,7,4,-3,-22,-2,17,-5,5
59592282530,14,2,3,-3,3,-7,-16,-11
59592294710,-10,-7,-5,-25,-11,-1,20,2
59592294710,-1,5,3,11,5,0,2,-31
59592303530,1,-4,-6,-19,-11,2,7,7
59592303530,4,10,0,32,-2,-21,-11,-1
59592318597,7,6,6,-6,13,2,-3,7
59592318597,-9,4,-1,-2,-4,31,-1,-13
59592319989,-9,-17,5,7,-5,-23,-18,9
59592319989,-4,1,-3,-28,-1,2,17,-10
59592341051,-10,2,-2,-3,-3,9,-8,-28
59592341051,1,5,-5,3,-10,-19,-4,5
59592342478,-10,-3,-17,-11,9,20,2,-44
59592342478,2,-4,3,-3,-8,-9,-8,21
59592354769,9,-2,-3,-5,9,10,8,6
59592354769,-27,-1,-1,3,2,0,-8,9
59592363508,15,5,-6,0,-6,-10,10,16
59592363508,-9,-5,3,-2,2,7,-4,-14
59592378385,4,3,-1,-2,-8,-21,0,-11
59592378385,-5,4,-7,9,7,3,-16,22
59592379974,-9,-7,1,1,-3,-1,7,19
59592379974,5,-1,-4,-7,1,4,6,23
59592400822,19,10,5,-2,-6,-12,-21,-34
59592400822,-9,-18,1,-4,1,8,23,57
59592402406,-7,-1,8,9,4,-13,-11,-21
59592402406,0,0,-5,-11,1,28,7,0
59592414517,9,-4,2,9,3,-8,1,-21
59592414517,4,0,-5,-2,-12,-23,-24,-3
59592423472,-16,2,3,-2,3,12,6,-43
59592423472,-11,-6,-3,1,-5,-8,-8,-17
59592437640,-10,-4,-6,-5,0,6,17,31
59592437640,-1,3,0,-1,3,3,-22,-94
59592444426,16,5,3,1,-3,1,26,27
59592444426,15,-2,-8,3,7,9,43,35
59592460986,-8,-5,5,0,-5,-4,-4,-39
59592460986,11,5,-2,1,-3,-16,21,55
59592462552,-1,3,2,-10,-1,2,-18,-34
59592462552,-33,-2,-4,-4,-5,-4,-8,-90
59592474560,9,4,-1,10,1,-10,-6,6
59592474560,0,2,-3,-4,0,1,25,5
59592491042,3,-1,-2,3,3,5,50,-12
59592491042,6,4,3,-5,-2,0,9,66
59592497797,0,-7,0,-8,-4,4,-32,-26
59592497797,2,7,5,5,10,13,0,40
59592504692,-9,-7,-4,-6,-17,-18,-9,-15
59592504692,11,-1,0,3,5,-7,4,-18
59592520988,-4,1,5,3,7,14,5,-7
59592520988,7,-5,-5,1,-8,-5,-16,-22
59592522486,2,4,-3,2,3,12,3,42
59592522486,-11,-13,-1,-3,-3,-11,-18,-4
59592534649,-9,-1,-3,-3,-7,-13,20,-3
59592534649,-11,2,2,-2,2,2,-18,-32
59592543468,0,-2,-4,5,-2,7,-10,38
59592543468,-3,1,2,3,7,-4,-15,-32
59592557891,-3,-1,-5,-7,1,11,5,48
59592557891,1,-5,-2,1,-6,-7,-8,-19
59592564714,23,1,-1,0,1,1,23,49
59592564714,-3,-1,-3,-2,-6,-5,6,8
59592582200,1,10,-5,0,0,3,18,18
59592582200,1,-1,3,2,2,7,-1,-20
59592583863,-3,0,2,-5,-2,-5,-7,8
59592583863,0,1,-4,-2,-5,9,-25,17
59592594465,4,1,0,-7,-1,-28,0,39
59592594465,4,1,1,0,1,15,11,-20
59592603526,-19,-2,0,-1,-10,-13,-22,36
59592603526,6,2,3,1,7,9,10,-9
59592617968,-10,-6,-2,1,11,27,-44,-57
59592617968,-2,1,0,-3,-2,-19,4,-2
59592624731,-4,1,-1,-2,-9,-1,-24,-34
59592624731,-21,-3,1,6,0,-18,-22,-2
59592641086,1,-8,0,-2,-5,16,23,23
59592641086,-1,-3,-7,2,4,7,0,-4
59592642501,0,2,0,-1,1,-5,-22,-24
59592642501,0,-3,-4,-5,-12,-9,-2,4
59592654776,-8,-2,-2,1,-2,-12,-1,-15
59592654776,-2,-7,-2,-3,-1,-1,-10,-42
59592663518,8,0,0,3,2,11,8,2
59592663518,7,2,0,0,5,-6,8,32
59592678466,-12,-1,-1,-3,-7,-3,-4,-31
59592678466,38,-2,-5,-4,-4,3,14,100
59592680009,3,-2,1,1,5,12,1,-24
59592680009,-4,0,-2,-3,0,-8,-5,-8
59592700970,3,0,-3,-2,-3,-9,-1,10
59592700970,-12,2,-2,-4,-2,2,-3,-3
59592702493,-6,-8,0,1,4,-1,1,-18
59592702493,10,-7,-8,-8,-1,14,-4,14
59592723384,-8,-2,-2,-3,-8,-21,-2,9
59592723384,3,3,-2,-1,-1,2,-5,14
59592724877,0,0,-1,-4,-4,-8,16,19
59592724877,-8,2,4,1,-5,-1,-8,-33
59592738336,3,-3,-3,-3,-2,-10,-9,10
59592738336,-5,-2,4,4,4,7,8,-7
59592739927,0,2,-2,-2,-4,-6,6,-6
59592739927,0,-1,0,-1,-2,4,6,13
59592761090,13,4,-2,-2,-2,-2,-5,45
59592761090,8,3,5,-1,-3,-13,2,32
59592762536,-3,-1,3,-1,-5,-11,-14,-11
59592762536,0,2,-2,7,9,20,8,-7
59592783620,1,-1,2,-5,9,13,6,-2
59592783620,-11,-2,0,6,-3,6,-10,-28
59592785026,1,-1,-3,-3,-5,-6,3,16
59592785026,-5,-1,0,9,-8,-27,-14,-7
59592798488,-3,-3,-7,-10,8,34,6,-12
59592798488,-2,-4,-2,-11,5,-15,6,-6
59592799939,0,0,0,7,1,1,0,-17
59592799939,-4,-3,-2,-2,-25,-6,-2,-4
59592821066,-4,-3,-1,8,8,-4,-9,-2
59592821066,-2,-1,-4,10,10,-2,3,-10
59592822478,-3,-12,-1,-6,-6,1,-12,-11
59592822478,-2,-1,-3,-10,-1,-5,10,0
59592843534,-3,-2,-1,1,-12,3,4,20
59592843534,-5,-3,-5,-10,-9,-2,-6,-11
59592844910,2,5,-1,-10,5,-4,-3,-7
59592844910,0,-4,2,21,-2,-4,-2,0
59592856972,-13,-8,0,-3,-8,-6,-6,-21
59592856972,2,1,-7,24,6,-6,0,-2
59592865974,-3,0,1,-44,2,14,-1,9
59592865974,1,5,3,13,9,8,-1,-16
59592881087,-4,-1,-6,-1,-8,-31,-7,-5
59592881087,-2,-10,9,8,1,11,0,-4
59592882539,0,-2,-14,4,2,4,3,-1
59592882539,1,0,-2,-3,4,20,-4,1
59592903373,0,0,4,-2,-2,-21,0,-12
59592903373,4,2,2,-17,-12,-6,-5,12
59592904908,-1,0,0,6,12,16,1,4
59592904908,0,-1,4,8,9,9,1,1
59592917200,1,0,-2,4,-6,-1,-6,-9
59592917200,-7,0,-3,-7,-10,-14,-12,-10
59592926006,-1,2,-5,5,-1,-23,-1,1
59592926006,-5,0,-2,-14,-4,-8,-6,-35
59592940947,2,-1,-1,-11,0,-8,2,-3
59592940947,-4,-1,-1,-2,6,23,1,-6
59592942533,-6,-17,-2,-3,-3,1,2,-2
59592942533,-4,-1,-3,10,-13,-31,-11,-8
59592963586,-2,1,2,1,7,37,3,-5
59592963586,3,0,-2,-5,2,-14,0,-7
59592965007,-2,3,3,15,-4,-3,0,4
59592965007,-5,-3,-8,-21,-2,-4,-3,18
59592977225,0,-1,2,3,-10,-14,-5,-9
59592977225,-3,0,-4,2,2,17,-1,5
59592985966,1,2,5,5,5,-2,1,2
59592985966,9,3,-3,-8,1,-11,-1,-13
59593000894,13,1,-6,3,-3,29,8,53
59593000894,0,1,0,1,0,-26,-3,-13
59593002444,-5,-1,-5,2,-15,-17,-4,-10
59593002444,-5,-2,-4,-9,-2,0,6,2
59593023395,-7,-3,1,10,12,18,5,-18
59593023395,4,-11,4,2,-2,0,-3,5
59593024987,2,1,3,-4,-9,4,-2,6
59593024987,-1,-2,4,-6,5,6,0,7
59593037207,1,0,1,0,-5,-24,5,-1
59593037207,-6,0,-3,-16,-8,21,0,3
59593046064,-7,1,2,16,8,-9,-6,-23
59593046064,1,-3,1,6,0,17,4,13
59593061120,-2,0,-2,1,0,-28,-8,-12
59593061120,-1,2,1,-4,0,3,8,1
59593062484,3,1,2,-7,-6,1,-6,-5
59593062484,-2,0,-1,-10,-7,7,-2,1
59593083469,-18,-4,-5,-11,-2,-10,-6,-31
59593083469,4,4,2,4,2,7,-1,-4
59593084898,-1,0,0,4,-4,-16,1,-4
59593084898,-6,-4,-3,-1,7,16,3,35
59593097187,-2,0,-1,-4,-6,-3,-10,-15
59593097187,-3,-1,-4,-2,-4,-16,3,1
59593105913,-2,0,-1,0,3,8,-15,-16
59593105913,-2,-2,-1,-7,-5,-11,-1,0
59593120843,-1,1,-2,-3,-2,7,0,-1
59593120843,-2,13,1,13,-3,-12,-8,-4
59593122457,3,-1,-3,-5,3,8,8,-2
59593122457,7,-1,-5,1,-3,-13,5,27
59593143505,3,0,3,6,3,6,-3,8
59593143505,-3,1,1,-1,0,9,-1,0
59593145001,0,-1,0,2,0,-10,-5,3
59593145001,-1,-1,3,-2,5,8,7,-10
59593157172,-12,-4,-3,-9,-8,-15,-10,-21
59593157172,-4,-7,-7,-3,-1,3,6,2
59593165963,-3,-1,-1,-2,-4,7,-1,-2
59593165963,1,-1,1,2,3,-14,-8,-10
59593195914,6,2,0,-3,1,9,9,20
59593195914,-7,-2,3,-6,-2,-7,-9,-33
59593197452,2,-3,-8,-5,-6,1,1,10
59593197452,-3,-1,0,0,1,9,-1,-14
59593203604,4,-1,0,-1,0,-14,8,5
59593203604,-3,-4,-5,-8,-2,-2,-1,-3
59593205040,2,0,-2,17,2,8,2,11
59593205040,-6,3,0,-2,-8,-10,-6,1
59593217219,5,2,-2,-6,7,-12,1,3
59593217219,3,-2,1,6,2,15,13,24
59593225990,-3,-1,2,-13,0,0,-2,1
59593225990,4,0,-2,1,-4,1,-2,-12
59593240813,0,-2,-1,-15,-4,1,-5,5
59593240813,1,-1,-2,0,-4,-13,-10,5
59593242406,-6,1,-3,-1,-2,12,8,-11
59593242406,-5,-3,1,-2,-1,1,-4,-1
59593263575,2,-1,-2,2,3,0,4,4
59593263575,-2,0,1,-2,2,3,-3,-11
59593264950,0,-1,-2,0,0,-1,-1,5
59593264950,-3,-3,-4,-3,-3,4,-1,-6
59593277273,-3,-3,-4,4,-3,-10,-1,0
59593277273,-6,-4,-1,-3,-4,-19,-10,-1
59593286021,0,-1,0,-4,2,7,10,2
59593286021,1,1,0,-2,2,3,-7,-5
59593301043,-4,1,0,6,0,7,-11,-47
59593301043,-1,-4,-7,-1,-4,-11,4,2
59593302466,-3,2,-1,-7,-7,-8,0,-6
59593302466,-3,-15,0,1,6,4,1,-10
59593323618,-1,0,0,1,-4,12,1,14
59593323618,1,0,1,-2,-1,-2,5,1
59593325004,-1,-2,-2,1,1,1,-8,0
59593325004,3,2,-2,-7,-5,-7,0,-8
59593337254,-2,-2,0,4,-3,-11,-5,11
59593337254,-1,-3,-1,-1,-1,5,0,0
59593346023,-4,-1,-2,-1,4,4,-3,11
59593346023,-2,4,-1,-3,-2,-6,2,1
59593361083,9,-3,-1,-5,-1,8,3,26
59593361083,5,4,-2,-3,-1,-14,1,1
59593362470,-3,-2,-1,2,-2,17,-3,-6
59593362470,-2,1,2,7,5,-17,-12,-9
59593383330,-8,-3,-3,-12,-3,-3,7,5
59593383330,3,0,2,0,1,23,4,1
59593384929,0,-3,0,-8,-5,-5,-13,-17
59593384929,2,0,-4,1,-5,1,6,14
59593397148,4,1,0,4,-1,-13,-6,-4
59593397148,-2,-1,-1,-1,1,-1,-2,-2
59593406023,-3,-1,-3,1,3,-4,-10,-15
59593406023,-2,1,0,-3,-1,7,12,2
59593420328,7,3,2,2,0,3,-1,10
59593420328,-1,-2,-1,0,-4,-5,-2,3
59593426951,-2,-3,-1,0,-1,-8,-13,-3
59593426951,-2,-3,-4,-3,-3,0,7,-3
59593451039,-2,-2,-3,-5,-3,3,-7,2
59593451039,-3,0,1,3,1,-1,0,-13
59593452491,4,0,-1,11,-1,0,4,11
59593452491,-2,-2,-3,-1,0,-6,-1,3
59593457105,-6,0,-1,2,-4,-2,-2,-9
59593457105,0,-1,-3,-9,-2,4,-4,-1
59593465978,-3,-2,2,4,-2,-8,0,-10
59593465978,-2,0,-1,-16,-3,-4,-5,2
59593480212,-4,-2,-2,9,-2,1,-4,-12
59593480212,1,-2,-1,-2,1,5,5,10
59593486957,2,0,1,-5,2,-2,9,10
59593486957,2,12,2,2,-1,-1,-3,-30
59593503348,3,-2,-2,-1,-2,0,-4,-4
59593503348,-1,1,-2,2,-4,-3,1,21
59593505097,-3,-6,-1,-1,2,1,3,5
59593505097,1,0,-1,-1,-1,7,-2,5
59593526073,-2,0,4,-5,-2,-13,-2,0
59593526073,-4,-2,-3,4,0,-7,-5,-14
59593527592,5,5,-1,-1,0,8,0,3
59593527592,4,-3,0,0,2,4,5,14
59593540324,1,-3,-3,0,-3,1,-1,0
59593540324,-6,-6,-3,-5,-3,-8,-8,-10
59593547041,0,0,1,-10,3,8,7,4
59593547041,-2,-5,-1,5,-3,-13,-7,4
59593563548,7,-1,-1,-1,-1,5,2,5
59593563548,2,0,0,0,-1,0,-4,0
59593564981,-2,-1,-5,-9,-3,-4,2,-10
59593564981,-3,-5,-3,7,-2,3,0,4
59593577208,-1,2,-3,-6,2,0,0,-7
59593577208,-2,-2,-1,-6,-1,3,-2,-3
59593586015,0,-2,-1,-3,-3,-6,-1,-3
59593586015,-1,1,0,12,-1,-3,-4,2
59593600246,-10,-18,-3,-10,1,0,2,-4
59593600246,3,0,0,4,0,6,-1,9
59593607269,2,1,-3,1,-3,-6,1,10
59593607269,-2,-2,-2,-8,-3,-6,-2,-6
59593623438,3,6,5,8,3,5,0,-6
59593623438,15,3,1,-3,-1,0,5,4
59593624986,-8,-2,-1,-8,-4,-6,-5,-8
59593624986,2,-2,0,-2,1,0,0,3
59593645812,-9,0,-3,-2,-1,2,0,-19
59593645812,-4,-3,-2,-2,1,-2,1,-3
59593647466,-2,1,-1,-3,-2,-4,-1,6
59593647466,-1,-3,-1,2,0,0,-2,-6
59593660904,0,0,-1,-4,-1,1,-2,9
59593660904,-5,0,-2,0,0,-1,-1,-1
59593668652,-1,-2,0,4,0,-2,-3,-7
59593668652,-3,1,-1,10,2,0,-3,3
59593683423,-1,-1,-4,-37,-5,0,2,5
59593683423,-9,-21,0,2,-1,-1,-2,-4
59593684947,-2,-1,-2,-7,-1,-2,-1,5
59593684947,2,0,-2,3,-1,-2,-3,2
59593705923,-1,4,0,19,2,0,2,3
59593705923,-3,0,-2,-21,-10,-1,-2,-8
59593707483,-1,0,0,-3,0,-4,-2,-2
59593707483,-3,-3,0,14,3,-3,-3,-2
59593719464,-3,-1,-6,-29,-6,0,-1,-3
59593719464,1,2,0,13,3,-3,0,3
59593728523,-2,-5,-5,1,-5,-3,-2,-5
59593728523,11,3,-1,-13,-4,-1,0,6
59593743539,-3,0,3,25,2,-1,-1,-2
59593743539,1,-1,-5,-17,-3,-1,-2,-7
59593744985,-1,1,-2,-1,1,0,-2,4
59593744985,-1,0,-1,1,-1,0,-1,-5
59593765812,1,0,-4,-1,-1,-3,-4,-1
59593765812,-1,-2,3,4,0,-1,0,-3
59593767427,7,-2,0,14,0,-2,-1,-1
59593767427,4,5,2,-19,0,0,1,3
59593779513,4,-1,-1,22,-4,-1,-1,-10
59593779513,-4,7,-2,6,0,2,-3,-1
59593788523,2,1,1,-1,3,2,1,4
59593788523,-8,-7,-3,-14,-6,-2,1,-2
59593803527,-3,-3,-1,5,2,-1,-3,3
59593803527,2,1,0,-11,1,0,-1,-2
59593804985,-1,-5,-3,18,-4,-4,-1,3
59593804985,3,10,-2,-18,-3,-4,-4,-5
59593826035,-2,-2,-2,5,-2,-1,-1,-1
59593826035,-9,-3,-2,18,1,0,-3,-7
59593827473,8,4,1,2,2,-1,-1,3
59593827473,-3,0,-1,-16,-3,0,-2,-9
59593839609,-1,-1,-1,13,1,-2,3,9
59593839609,-1,-1,-2,-4,-1,-2,-2,2
59593848568,1,-2,1,3,-2,-2,-2,-7
59593848568,0,-3,-3,-10,-3,-2,0,-2
59593863683,4,-4,2,22,3,-2,-3,-4
59593863683,7,1,1,-20,-4,-1,0,0
59593864993,-9,1,-4,-22,-4,-2,0,-1
59593864993,-7,-6,1,22,7,1,-1,-14
59593885974,-1,1,-1,-18,-6,1,-2,3
59593885974,-3,0,-1,15,0,-1,-1,-3
59593887447,2,0,0,11,4,-1,-2,-2
59593887447,-1,-4,-1,-11,-2,0,-2,3
59593900179,-8,-16,-5,7,-3,-5,-3,-3
59593900179,2,0,-1,6,-1,-2,2,18
59593906969,-13,1,1,-24,-2,-1,0,-8
59593906969,-2,-8,-7,19,-1,-1,-1,5
59593923373,-15,4,1,-7,1,0,0,-6
59593923373,0,1,-1,-1,-1,1,-1,-3
59593924924,-5,-6,0,-1,2,1,1,-2
59593924924,1,4,-4,0,-4,-1,-2,11
59593945791,13,-2,-1,-3,-3,-3,-3,-4
59593945791,-1,10,1,-1,0,-2,2,-5
59593947420,-11,-14,-4,1,-3,-2,-5,0
59593947420,-3,-2,-1,2,1,0,0,0
59593960154,-8,1,-4,1,-5,-4,-4,13
59593960154,-24,-22,-1,-28,-1,1,0,-18
59593967075,7,6,-1,1,-5,-2,0,19
59593967075,-3,-4,-2,3,1,-1,-3,-20
59593983344,6,1,0,0,3,1,1,-9
59593983344,16,1,-2,12,1,0,-3,31
59593984941,-2,6,1,-4,-1,-3,-1,-6
59593984941,-3,-6,-2,-6,-3,-3,-1,4
59594005843,-5,10,1,9,6,2,1,-11
59594005843,-4,-16,-3,-13,-9,-1,-3,11
59594007479,-11,-2,-3,-5,0,1,-1,-6
59594007479,-1,4,1,2,1,-2,-1,0
59594019709,4,1,-1,-3,-1,-1,1,2
59594019709,-1,2,-1,2,0,-1,0,3
59594028547,14,-4,-4,10,-2,-1,-1,5
59594028547,-2,-4,-1,-5,-3,-1,-1,-23
59594043630,-5,-3,-3,-10,-1,0,0,1
59594043630,-2,2,-2,4,0,-2,-2,-5
59594044954,4,-2,2,-5,-3,1,0,-9
59594044954,-3,0,-1,5,0,-1,-1,7
59594065903,11,5,1,-7,-1,-1,-1,30
59594065903,7,7,-1,1,-1,-3,-5,-58
59594067441,-7,-2,0,7,1,0,1,17
59594067441,-5,-6,4,-4,-1,-1,2,21
59594079707,8,1,-1,-32,-4,-1,0,14
59594079707,-2,1,0,9,0,-2,0,7
59594088489,-1,-2,-5,0,2,-1,0,-6
59594088489,20,6,2,-4,0,1,2,14
59594103601,-2,-11,-4,14,-4,-4,-4,-7
59594103601,-8,5,0,-21,-4,-1,-2,-11
59594104994,-4,-2,1,0,2,-1,0,-2
59594104994,-3,-2,-3,-2,-3,1,-2,-1
59594125864,-9,-3,-1,11,1,1,1,-12
59594125864,5,-14,-6,-18,-4,-4,-3,7
59594127463,0,2,0,-1,-1,-1,0,-2
59594127463,-7,4,0,1,-3,-2,0,-8
59594139672,-5,-2,-2,-5,-1,-2,-3,0
59594139672,-9,1,-3,10,2,-1,-1,-15
59594148499,-2,2,-1,-3,0,-1,-2,4
59594148499,-2,-5,-4,-9,-1,-3,-4,-30
59594163264,-4,2,0,0,1,1,0,-13
59594163264,-3,1,0,3,2,-1,-1,6
59594164888,-13,-1,-2,3,-1,-4,-2,-11
59594164888,-8,-2,-2,14,1,-1,-2,-16
59594185962,21,12,3,-23,-3,1,-2,-8
59594185962,-7,-2,-3,10,-1,-1,-2,-5
59594187509,4,-1,-3,-29,-3,0,0,-2
59594187509,-17,-6,-1,9,0,-1,-3,-3
59594199529,-18,-10,1,5,1,-1,-3,-5
59594199529,-5,-1,-2,-4,0,-1,0,3
59594208512,0,0,-1,-10,-5,-1,-1,3
59594208512,9,0,1,-6,0,0,2,6
59594230984,5,-3,-3,3,-3,-1,-1,10
59594230984,0,2,2,22,3,1,-1,3
59594232392,-7,-5,0,-6,-1,1,-1,-9
59594232392,1,1,-2,-7,-1,-2,2,7
59594246062,-1,-2,0,-1,2,0,1,-1
59594246062,6,6,1,5,1,0,-2,0
59594247501,-1,-11,-1,14,0,-2,-2,-4
59594247501,0,-1,-2,-10,-4,-1,-2,3
59594259522,8,0,-3,-6,-1,-2,-1,6
59594259522,-2,2,-1,0,-2,-1,-1,-7
59594268482,5,-1,-2,3,2,0,-2,2
59594268482,3,-1,-4,-1,-2,-2,-3,5
59594283406,2,1,3,-13,1,-1,-1,-2
59594283406,2,-3,-4,2,-2,-1,-1,3
59594284925,2,1,1,6,-1,0,-1,1
59594284925,-1,-4,-2,9,1,1,0,4
59594305818,0,6,-2,0,1,-1,-1,-8
59594305818,-1,-4,-1,-27,-7,-2,-2,0
59594307426,4,2,-1,-2,-2,-1,-1,-3
59594307426,-1,9,0,-9,0,0,-1,2
59594319477,-3,-5,-1,14,-2,-2,-1,0
59594319477,1,10,2,4,2,2,1,-14
59594328572,-3,-2,-3,-1,-2,-3,-2,1
59594328572,4,2,-1,1,-1,-1,-4,1
59594343431,-9,-6,-2,-5,0,0,-2,-4
59594343431,7,-2,-2,4,-1,-2,0,17
59594344993,10,6,-3,5,-2,-2,-1,-4
59594344993,-5,-3,1,-6,0,-2,1,-4
59594365863,12,-1,-2,3,-4,-1,-1,6
59594365863,-4,-4,0,-4,0,-2,-1,-2
59594367438,8,-6,-2,13,1,-1,0,1
59594367438,12,9,3,-5,-2,-2,2,6
59594379515,-2,5,-1,-3,-3,-1,0,-3
59594379515,-3,-1,-3,-2,1,-2,0,1
59594388477,-3,1,0,-8,1,-1,-1,-1
59594388477,-5,-6,-4,-4,-1,0,-1,-3
59594403294,3,3,0,-2,-3,0,-1,-3
59594403294,-1,0,2,4,0,1,1,1
59594404906,-4,-1,-2,16,0,0,0,-1
59594404906,-3,-1,-2,-16,-3,-1,-1,1
59594433379,-10,-5,-2,7,0,-2,0,-5
59594433379,-3,-4,-2,13,5,-1,-2,3
59594434911,-3,-2,0,-17,-10,-2,-2,-2
59594434911,-3,-4,-2,3,-1,0,-1,-1
59594439540,-3,-5,1,-5,-2,0,-1,-2
59594439540,1,-3,0,2,-2,-2,-1,-1
59594448456,-4,4,-2,0,1,-1,2,0
59594448456,2,11,0,3,-1,-1,-2,-1
59594463407,-3,0,-2,-7,-3,-1,-1,-3
59594463407,-1,-1,-3,-2,-1,-2,-3,0
59594464902,-3,-3,0,-7,-1,-2,0,-9
59594464902,-4,-3,-2,0,0,-2,-2,2
59594485844,-5,-4,-1,11,0,-1,-2,-2
59594485844,0,-1,-1,-15,-2,0,-1,3
59594487414,-12,0,-3,6,-2,-3,-2,3
59594487414,-10,-4,3,4,-1,-1,-1,-12
59594499454,-4,6,-2,-23,-5,-2,-1,3
59594499454,0,-3,-3,-9,-3,0,-1,-2
59594508493,-3,-1,-1,-9,0,1,-2,-2
59594508493,-1,-7,-3,16,-1,-1,0,3
59594523358,2,0,-1,-16,-1,0,1,-5
59594523358,-3,6,0,-1,-2,-2,1,-4
59594524945,2,2,1,-4,1,-1,-1,0
59594524945,1,-3,-2,0,-1,-2,-3,0
59594545790,-2,-4,1,7,1,1,-1,-2
59594545790,-1,0,-11,15,0,-3,-2,-1
59594547472,2,-3,8,-21,-8,-3,1,2
59594547472,-2,-4,0,-8,0,2,-2,-1
59594568364,-3,1,-2,7,1,-1,-1,1
59594568364,1,1,-2,-1,-3,0,-2,-1
59594569955,-1,-1,-5,8,-1,0,-2,0
59594569955,0,-5,-2,-3,-1,-2,-1,-3
59594583375,-1,-2,-2,0,-1,-1,-1,-1
59594583375,-1,-4,1,-9,-1,-1,-1,2
59594584997,-4,-2,-3,-4,0,0,-1,-2
59594584997,9,0,0,7,-2,-2,-2,4
59594605922,-3,-3,-4,4,3,0,0,-3
59594605922,4,9,2,-3,-1,0,-1,2
59594607514,-11,4,-3,3,-1,-1,-1,-10
59594607514,-4,-3,-1,3,0,0,-1,2
59594636170,2,2,0,-9,-3,-1,-1,1
59594636170,-8,-5,-1,1,1,-1,-1,-11
59594637520,5,-2,-3,1,0,-2,-1,3
59594637520,-3,-2,-4,-16,-3,-1,1,-1
59594643420,-4,-2,-3,6,-2,-4,-1,-1
59594643420,-2,-4,2,-4,-2,1,-1,-4
59594644901,-1,-4,-2,2,0,-2,-2,1
59594644901,0,-1,-3,-3,-1,-3,-2,0
59594665929,-1,-3,1,-1,-1,1,-1,1
59594665929,-1,-3,-1,-3,-2,-1,-1,0
59594667492,2,-1,0,-5,1,-2,-2,4
59594667492,-3,2,2,5,-4,-1,-1,-1
59594688263,1,-1,0,-2,-2,-1,-1,-2
59594688263,-6,-20,-5,1,-1,0,0,1
59594689870,1,1,0,-4,1,0,0,-2
59594689870,2,-1,-1,3,-5,0,0,5
59594702937,-8,1,0,9,4,-1,-1,-22
59594702937,-7,-2,-4,-12,-10,-3,-3,0
59594709523,0,-2,0,-5,2,-1,0,-1
59594709523,1,-2,-3,-7,-1,-1,0,-2
59594725859,-4,-4,-2,5,0,-3,-2,3
59594725859,1,-2,0,5,0,0,0,-1
59594727524,2,4,0,-1,0,0,-1,-2
59594727524,-7,0,0,5,2,0,-1,-1
59594748525,0,-3,-4,2,-3,-1,-1,-7
59594748525,0,2,-2,-4,0,-2,-2,0
59594749913,-1,5,1,8,-3,0,2,12
59594749913,1,-16,-1,3,4,0,0,1
59594762749,0,1,-2,-19,-4,-1,1,4
59594762749,3,2,0,0,1,-2,0,2
59594769538,-1,0,-1,7,-1,-1,-1,-7
59594769538,-3,3,0,0,-4,1,-3,-4
59594785964,0,-2,-1,-2,-1,-1,-1,2
59594785964,-1,-1,2,-2,0,0,0,-5
59594787462,-5,-5,-3,11,-4,-1,-3,0
59594787462,1,2,-2,-10,-2,-2,-1,-3
59594808299,0,-1,-2,1,-1,0,-3,2
59594808299,6,4,-1,7,5,0,-2,2
59594809895,0,-3,-3,-22,-7,-2,-2,-3
59594809895,-5,-3,-1,4,1,-1,-1,-3
59594822423,10,4,1,0,-2,0,-2,2
59594822423,11,9,4,8,3,-1,3,7
59594837175,-6,9,-1,0,0,-1,-1,-17
59594837175,-4,-5,-1,-4,-1,-2,-2,3
59594845924,1,-1,-2,-1,-2,-1,0,-5
59594845924,-2,-2,-3,-4,-3,-2,-2,-1
59594847454,5,1,-3,3,2,-2,0,6
59594847454,-14,5,0,-7,-2,0,-2,-14
59594868265,-7,-4,-1,5,1,-1,-1,-2
59594868265,-4,-5,-5,-8,-3,0,-2,0
59594869947,1,-3,-1,-4,1,-1,-1,1
59594869947,2,1,-4,6,0,-1,-1,1
59594882850,-2,-3,3,1,0,0,-2,5
59594882850,-5,0,-1,-5,-3,0,-1,-7
59594889623,0,-5,-3,0,-2,-2,-1,2
59594889623,2,0,-1,-1,-2,0,0,0
59594906049,-9,-2,-4,-2,0,-2,-1,-1
59594906049,5,1,-1,-2,-2,-2,-1,0
59594907513,1,6,-1,1,0,-1,-3,0
59594907513,0,-6,-2,-1,0,-1,-2,1
59594928308,0,-2,-1,-6,1,0,0,5
59594928308,-12,-5,1,2,-6,-2,-1,-22
59594930018,9,10,-1,-2,-2,-1,-2,4
59594930018,-7,1,-2,-11,-1,-3,0,-3
59594942938,0,-5,1,8,1,0,-1,-2
59594942938,8,2,-1,-3,1,-2,0,13
59594949714,-5,-6,1,5,-2,0,-1,-3
59594949714,2,-2,1,8,0,-1,-1,-2
59594965795,-1,1,-2,-12,-2,-3,1,3
59594965795,-4,-1,-3,-1,-1,0,-3,-1
59594967435,-5,-8,-3,-1,0,-1,0,-4
59594967435,3,1,-3,-1,-1,0,-3,3
59594988362,-3,0,-1,0,-1,-2,-1,-3
59594988362,-7,-15,-3,-1,2,0,0,-2
59594989963,-1,-3,0,-1,-2,-1,-1,0
59594989963,2,1,1,2,-2,-1,0,-3
59595002697,1,0,-3,-1,-1,0,-3,-2
59595002697,-11,2,2,1,-5,-1,-3,-12
59595009419,-3,-6,1,-2,1,-1,0,3
59595009419,7,-1,-1,-6,-1,0,-2,-1
59595026042,-1,2,0,-9,-1,0,-3,-2
59595026042,1,0,-2,6,-2,-1,0,6
59595027475,0,-3,-1,-8,-2,-1,-2,1
59595027475,-12,-4,0,1,-1,0,2,-27
59595048306,0,-3,-1,1,1,-2,1,4
59595048306,1,2,-1,-1,4,1,-2,3
59595049948,-14,-1,-2,-10,-6,0,-3,-3
59595049948,-3,-14,-2,3,-1,-2,-2,5
59595062212,-2,-1,0,3,-2,0,-1,-3
59595062212,-2,0,0,1,1,0,0,-11
59595070961,6,-1,-5,-2,-1,-1,0,8
59595070961,1,1,-2,-6,0,-3,-3,3
59595085828,2,-1,-3,12,-3,-1,-1,3
59595085828,-2,-3,-1,-6,-3,-2,-1,1
59595087488,-1,-5,-1,1,1,-2,-1,-3
59595087488,1,3,-2,1,-2,-2,1,0
59595108318,2,-2,-2,-3,-1,0,-1,0
59595108318,5,4,0,-10,-2,-2,-1,4
59595110003,-2,-4,-1,0,-1,-1,-2,-4
59595110003,0,3,-1,-2,1,-1,0,4
59595122234,-6,-1,-2,12,-2,-1,-1,-2
59595122234,-1,-1,-2,-1,-2,-2,-2,1
59595138548,-6,-1,-2,-7,-1,0,-1,-4
59595138548,9,4,3,-1,-4,0,-3,-2
59595145902,-5,-2,-4,-9,-5,0,-2,-1
59595145902,-1,-2,-4,8,-1,1,0,1
59595147495,2,-3,1,1,-1,-3,0,-4
59595147495,0,3,-1,-3,-1,-3,-1,7
59595168351,0,-1,-1,-6,-2,-3,-2,-3
59595168351,0,-2,-1,-3,0,-2,-1,-1
59595169976,1,0,-3,3,0,-2,1,2
59595169976,-7,-1,0,1,-2,0,-1,-8
59595182195,-1,-1,0,-2,-1,-1,0,2
59595182195,2,0,-1,-4,-2,-1,0,2
59595190983,-5,6,1,-1,0,0,-1,-10
59595190983,-3,-1,-1,6,0,0,-1,-2
59595205074,-3,-3,0,-4,-3,-2,-1,-4
59595205074,10,3,0,0,-3,1,-1,1
59595205881,-4,-4,-1,1,-1,0,-2,-13
59595205881,-1,-3,-4,1,-1,-1,0,3
59595227836,-3,0,1,-10,-1,-1,-3,0
59595227836,-5,-2,-2,6,0,-1,-1,-1
59595228429,-3,-19,-4,-7,-2,-1,-1,2
59595228429,-2,4,0,-7,-1,0,-1,2
59595250151,1,-1,0,1,0,-2,-1,-4
59595250151,-4,-3,1,-3,1,-3,-3,-2
59595250850,4,4,1,0,-1,2,-1,3
59595250850,-4,-3,-3,-4,-2,-1,-1,3
59595265156,7,-1,-1,-2,1,0,0,-1
59595265156,-1,0,-1,-1,-2,0,-2,0
59595265928,0,1,1,4,-1,-1,-1,1
59595265928,-2,-3,-1,-2,0,-1,-2,-2
59595287882,-1,1,-1,-1,-3,-2,-1,-3
59595287882,-4,-1,0,-3,-3,-1,-1,-2
59595288476,2,-1,0,-3,0,-3,-2,0
59595288476,-2,-4,-2,-2,-3,-1,-1,0
59595310159,11,8,0,1,0,-1,-1,0
59595310159,7,-8,0,3,2,1,-1,10
59595311026,-1,1,-1,-4,0,0,0,0
59595311026,3,2,-1,0,-3,-2,-2,-3
59595325322,-6,-1,0,0,-2,-1,-2,-2
59595325322,-1,0,1,-4,-3,-2,0,1
59595325899,3,1,1,1,-1,-1,-1,1
59595325899,1,-1,-2,0,-2,-1,-1,-1
59595347634,-4,-4,-2,0,-1,1,0,-2
59595347634,-4,0,0,-3,1,-1,-2,-4
59595348382,-2,-3,-2,2,-1,-1,-2,0
59595348382,-5,1,1,-3,0,0,-2,-6
59595370140,-3,-2,-1,1,-1,0,-1,-1
59595370140,-4,0,-5,0,-2,0,1,-5
59595370880,3,2,0,-2,-2,-1,1,0
59595370880,4,0,-2,-3,0,-2,-2,3
59595385154,-2,1,-1,-3,1,-1,-1,-2
59595385154,-1,-1,0,-5,-1,-2,-1,-2
59595386013,-15,-2,-1,1,-3,0,-1,-16
59595386013,2,-17,-2,0,0,-2,0,2
59595407647,9,-1,0,-1,-1,-1,-1,9
59595407647,-8,-1,-4,-1,-2,-1,0,0
59595408514,3,-1,0,1,-3,-2,-3,-1
59595408514,-3,2,-1,-4,-1,-1,0,-2
59595430170,-2,-1,0,0,0,-3,-2,-4
59595430170,1,-3,0,2,1,-1,-2,3
59595430984,-9,-2,-2,-7,0,1,-3,0
59595430984,-1,3,-1,1,1,0,0,-3
59595445147,-3,-4,-3,-5,-4,-1,0,-3
59595445147,-3,3,2,3,-1,-1,-1,-5
59595445954,0,0,-2,0,-2,-2,-2,1
59595445954,-3,2,0,-1,0,-1,0,-7
59595467713,-4,-3,-2,-3,-1,-3,-1,8
59595467713,-2,-1,-1,0,0,-2,-1,-4
59595468467,16,7,-2,-6,-3,-2,-2,10
59595468467,-7,-7,0,0,-1,0,-2,-11
59595490327,-6,-1,-2,-3,1,0,-3,-6
59595490327,2,1,-2,-3,0,-2,-3,2
59595490960,-1,4,-2,2,0,-4,-6,-47
59595490960,3,2,2,3,-3,-1,-1,15
59595505409,1,0,-1,-1,-2,0,-2,7
59595505409,-10,-2,-1,-7,-1,-2,0,-20
59595505949,-6,-6,-1,8,0,-2,-2,-4
59595505949,1,0,-4,1,-1,-1,-1,-2
59595527615,-2,-2,-2,-9,-2,0,-1,-5
59595527615,15,1,-3,-2,0,-1,-1,12
59595528404,2,0,-1,1,-1,-1,1,1
59595528404,-3,0,0,-2,-2,-2,-1,-1
59595550242,2,-1,-1,4,1,-2,-1,6
59595550242,0,0,-1,0,-3,-1,-1,-2
59595550905,-2,-4,-1,-15,-3,-2,0,8
59595550905,-1,0,-2,2,2,-3,-1,2
59595565151,-2,-1,0,1,-1,1,-3,-13
59595565151,-8,-14,-3,1,-1,-2,-2,2
59595565942,-4,-2,1,1,1,1,0,7
59595565942,5,5,-2,-6,-2,-1,-2,-1
59595587619,-2,-2,1,5,1,-1,1,-2
59595587619,-4,1,0,-1,-1,1,-2,-3
59595588413,1,-2,-1,1,-1,0,1,12
59595588413,-1,-2,-1,-4,-2,-1,0,-1
59595610233,9,1,-3,-3,-3,-1,-3,9
59595610233,-9,1,2,3,-2,-1,-1,-2
59595610959,-2,-1,-2,-4,-1,1,1,-1
59595610959,11,4,0,-1,0,0,-1,0
59595625231,-2,0,0,2,1,-1,0,-2
59595625231,0,0,-6,-4,-2,-2,-2,0
59595625979,2,-1,0,6,-1,-1,-3,4
59595625979,-6,-4,-2,-6,-3,0,0,0
59595647629,-6,-11,-3,-2,-1,-2,-4,-4
59595647629,1,1,-1,0,0,-1,0,-3
59595648371,0,4,-1,1,0,-1,-2,-1
59595648371,-4,-4,-2,2,-2,-3,-1,-1
59595670800,-2,-1,-1,-3,-3,-1,0,-6
59595670800,0,-1,-1,-2,-2,-2,0,-2
59595671596,3,-2,0,-1,0,-1,-1,5
59595671596,-1,3,-1,0,0,-2,-1,0
59595685050,-3,2,0,-4,0,-1,-1,-2
59595685050,1,1,-1,-2,1,0,-1,-1
59595685848,1,2,0,1,-3,1,-1,3
59595685848,-1,-3,1,-2,-2,1,-2,-1
59595707856,-3,-1,-3,-3,1,-1,-1,-6
59595707856,1,-3,0,-1,-1,-2,-3,0
59595708473,5,-2,-1,-3,0,0,0,15
59595708473,-4,-1,1,4,0,-1,-3,-11
59595731005,-12,-1,-2,-3,-1,-1,1,-16
59595731005,0,2,0,-1,-1,0,0,1
59595731655,0,-2,-2,-1,0,-1,-2,2
59595731655,2,-1,-2,1,-1,-2,0,3
59595745576,1,1,0,3,0,-1,-2,2
59595745576,3,11,0,-10,-2,-1,1,-4
59595746428,-9,-9,2,2,0,-2,-2,-7
59595746428,-4,-1,-5,-5,-3,-2,-3,-8
59595767850,-2,1,1,1,-1,-1,-1,2
59595767850,1,1,0,2,0,-2,0,-1
59595768470,1,1,-2,-1,-3,-1,-1,1
59595768470,-1,-1,-2,-6,-1,0,-1,-3
59595790921,-2,-2,-1,1,-1,-1,-2,3
59595790921,-1,-5,1,-4,-1,-1,-2,-1
59595791667,-4,-2,-1,0,1,-2,-1,-6
59595791667,-2,-3,-1,-1,0,-1,-2,2
59595805345,2,1,0,-1,-3,-1,-1,-4
59595805345,-3,-5,-2,2,-2,-1,0,0
59595805902,1,2,-1,-8,-2,-1,0,3
59595805902,10,2,2,2,1,-1,1,0
