timestamp,emg1,emg2,emg3,emg4,emg5,emg6,emg7,emg8
84059320088,-2,-2,-2,-1,1,0,-1,-1
84059320088,0,1,-2,-1,-1,0,0,-1
84059321691,-1,0,-1,-2,-1,1,-2,1
84059321691,0,-4,-2,-2,-1,0,-1,-1
84059342685,-1,-2,-1,-1,-1,-1,0,-1
84059342685,-2,-2,-2,-2,-2,-3,0,0
84059344222,-1,0,-1,-1,-1,-2,-1,-2
84059344222,-1,-2,-2,-2,0,-1,-1,-2
84059356266,-1,0,-2,-1,-1,-1,-2,-2
84059356266,-2,-3,0,0,-1,-2,-1,-1
84059365185,-1,0,-1,0,-1,0,0,-1
84059365185,-1,1,-2,-1,-1,-2,-1,0
84059380078,0,-2,0,-2,-1,-1,-2,0
84059380078,-1,-2,-2,1,-1,-2,-2,-2
84059381702,-2,-3,-2,-1,-2,1,0,-1
84059381702,-1,1,-2,-2,-1,0,-1,-1
84059410090,-2,-1,0,-1,-1,0,-1,0
84059410090,0,1,1,0,-1,-2,-1,0
84059411723,-2,-1,0,0,-1,-1,-4,-3
84059411723,-1,-1,0,0,-1,0,0,-2
84059416199,-2,0,-2,0,-1,-1,0,-1
84059416199,-2,-1,-1,-1,-1,-1,-1,-2
84059425208,-1,-1,0,0,-1,1,1,-1
84059425208,0,-1,-2,-2,-1,-1,-1,0
84059440096,-1,-2,-2,-1,-2,-3,-1,-1
84059440096,-1,-1,-1,-2,0,-2,-1,0
84059441702,-1,-2,-1,-2,-1,-2,0,-1
84059441702,-3,-1,0,1,-1,0,-1,-2
84059462582,-1,-1,-1,0,-1,0,-1,-2
84059462582,-1,-3,-3,-3,-2,0,-1,-1
84059464230,0,-1,-2,-1,-3,-2,0,-2
84059464230,-1,0,-2,-1,0,0,-1,-2
84059476267,-1,0,-1,-3,-1,1,0,-1
84059476267,-1,-2,0,-1,0,0,-2,0
84059485246,-2,-2,-2,-2,-2,-2,-2,1
84059485246,0,-2,0,0,0,1,-1,0
84059500057,0,0,-1,0,-2,-2,-3,0
84059500057,1,-2,0,-2,-3,-1,-1,-1
84059501729,-1,-1,-1,0,-1,-2,-1,-1
84059501729,-3,-1,-3,-2,-2,-2,-2,-1
84059522596,-2,-1,-2,-2,-2,-1,-1,-1
84059522596,0,-1,-1,-1,0,1,0,1
84059524168,-2,-1,-1,0,-1,-1,-2,-3
84059524168,0,-3,0,0,-1,-1,1,0
84059536457,0,-2,-2,-2,-1,-1,-1,0
84059536457,-1,-2,-1,0,0,1,0,0
84059545246,0,-2,-2,-1,0,-2,-2,0
84059545246,-1,-2,-1,-3,0,-2,-1,-1
84059567672,-2,-1,-1,0,-1,-1,-2,-2
84059567672,-2,-1,0,-2,-3,-3,0,-2
84059569288,1,-1,-2,-1,-1,0,1,-1
84059569288,0,-1,-2,-1,-1,0,-2,-2
84059582601,0,0,-1,-1,0,0,1,-1
84059582601,-1,-2,-1,-1,0,8,1,-1
84059584250,-1,-2,-1,-2,-2,-13,-2,0
84059584250,-1,-2,-1,-4,0,5,-1,-1
84059596177,-1,0,0,-1,1,2,-2,0
84059596177,-1,-1,-3,-8,-2,-4,-1,-1
84059605223,-1,1,-2,5,-1,-1,1,2
84059605223,0,-1,1,4,3,0,1,0
84059620058,-2,-2,-1,-7,-5,-2,1,1
84059620058,-2,-1,0,3,0,-3,-2,-3
84059621707,-1,-1,-2,-6,-3,3,1,-2
84059621707,0,-1,-1,-2,-1,-8,-4,-1
84059642590,-2,-2,-2,-4,1,-2,0,-3
84059642590,-2,-1,-2,3,-5,-6,-3,-1
84059644234,-3,-2,2,9,1,5,1,-3
84059644234,-2,1,-1,-6,3,2,-1,-1
84059656171,0,-2,0,7,-2,6,-2,0
84059656171,0,-1,-1,-1,4,-6,-2,2
84059665193,-1,-2,-1,-10,-11,-4,0,1
84059665193,-3,0,-1,4,-3,0,0,-3
84059679389,1,1,-2,-7,4,-5,-1,0
84059679389,-3,-2,-5,-8,-10,-3,-4,-2
84059686164,-4,-3,-3,0,-6,-3,-4,-1
84059686164,0,-3,-3,-3,0,-6,5,0
84059702539,2,-1,-2,-4,2,9,-2,-2
84059702539,-10,0,1,2,2,3,2,-1
84059704212,1,-1,1,8,6,2,-1,-1
84059704212,-2,-2,-2,-8,-6,-5,2,2
84059725068,-1,-2,-2,15,5,-13,-5,-5
84059725068,10,-1,-1,6,4,6,-1,2
84059726684,-11,-5,-3,-22,0,-3,-8,-13
84059726684,-2,-5,0,8,-2,6,-2,2
84059747536,9,0,-3,-8,-14,-18,0,2
84059747536,19,2,0,2,7,0,-2,1
84059749181,10,0,3,6,9,10,9,7
84059749181,2,3,-4,-20,-7,-9,-2,3
84059762515,45,1,2,12,7,-5,-12,-40
84059762515,-54,-8,-1,10,-3,1,2,-8
84059764176,8,5,4,24,24,21,6,14
84059764176,18,-4,-1,-11,-14,10,6,20
84059785087,4,2,1,-4,-16,-15,-3,-10
84059785087,13,0,-8,-36,-19,-23,-2,-1
84059786713,2,0,1,31,20,3,-4,-13
84059786713,-12,1,-2,-14,-17,0,-1,-46
84059799446,-4,1,-3,3,8,5,7,21
84059799446,-2,-4,0,-21,3,9,-10,7
84059806209,-18,-3,-5,-9,-19,-10,-11,-41
84059806209,1,-1,4,41,13,-11,-14,3
84059822822,1,-2,-2,-15,-5,5,16,3
84059822822,3,2,-1,-1,-1,5,-10,-54
84059824248,-17,-4,-7,-9,-7,-12,-2,6
84059824248,4,8,2,-3,20,3,5,-2
84059845134,-20,3,0,12,4,5,-8,77
84059845134,24,-5,1,-12,-8,0,10,-17
84059846807,-37,-9,-4,-1,-3,-10,-16,-11
84059846807,-10,-3,-3,0,2,-13,-20,-75
84059859488,9,0,-6,-5,0,9,21,81
84059859488,-8,2,-4,-5,2,-12,-16,-11
84059866188,37,1,5,-16,-19,18,25,56
84059866188,-37,-8,-3,26,12,6,1,-28
84059882866,-6,-4,8,21,22,9,-15,-46
84059882866,27,-1,-6,-2,-14,-7,0,41
84059884257,4,-3,-3,-26,-12,-26,-7,-2
84059884257,-12,-2,-4,8,6,11,-10,-35
84059905283,-11,-5,-2,-2,-11,-20,-6,-9
84059905283,3,1,-1,7,17,25,15,33
84059906796,13,4,2,11,5,-1,3,-12
84059906796,3,-11,-4,-49,-35,-6,-4,24
84059927585,-13,-3,3,29,8,-3,-8,-78
84059927585,-14,-1,-2,-7,2,-16,-19,-1
84059929185,24,5,1,4,6,16,36,2
84059929185,-23,-6,-1,-19,-2,13,-1,-30
84059942830,-1,-5,-7,2,-12,-21,-5,-12
84059942830,8,3,8,23,13,0,18,12
84059944195,16,3,-11,-10,-8,-10,-24,42
84059944195,-4,1,-3,-58,-25,-12,2,27
84059965168,-38,-6,5,60,21,8,-5,-36
84059965168,-10,-4,-11,12,1,9,7,20
84059966776,-1,2,-4,-1,-2,-9,-7,-6
84059966776,45,7,4,-8,1,-3,1,18
84059978840,-26,-9,1,-30,2,-4,7,-3
84059978840,-4,0,-3,2,-15,-12,-7,13
84059987769,-7,-3,1,0,9,15,-5,-7
84059987769,23,-4,-5,-6,-10,-12,-2,44
84060002589,3,4,0,-12,8,-1,-16,-33
84060002589,24,11,12,30,13,36,35,20
84060004235,-77,-53,-10,-30,-36,-13,-11,-26
84060004235,14,6,0,-7,-4,-20,-2,17
84060025260,5,-5,0,17,2,2,-7,25
84060025260,12,4,-2,-8,4,-18,-6,-12
84060026836,22,8,0,-7,16,10,-13,-17
84060026836,2,-1,2,12,-32,-11,-5,6
84060039036,-20,-25,-8,-20,6,32,37,31
84060039036,9,19,1,-1,-14,-14,-20,-30
84060047671,8,-2,8,8,1,-5,13,23
84060047671,-11,2,7,47,27,2,0,-67
84060062799,31,11,-8,-30,-15,8,-4,48
84060062799,-25,0,-5,-8,-9,-7,-6,-28
84060064265,38,2,-1,23,13,2,8,5
84060064265,-43,-4,-5,15,-6,-2,-15,2
84060085123,44,6,-1,-29,-1,11,3,-38
84060085123,-51,-10,-5,-31,-12,-12,-9,-26
84060086827,21,13,7,35,0,-3,-9,24
84060086827,10,-6,-8,-1,19,10,16,28
84060098954,-12,8,-3,-27,-31,-13,-2,11
84060098954,34,16,-1,-59,-8,6,9,24
84060107727,-65,-6,1,59,14,-14,-22,-33
84060107727,12,9,1,9,16,8,9,20
84060122103,-1,-2,0,-3,-14,-7,-5,-3
84060122103,5,-11,2,-5,-3,-3,-2,-10
84060122766,35,15,-4,-10,-13,-5,-3,21
84060122766,-32,-16,-6,-23,-4,1,4,27
84060144608,17,-4,-2,30,16,0,1,-57
84060144608,-50,-19,-7,-12,-14,-2,-8,26
84060145193,71,25,7,-36,-17,2,8,6
84060145193,-2,25,0,14,6,2,-3,-41
84060166942,4,-8,3,-30,-9,-3,5,49
84060166942,-9,-17,1,34,22,1,-8,-15
84060167779,-70,-5,-7,-12,-2,-2,8,-44
84060167779,93,43,1,5,-7,4,5,74
84060181941,-16,-3,-5,-36,-10,-8,-5,-57
84060181941,6,-6,-1,49,11,2,13,19
84060182744,-37,-7,-10,13,7,0,-8,-54
84060182744,1,6,18,-60,-10,5,15,39
84060204616,-29,4,22,81,22,-1,-1,27
84060204616,21,1,-28,-30,3,-5,-6,-28
84060205227,-30,-23,4,-35,-16,9,3,29
84060205227,21,-20,3,-9,5,-1,3,-18
84060226878,69,26,-12,29,28,-2,-10,53
84060226878,9,-5,34,15,-30,10,-4,-89
84060227701,101,12,-6,-6,9,-6,20,84
84060227701,-91,-14,-5,12,9,7,-1,3
84060242091,57,20,-13,-49,-16,8,13,93
84060242091,-6,-9,25,11,15,-2,-6,4
84060242769,8,8,-6,-23,-17,-5,-22,-81
84060242769,-14,19,1,32,6,-11,2,-2
84060264583,-52,-20,-10,33,6,-11,-29,-41
84060264583,29,-2,-22,-27,-12,5,12,37
84060265203,-31,-3,5,-22,6,10,-10,-47
84060265203,38,-22,-9,1,-12,-15,-7,17
84060286881,-43,-8,-9,4,8,-3,14,-39
84060286881,-20,3,1,-25,-18,2,-3,-5
84060287714,-14,-1,6,11,22,5,3,29
84060287714,-12,-45,-15,8,-17,7,-28,-70
84060301923,-20,-14,1,-13,-32,-7,18,-12
84060301923,14,5,-6,-15,8,-32,-12,-14
84060302779,-10,-7,-3,-6,-2,14,-10,45
84060302779,31,7,8,-28,14,6,-1,-10
84060324500,-59,-20,-7,42,5,-6,-18,-71
84060324500,18,2,-1,-39,-1,19,34,75
84060325231,-11,-3,-4,56,6,-15,-15,-40
84060325231,35,2,-4,3,-13,-9,13,32
84060347008,27,3,15,13,-6,-12,-25,-31
84060347008,-38,3,-2,6,8,2,-7,-32
84060347700,11,-4,-2,-1,11,-5,10,-5
84060347700,-37,-1,1,39,0,5,-12,-71
84060361976,5,3,2,12,49,15,14,31
84060361976,13,-7,-11,-9,-55,2,-9,-2
84060362779,-22,-9,0,-27,12,6,14,2
84060362779,-36,14,7,8,-22,-6,8,-8
84060384482,15,2,-7,-41,-19,-12,-6,-25
84060384482,24,-2,1,23,23,-10,-8,95
84060385220,13,5,-1,-12,-6,-5,3,-2
84060385220,-8,0,-5,14,14,-1,-3,11
84060406958,-11,-5,0,-24,-14,20,-6,-24
84060406958,-13,-11,0,5,2,-21,4,22
84060407686,-20,-4,1,25,-16,-4,-9,-73
84060407686,15,1,-1,13,20,-1,6,113
84060422091,21,4,5,-27,-12,4,1,4
84060422091,34,11,5,19,12,2,0,-26
84060422693,-48,-21,-10,-25,-24,-2,-5,-38
84060422693,22,1,-1,15,10,0,8,-21
84060444437,-25,-6,-1,-17,-10,0,-2,6
84060444437,12,9,1,24,18,0,-5,-12
84060445259,4,-1,-4,-28,-30,-6,-2,31
84060445259,-19,-4,-4,-7,30,7,-7,-12
84060466896,7,5,-1,-13,-17,-7,9,-15
84060466896,-9,0,0,32,16,1,-8,-22
84060467726,66,23,7,10,14,2,6,37
84060467726,-37,-26,-8,-19,-15,-3,-10,-97
84060482105,18,-3,0,-8,-9,-7,-3,16
84060482105,-34,-7,-2,-9,4,6,2,-28
84060482773,-19,-3,-2,13,14,-3,-2,19
84060482773,1,10,4,-1,-13,-7,-1,-21
84060504643,52,2,0,-11,-8,-4,2,32
84060504643,26,-4,-3,20,7,8,4,-3
84060505208,-37,-2,4,-14,-3,-3,-1,-2
84060505208,9,-1,-1,-9,-5,-2,4,-7
84060527021,-14,-8,2,10,0,-1,-2,5
84060527021,-13,0,-11,-34,-14,-2,1,16
84060527794,30,20,8,24,10,-2,-4,-7
84060527794,40,4,-4,-6,2,-1,-5,-6
84060542130,-22,2,1,-11,-20,3,-1,-37
84060542130,10,3,2,7,14,1,-3,50
84060542809,-47,5,0,-31,-19,-2,0,-25
84060542809,36,6,-3,25,6,-7,15,105
84060564749,29,-14,1,-5,4,6,-7,30
84060564749,5,-5,6,10,3,2,8,0
84060565231,-41,-24,-6,-14,-15,-2,-2,-24
84060565231,-3,-6,-1,14,12,3,-1,7
84060586930,-10,-17,-20,-8,-8,-6,-1,10
84060586930,-57,4,10,-5,-4,-2,-6,-47
84060587730,54,-8,-10,2,2,-3,0,96
84060587730,-9,-32,-4,-30,-18,4,0,-56
84060601876,-8,-17,-4,23,18,-7,-6,-15
84060601876,24,10,3,14,-6,-1,-4,-82
84060602822,33,-14,-9,20,-7,6,1,-1
84060602822,-33,13,6,-19,-6,-9,-6,4
84060624522,-11,20,6,-4,5,-5,-15,-19
84060624522,22,-3,-4,-21,-6,10,22,25
84060625274,1,-19,1,-1,1,-9,1,-3
84060625274,-4,-2,-5,21,2,16,2,10
84060646922,13,2,1,-25,0,-13,-6,12
84060646922,-13,4,-4,-5,-41,-10,-5,-13
84060647702,11,10,0,1,19,-10,-4,9
84060647702,7,2,1,23,12,7,3,17
84060661986,-19,5,5,-2,-2,14,16,15
84060661986,16,-9,-9,-14,-5,0,-19,2
84060662752,9,17,1,-32,-20,-12,6,-11
84060662752,-12,-5,-1,25,-7,-40,-26,-16
84060684473,21,7,3,-23,18,47,30,30
84060684473,35,9,-1,3,7,-3,-9,-8
84060685233,27,8,0,-28,-13,9,-2,-23
84060685233,-32,-9,-3,-14,2,-7,-8,-46
84060707097,-12,6,3,18,-10,-8,26,36
84060707097,0,-1,0,-4,4,-1,-3,9
84060707753,1,-13,3,16,11,-8,2,6
84060707753,12,1,-2,-24,-17,-7,-21,-3
84060721961,-8,0,-1,29,6,-8,-17,-30
84060721961,-29,-7,-5,-9,11,5,9,-2
84060722794,-15,1,3,32,-9,-6,-19,-9
84060722794,2,1,-3,-5,9,12,8,16
84060744595,-7,-1,-1,-28,-18,-1,0,-6
84060744595,-11,-3,-3,3,3,-8,-6,3
84060745183,-4,2,1,18,5,6,2,2
84060745183,15,5,-2,-29,-2,11,6,11
84060766944,-5,-1,-1,-16,-3,-11,-1,-3
84060766944,-17,-11,1,66,13,-9,-13,-9
84060767706,6,6,-1,-9,2,5,3,-1
84060767706,0,0,0,-11,-4,4,9,5
84060781846,-16,-7,-4,-14,-19,-12,-14,-16
84060781846,-6,-3,0,8,-2,1,2,4
84060782740,-4,2,0,-15,13,7,1,0
84060782740,-1,2,0,-8,-7,-4,-1,3
84060804396,5,10,0,34,9,-4,-8,-1
84060804396,2,5,0,-30,-9,-1,1,3
84060805113,-21,-1,-1,21,5,-8,5,-4
84060805113,6,0,-3,-22,-8,6,-5,6
84060826962,12,5,-4,-14,-1,6,-1,-3
84060826962,-13,-5,-2,5,0,-12,-1,-6
84060827670,-22,2,-2,-8,5,1,-7,-4
84060827670,-7,-1,-1,3,-7,4,3,0
84060841910,-3,-4,-1,-5,-6,0,-2,-1
84060841910,14,-6,-3,-4,0,-7,0,4
84060842688,31,4,1,1,4,7,0,3
84060842688,-10,0,-1,-8,-1,-4,-1,-3
84060864338,-31,-6,1,34,5,4,-3,-9
84060864338,4,1,-2,-24,-10,1,-2,1
84060865124,-2,-13,-4,16,0,-17,-8,-4
84060865124,11,20,1,-17,2,14,3,7
84060887176,21,-9,-2,-11,-10,-7,-3,6
84060887176,-18,1,-1,19,12,3,2,-3
84060887782,1,-1,-4,-16,-12,2,0,7
84060887782,-7,1,0,9,11,-10,-1,-13
84060901874,-1,-1,-2,5,-8,-5,-4,0
84060901874,-3,-7,-2,-12,-2,6,1,4
84060902641,3,3,0,-9,5,4,0,-4
84060902641,10,-1,-1,13,-4,-4,0,1
84060924511,-5,2,0,-5,5,-6,0,-4
84060924511,-1,-3,2,-9,-3,-1,-3,-3
84060925147,1,2,-1,-11,-8,2,0,0
84060925147,-7,-7,-2,12,6,-4,2,-2
84060946929,4,2,0,-4,-1,-1,0,3
84060946929,-9,3,0,0,-1,11,-3,-8
84060947733,-2,-1,-1,0,-1,-16,4,0
84060947733,12,-4,-1,-4,-10,-7,-9,4
84060961902,-5,1,-1,11,12,6,-2,-12
84060961902,2,-4,0,-3,-1,11,7,2
84060962620,4,0,-2,-4,-1,5,-2,3
84060962620,-13,-5,-2,12,-2,-4,-2,-5
84060984446,0,0,-1,-8,-4,-11,-4,1
84060984446,-7,-2,-3,-10,-7,-4,-3,-3
84060985254,-1,1,-2,11,3,3,1,-3
84060985254,1,-2,-1,0,-1,-1,2,1
84061006863,6,-1,-2,-14,-1,0,-1,4
84061006863,16,-1,-2,23,11,-5,4,20
84061007790,-27,-1,-2,-14,-11,2,-4,-19
84061007790,4,-2,8,-6,-9,-2,-1,1
84061021920,-3,-4,-8,3,1,5,3,-5
84061021920,76,4,-5,-24,-9,-13,-3,25
84061022716,-24,-6,-1,17,16,-7,-9,-26
84061022716,3,0,2,-3,-6,1,0,-1
84061044379,-2,0,1,-7,3,10,4,1
84061044379,-5,-1,1,0,-4,-2,-2,-3
84061045198,13,1,-3,-7,-6,3,2,9
84061045198,-13,-5,-5,-4,1,-3,-1,-9
84061066963,14,1,1,9,4,-6,-3,5
84061066963,-24,-2,-2,1,1,-10,-6,-9
84061067759,0,-1,3,1,-2,3,0,3
84061067759,-2,-1,0,-1,2,5,-1,0
84061082162,1,-1,1,4,-6,-3,1,0
84061082162,-23,-3,-4,-9,-6,-2,-2,-10
84061082701,1,-1,-1,-10,1,-1,1,2
84061082701,9,1,5,25,14,0,-3,5
84061104481,-6,-1,0,-4,-4,8,2,-1
84061104481,-18,-1,3,0,-17,-19,-4,-9
84061105290,14,0,3,7,17,9,0,7
84061105290,-3,-1,-8,-12,-10,1,1,-2
84061127622,-6,-3,-3,-1,-8,-4,-2,-3
84061127622,-6,-1,-3,3,14,7,-1,-3
84061128408,0,-2,-7,-19,-35,2,3,1
84061128408,-2,-3,-4,4,9,-4,-3,-3
84061142000,7,0,-2,-10,-9,-5,-2,3
84061142000,-26,-2,0,5,8,3,-1,-8
84061142788,3,-1,1,9,9,-4,-1,2
84061142788,-3,-3,-3,-6,-2,2,-1,-3
84061164451,4,1,-2,-4,-2,-9,-4,-2
84061164451,3,-2,-2,-7,-5,0,-1,-4
84061165245,4,-1,-5,-14,2,-2,-4,-1
84061165245,-2,-2,-2,0,-1,1,-2,-2
84061187592,-1,-2,-1,1,4,-1,0,-3
84061187592,-2,-4,-4,-5,-2,3,-2,-2
84061188451,-1,0,-1,6,-4,-1,1,1
84061188451,4,-1,-2,-3,-9,-7,-1,3
84061201480,-6,0,-1,-4,2,-3,-4,-3
84061201480,-3,0,1,-28,-12,3,1,-2
84061209517,4,-2,2,50,17,-3,-3,-1
84061209517,6,0,0,-6,-4,-8,-1,7
84061224613,-9,-1,0,8,7,10,0,-6
84061224613,-1,-1,-3,-6,-2,6,3,-2
84061225188,-1,-1,1,-10,-9,-5,0,-1
84061225188,-2,0,1,1,2,-1,0,-6
84061247783,0,-2,3,6,-1,-7,-2,1
84061247783,11,3,2,-1,-1,1,-1,3
84061248396,23,-2,-1,-7,-2,0,0,2
84061248396,-9,-2,1,7,0,0,0,-3
84061261290,-2,-1,-1,-10,-2,-1,0,2
84061261290,-5,-2,1,14,3,0,-3,-4
84061269431,5,0,-1,-6,1,-1,-1,1
84061269431,-1,-3,-3,-9,-1,3,1,-3
84061284413,1,0,1,5,0,-1,-3,-3
84061284413,7,-2,1,10,6,0,-1,2
84061285264,-10,-2,0,-9,-4,-1,0,-2
84061285264,-2,0,-2,-1,-3,2,-1,-2
84061307729,-5,-2,-3,-1,-1,-1,-1,0
84061307729,-4,-2,-4,4,2,0,-2,-2
84061308414,-4,1,-3,-9,-4,-1,-1,-1
84061308414,-5,-3,-5,-2,-2,0,-1,-3
84061321455,5,-1,-2,0,1,-5,-2,0
84061321455,-3,-2,-2,0,-1,-3,-3,-3
84061329437,-6,-4,-2,-6,-3,0,-1,-1
84061329437,6,1,-1,-2,-1,-1,-1,0
84061344411,-3,-2,-3,-1,-1,-2,-2,-2
84061344411,-2,-2,-1,-1,-3,-2,-1,-1
84061352120,-5,-1,-3,0,-1,0,-2,1
84061352120,0,-2,-3,0,0,-2,-2,0
84061367620,-3,-1,-2,-9,-2,-3,-2,-3
84061367620,-1,-1,-2,-3,-2,-1,-1,-1
84061368454,0,0,-2,1,-3,-2,-1,1
84061368454,1,-1,-3,-2,-3,-1,-2,-3
84061390094,-3,0,0,-17,-3,-1,1,-2
84061390094,1,-2,-3,20,3,-1,-2,-3
84061390873,-2,-1,-1,-6,-2,-2,1,0
84061390873,-2,2,1,-14,-5,2,0,-1
84061404667,0,-2,0,20,3,-1,-1,0
84061404667,-4,-2,-2,-5,-2,-1,-1,-3
84061405208,-1,-1,0,-3,-1,1,0,2
84061405208,-1,-2,-3,-1,-1,-1,-3,-1
84061427839,1,0,-2,-10,-3,-1,-1,-1
84061427839,0,-1,2,1,0,-2,0,-1
84061428393,-5,-3,-6,1,-3,-3,-2,-3
84061428393,-5,0,0,-2,-1,-2,-2,-2
84061441284,-1,-4,-3,-1,-2,-3,-1,-1
84061441284,-1,0,0,3,-1,-2,-1,-1
84061449659,-2,-1,1,-9,-2,1,-1,-3
84061449659,0,-1,1,6,0,1,0,1
84061464433,-4,-2,-2,1,1,-1,-1,0
84061464433,0,-1,-1,-3,0,-1,-1,-2
84061465297,-1,-1,-1,0,-1,-2,-2,-3
84061465297,1,-1,0,-3,-2,0,1,1
84061487792,0,0,1,3,-1,0,-1,-1
84061487792,0,0,-4,-6,-1,0,-1,2
84061488368,-1,0,5,3,-2,-2,-2,-2
84061488368,-1,-2,-2,4,1,-1,-1,0
84061501509,-1,-1,0,-1,-2,-2,-3,-2
84061501509,-1,-3,-1,-4,-1,0,0,-1
84061509436,0,0,0,1,-1,-1,-1,0
84061509436,-3,-1,-3,0,0,-2,-1,-2
84061524400,-1,-1,-1,0,-1,0,1,0
84061524400,-2,-1,-2,-2,-2,-1,-2,-2
84061525273,-2,1,-2,0,0,-1,-1,0
84061525273,0,-1,0,-1,-2,-2,-1,-1
84061547784,-1,0,-2,-2,3,-1,-1,0
84061547784,3,-2,-1,2,-3,0,0,0
84061548406,-3,-2,-3,-9,-1,-2,-1,-1
84061548406,-1,-2,1,3,-2,-2,-2,-1
84061570167,1,0,0,-9,-2,0,0,0
84061570167,-5,-3,-4,1,0,-1,-1,-1
84061570913,-1,-1,1,11,1,0,-1,-1
84061570913,1,0,-5,-3,-1,0,-2,-1
84061584464,-2,-1,-1,1,-2,-1,0,-2
84061584464,-1,0,0,-1,-1,0,-2,-1
84061585199,-1,0,-3,-9,-2,-2,0,1
84061585199,-3,-1,-1,-2,0,0,0,-1
84061607582,1,-3,-2,-2,-2,0,-1,-1
84061607582,-2,0,0,-4,-2,0,0,-1
84061608349,0,-1,-2,-1,-1,-1,-1,0
84061608349,-1,0,2,4,0,-1,-1,0
84061630257,-1,-1,-2,-2,-1,0,-1,-1
84061630257,-2,-2,1,-1,-1,-2,0,-2
84061630950,-4,-2,-2,3,0,0,-1,-2
84061630950,-1,-2,0,-1,-1,0,-1,-1
84061644383,-2,-1,0,0,-1,-1,-3,-1
84061644383,-2,0,0,-1,0,-1,-2,-2
84061645166,-1,-2,-2,-4,-1,0,-1,-2
84061645166,1,-1,0,-3,-2,-3,-2,0
84061667429,-1,0,0,4,-2,-1,1,0
84061667429,-1,-1,-2,-12,-2,-1,-1,1
84061668180,-1,-1,0,12,-2,-2,-2,-1
84061668180,-1,-1,-3,-6,-2,-1,0,0
84061690136,-3,-2,0,2,-1,-1,-2,-2
84061690136,6,0,0,-2,0,-1,-1,-2
84061690830,-10,-1,0,-5,-1,-1,1,-2
84061690830,11,-1,0,2,-1,-2,-1,6
84061704564,-2,-1,0,-2,0,-1,-3,-2
84061704564,1,-1,-1,1,-1,-1,0,2
84061705212,2,0,-1,-2,-1,-1,0,-1
84061705212,-4,0,-1,2,-2,-1,-2,-4
84061727635,-1,-2,-1,-2,-1,0,0,-3
84061727635,-4,-2,-1,2,-2,-2,-4,-1
84061728407,0,0,-1,-1,-1,0,0,-2
84061728407,-5,-2,0,-2,0,-2,2,-3
84061750146,2,0,-1,-1,0,-1,0,-2
84061750146,-5,-3,-1,1,-1,-2,1,-1
84061750909,1,-1,-2,-6,-2,-1,-2,0
84061750909,-2,-2,0,-2,-2,-1,-2,0
84061764636,-4,-2,-1,0,-1,-1,0,-2
84061764636,-2,-2,-2,0,-1,-1,1,-1
84061765221,2,-1,-2,-2,-2,-1,0,-2
84061765221,-3,-2,-2,-2,-2,-1,-2,-2
84061787827,-2,-1,0,2,-2,-2,0,-1
84061787827,-3,0,-3,0,-3,-2,-1,-2
84061788448,-2,-2,-1,-2,-2,0,-2,0
84061788448,-3,-2,-3,0,-1,-1,1,-2
84061810087,-1,-2,-1,-2,-1,-2,-2,-1
84061810087,1,0,-1,-1,-1,-2,-2,0
84061810849,1,0,1,-3,0,-1,-2,-1
84061810849,-1,-2,0,0,-2,-1,-1,-2
84061824381,0,-1,-3,-3,-2,-1,-3,-1
84061824381,-3,-1,-1,0,-1,-2,-2,-1
84061825199,0,-1,0,0,0,-1,-2,-1
84061825199,-3,-2,0,-1,-2,1,-2,-1
84061847578,1,-1,1,-1,0,-1,-2,-3
84061847578,-2,-1,0,-1,-3,-2,-2,-1
84061848300,-1,-1,-2,-3,-2,-1,0,-1
84061848300,-1,1,-3,-1,0,0,-2,0
84061870053,-1,-2,-1,-2,-1,-1,0,1
84061870053,-1,-1,-2,-1,1,-1,-3,-1
84061870830,-1,-2,-1,-2,-1,-1,0,-2
84061870830,-2,-1,-1,-2,-1,-2,-2,-3
84061884573,-2,0,-1,1,-2,-2,-1,-1
84061884573,-2,-2,-1,-1,1,0,0,0
84061885203,-1,0,-3,-2,-1,-1,-3,0
84061885203,-1,-1,-1,-1,-1,-1,0,-1
84061907555,-2,-1,-1,0,1,-2,0,-1
84061907555,0,-1,0,-1,-3,0,-1,-1
84061908351,-1,-2,-1,-3,-1,-1,-1,-1
84061908351,-3,-1,-1,-1,1,-2,-1,-2
84061930097,-2,-3,-1,0,-1,0,-1,0
84061930097,-1,0,-1,0,-1,-2,-1,-2
84061930892,-1,-1,0,-1,-1,-2,-1,-1
84061930892,1,-1,-2,-1,-1,0,-1,0
84061944411,-3,0,-1,-1,-1,-1,-1,-1
84061944411,-1,-1,-1,0,1,0,-1,-1
84061945115,-1,-2,0,0,-1,-1,0,-1
84061945115,-1,-2,-1,0,0,-2,0,0
84061967575,-1,-1,0,-1,-1,0,-3,-1
84061967575,-1,0,0,-2,-1,-1,-1,-1
84061968365,1,0,0,0,0,-1,-1,-1
84061968365,-1,0,1,-1,-1,-1,-1,-1
84061990006,-1,-2,-3,-3,-1,-1,-2,-1
84061990006,-2,-2,-2,-1,0,-2,-1,0
84061990827,-2,-1,-2,0,-2,-2,-2,-1
84061990827,-1,-1,-1,-1,-1,-1,0,-2
84062004423,0,-1,0,0,-1,-1,-2,-1
84062004423,-1,-3,-1,-1,-1,-1,0,-2
84062005178,-1,-1,-3,1,0,-1,-2,-2
84062005178,0,0,-1,-2,0,0,-1,-2
84062027533,-2,-1,-1,-1,0,0,1,1
84062027533,-1,-1,0,0,0,-1,-1,-1
84062028316,-2,-1,-2,-2,-2,0,-1,0
84062028316,0,-1,-3,0,-1,-1,-2,-1
84062050025,0,0,0,-1,-1,-1,0,-1
84062050025,-2,-2,-1,-2,-2,-2,1,-1
84062050865,-1,-1,-1,-2,0,-2,-1,-1
84062050865,-1,0,-1,-1,-1,-1,-1,-1
84062064352,-1,0,-1,-1,-2,0,0,0
84062064352,-2,-1,-1,-2,-3,-2,-1,-3
84062065135,1,0,0,-1,0,0,0,-2
84062065135,-1,-4,-4,-2,-1,-3,-1,-1
84062087544,-1,-1,0,-1,-2,-2,-1,-2
84062087544,0,0,-2,0,-3,0,-2,-1
84062088351,-2,-2,-1,-1,-2,-1,-1,0
84062088351,-1,-2,1,0,2,-1,0,-1
84062110082,0,-2,-3,-1,0,1,-1,-1
84062110082,1,-1,-2,-1,-1,0,-2,1
84062110888,0,0,-2,-1,-2,-2,-1,-1
84062110888,0,0,-2,0,-3,-1,0,-1
84062124334,-2,-3,-2,-2,0,-2,-1,-1
84062124334,-1,-1,-1,0,-1,-1,-2,-1
84062125181,-2,-3,-1,0,0,-1,-3,0
84062125181,-1,-1,1,0,-1,0,-2,0
84062147531,-2,-1,-1,1,-1,-1,-2,-2
84062147531,-2,-1,-2,-3,0,-2,0,1
84062148357,-1,-3,-1,-1,0,-2,-1,0
84062148357,-1,0,0,0,-1,-1,-1,-2
84062170036,0,-2,1,0,-1,0,-1,-1
84062170036,0,-1,-1,-1,0,-1,0,-2
84062170890,-2,1,-1,0,-2,-1,0,-2
84062170890,-1,-1,-3,-2,-1,0,-2,0
84062184362,-1,-2,-2,-2,-2,-2,-3,-2
84062184362,-1,-1,1,0,-2,0,-1,-3
84062185157,0,-1,-1,-1,-1,-2,-1,-2
84062185157,-1,0,-2,-1,-1,-1,-1,-1
84062207553,-1,0,0,-1,1,-1,0,-1
84062207553,-1,-1,0,-2,-1,-2,-1,0
84062208357,-1,0,-3,-1,-1,-1,-1,-2
84062208357,-1,-1,-2,-1,-1,-2,0,-2
84062230065,-1,-1,-2,-2,-2,-3,-2,-1
84062230065,1,-1,0,0,0,-1,-2,0
84062230804,-1,-1,0,-2,-3,0,0,0
84062230804,-2,-1,0,0,-2,0,-2,-1
84062243766,1,-1,0,0,0,-3,0,-1
84062243766,-1,-1,-2,-1,-1,-1,-2,-1
84062251850,0,-1,-1,0,-1,-2,-1,-1
84062251850,-1,-1,-2,-1,-1,0,-1,-1
84062267586,-1,0,-2,0,-2,0,1,-1
84062267586,0,-1,-1,0,-1,-1,0,-2
84062268334,-3,-2,-1,-2,-1,-1,-1,0
84062268334,-1,-2,-2,-2,1,-1,-1,1
84062290060,-3,-2,-2,-2,0,-1,-3,-1
84062290060,0,-1,-2,-1,0,-2,0,0
84062290863,0,-1,-1,0,-2,0,-2,-1
84062290863,0,-2,1,-2,-1,-2,0,-2
84062303733,0,-1,0,-3,-2,-1,-1,-2
84062303733,-1,-1,-2,0,-3,0,-2,-1
84062311840,-1,-1,-2,-1,0,-2,-2,-2
84062311840,-2,-2,0,-1,-1,-1,-1,0
84062327505,-1,-2,-1,-2,-1,0,0,-1
84062327505,-1,-1,0,0,-1,-2,-1,-1
84062328297,-1,-2,-1,0,0,-1,-1,-1
84062328297,0,-1,-2,0,-1,-2,-1,-1
84062350042,-2,-2,-3,0,-2,0,-2,-1
84062350042,-1,0,0,0,-2,-1,-2,-1
84062351663,-1,-1,-1,0,-2,-1,-1,-1
84062351663,-1,0,0,-3,-2,-2,0,-2
84062363685,-1,-1,-1,-2,0,-1,0,-2
84062363685,-1,-1,-1,-2,1,0,0,-1
84062372693,-1,-2,0,0,-1,-1,0,0
84062372693,0,0,0,-1,-1,-1,-2,-1
84062387560,0,-3,-1,0,-1,-1,-1,-1
84062387560,-1,-1,0,-1,0,-1,0,-1
84062389150,-1,-1,-1,-3,0,-1,1,-1
84062389150,-1,-2,-2,-3,-1,-1,-4,-3
84062410095,0,-1,0,-1,-1,-2,-2,-1
84062410095,0,-1,-2,0,-2,0,-1,0
84062411671,-1,0,-2,-1,0,-1,-2,0
84062411671,-1,-2,0,-1,-1,1,1,0
84062423731,-1,0,-1,-1,-1,0,-1,-1
84062423731,-2,0,-1,-3,-1,-3,-2,-2
84062432711,-1,-1,-1,1,-3,0,2,-1
84062432711,1,1,-1,0,-1,0,0,-1
84062447558,-1,-1,1,-2,-2,-1,-1,-2
84062447558,-3,-4,0,0,-1,-1,1,-1
84062449243,-1,-2,0,-1,0,-2,-2,-1
84062449243,-2,-1,-3,-2,1,-1,-3,0
84062470039,-1,0,-2,2,2,-1,-1,0
84062470039,-2,-1,0,0,-1,1,-1,-2
84062471731,0,0,-2,-2,-3,0,-3,-1
84062471731,0,-1,1,1,-3,-1,0,-1
84062483747,-2,-2,0,-3,-1,-2,0,0
84062483747,0,-3,-2,-2,-1,-2,-2,-2
84062492711,-4,-3,0,1,-1,-1,-3,-3
84062492711,0,-2,-2,-6,0,-2,-1,0
84062507568,-1,-1,-8,-8,-3,-1,-1,-1
84062507568,2,-1,-1,2,0,-3,0,1
84062509189,0,-1,-1,-3,-2,0,1,-2
84062509189,-6,11,-2,0,-3,-2,-5,-2
84062530062,10,5,5,3,-1,1,1,-1
84062530062,-1,1,-3,-10,-1,0,0,-2
84062531693,1,0,0,1,-1,-1,-1,-1
84062531693,-3,0,0,1,-1,0,-1,-1
84062552569,-3,-3,-1,-3,-2,-1,0,-1
84062552569,-2,-1,-2,-10,-2,0,-1,-4
84062554211,3,0,2,36,4,-3,-1,0
84062554211,1,-5,-5,-12,-3,-2,1,0
84062567576,-4,-2,-2,5,-1,-1,-1,-1
84062567576,-2,-4,-2,-6,-4,0,0,-1
84062569183,-3,-3,-4,-20,-3,-1,0,-6
84062569183,2,-2,-1,4,1,0,-1,9
84062590034,-1,-3,4,-3,-2,-2,-2,0
84062590034,-1,2,-1,5,1,0,-1,0
84062591695,-3,1,-1,-6,-2,-2,-1,0
84062591695,-2,-3,-3,12,0,-2,-2,-4
84062612600,-1,1,-2,-10,-1,-1,0,-1
84062612600,-1,-2,-3,9,-2,-2,-2,0
84062614173,0,-2,1,-1,0,-1,-2,-1
84062614173,0,-3,2,-6,-1,-2,0,-3
84062627569,-3,-2,-1,1,-3,-2,-2,0
84062627569,0,0,1,10,1,-1,1,-1
84062629182,0,-2,-3,-7,-3,0,-1,1
84062629182,-1,-1,-2,-5,0,0,1,-1
84062650033,-3,-3,0,7,-2,-3,-3,-12
84062650033,3,0,0,-2,-2,0,-1,4
84062651700,0,-1,0,-2,-2,-1,-2,0
84062651700,-4,-2,1,-6,-1,0,0,-1
84062672561,1,0,-3,1,-1,0,-1,-1
84062672561,-1,-1,1,-3,-2,-1,-2,-3
84062674141,-5,0,-4,-4,0,-1,-1,-3
84062674141,6,-3,-1,-3,-2,-1,-1,3
84062686904,-4,-1,-2,-4,-2,0,0,0
84062686904,-2,0,-1,1,-1,-1,-2,-2
84062701252,-1,-3,0,-2,0,0,-2,3
84062701252,-3,0,0,3,0,-1,-1,-3
84062710790,2,-1,0,-24,-2,1,-2,1
84062710790,-3,-2,-2,14,0,-2,-2,-3
84062712359,1,0,-1,2,-1,0,-1,-2
84062712359,-2,-3,0,2,0,-1,-1,-2
84062732614,-2,-2,-2,-6,-4,-2,0,1
84062732614,-1,-2,-2,-11,-3,-1,-2,-3
84062736485,-4,0,-1,-1,0,-2,0,0
84062736485,-2,-1,0,10,0,-1,0,-2
84062746973,-1,0,-3,-5,-2,-2,-3,0
84062746973,0,-1,-1,-3,-1,0,0,0
84062753695,0,0,-1,1,-2,0,0,-2
84062753695,-1,0,-3,-1,0,0,-2,-2
84062770059,-2,-2,0,9,0,0,0,-2
84062770059,-1,-3,-2,-8,-2,0,-1,0
84062771770,0,-2,4,6,1,-2,0,-2
84062771770,-3,-1,-2,-6,-3,-2,-1,-2
84062792521,-1,0,-3,6,1,0,-1,0
84062792521,-1,-1,-2,-3,-2,0,0,-1
84062794175,0,0,1,-4,-3,-1,-1,0
84062794175,0,-2,-1,-3,-2,-1,-1,-2
84062806905,0,-1,-1,5,-1,-2,-1,0
84062806905,-3,0,0,2,0,-2,-2,0
84062813729,-2,-1,-3,-7,-2,0,-2,-2
84062813729,-2,-1,0,6,-2,0,-1,-2
84062830084,-1,0,0,1,-1,1,-1,-1
84062830084,-2,-1,-1,-1,-2,-1,-2,-2
84062831728,-2,-1,-3,-8,-3,-1,-3,-9
84062831728,1,-2,-1,-4,0,-1,0,8
84062852564,-2,-3,-2,1,-1,-1,-1,0
84062852564,0,-1,1,-1,0,0,0,-1
84062854156,0,-1,-4,-2,-1,-2,-3,1
84062854156,1,-1,0,-3,-2,-2,0,-4
84062866884,0,0,-1,-6,-1,-1,-2,0
84062866884,1,-1,-1,9,-1,-3,-1,-1
84062873729,0,-2,-1,-2,0,-1,0,-1
84062873729,0,-1,-4,-2,-1,1,-2,-2
84062897528,-2,-1,2,-1,-1,-1,-1,0
84062897528,-3,-1,-5,-8,-2,0,-1,-1
84062899128,-1,-2,1,6,0,0,0,0
84062899128,0,-1,-2,0,-2,-2,0,-3
84062912557,-3,-2,-4,-10,-1,-2,0,0
84062912557,-3,-1,2,3,-1,1,1,-3
84062914164,0,0,-1,0,0,0,0,1
84062914164,-2,0,-1,-4,-3,-2,-3,-2
84062926853,0,-1,-2,-8,-2,-1,-2,-2
84062926853,-2,-1,-1,8,-1,-1,-2,0
84062933733,-1,-1,-3,-6,-2,-2,-3,-1
84062933733,0,-2,0,0,0,0,-1,-1
84062950021,-1,-2,-2,5,0,-1,1,-2
84062950021,-1,-1,-4,-10,-2,0,0,0
84062951688,-1,-1,0,-2,-1,-1,0,2
84062951688,-1,0,-1,-1,-2,-2,-3,-2
