timestamp,emg1,emg2,emg3,emg4,emg5,emg6,emg7,emg8
89373913398,-2,-1,2,1,0,-2,3,9
89373913398,4,1,-2,-1,1,1,0,-10
89373916794,-11,-1,0,-1,0,0,2,0
89373916794,0,1,-8,-1,-1,-1,-8,2
89373917572,-5,0,1,-6,-1,0,-1,1
89373917572,8,-3,-5,-2,-2,-1,-2,0
89373918366,-32,-2,1,0,0,-1,-1,-3
89373918366,1,-3,1,-1,-1,-1,1,0
89373924734,4,0,-2,0,-2,1,0,-4
89373924734,-3,0,-2,5,-2,-2,-2,-3
89373929776,7,0,-1,-2,-1,0,-2,-1
89373929776,-3,-2,1,-1,0,-2,1,-1
89373941258,-6,-3,-3,-3,0,-2,-5,-6
89373941258,-7,-1,2,-3,-1,-3,6,-1
89373953462,6,1,0,1,1,1,2,4
89373953462,0,-1,-2,-2,-1,0,-1,-3
89373967708,3,-2,0,1,-1,-1,-3,-3
89373967708,-4,-3,0,-1,-1,1,-2,3
89373984763,12,0,-2,-1,-1,-2,-3,-3
89373984763,-1,1,1,0,-1,-2,-2,-3
89373986420,-4,-4,-3,-3,-2,0,5,0
89373986420,1,-1,0,-1,-1,0,-7,-2
89374023081,-4,0,-1,2,0,-1,9,-5
89374023081,7,-1,2,0,-2,-2,-5,5
89374023878,-4,-2,-1,-1,-2,-1,1,-2
89374023878,-1,1,0,0,1,-3,-11,-6
89374024696,-3,-1,-1,-1,-1,0,1,-5
89374024696,-9,-1,-3,-2,-1,0,5,1
89374027171,22,3,-2,-2,-2,-1,-4,2
89374027171,-8,-2,-1,-2,-3,1,1,-7
89374035312,-8,-4,0,-1,-1,0,-3,4
89374035312,17,1,0,1,-1,-1,-3,0
89374042116,-9,-1,-2,-1,0,0,0,-2
89374042116,-4,-2,-2,-1,-2,-1,2,2
89374049603,1,1,1,-1,0,-1,-4,3
89374049603,-8,-4,-4,0,-1,-2,-7,-5
89374064609,-3,-1,-2,-2,1,-2,-3,-1
89374064609,6,-1,-2,-3,-1,0,2,4
89374072105,-1,0,-1,0,-2,-1,-6,-3
89374072105,-4,-3,-6,-4,-3,-2,1,-2
89374095965,-1,-2,1,-2,-3,-2,4,0
89374095965,-2,-3,-1,0,-1,-2,-3,-2
89374096748,-3,0,-3,-3,-3,-2,-4,-5
89374096748,5,0,2,-2,0,0,-2,0
89374110308,6,-2,-1,-1,-1,-2,-1,6
89374110308,-4,-1,-2,-1,0,0,6,3
89374110956,-5,-3,-2,-2,-1,-3,-11,0
89374110956,6,4,3,0,0,-1,10,-2
89374132798,-5,-1,0,0,-1,0,-1,-6
89374132798,-4,-3,-1,-1,0,-1,0,-1
89374133588,-4,0,-2,0,-2,1,-1,-3
89374133588,8,1,-1,-2,-3,-3,-1,1
89374155944,-10,-2,0,0,-1,0,-6,-3
89374155944,-3,0,0,-1,-2,0,6,-4
89374156711,-3,-2,0,0,0,0,3,0
89374156711,-3,-1,-1,0,-1,-3,-2,-2
89374170360,2,-1,0,-1,0,0,0,0
89374170360,1,-2,-2,0,-1,-1,-3,-2
89374171097,7,-1,0,-1,0,0,1,0
89374171097,-7,-3,-1,-1,-1,-2,0,-1
89374192801,3,1,1,0,-1,-1,2,1
89374192801,2,0,-1,-2,-2,-2,-4,-2
89374193555,5,-2,-1,-1,-3,-2,3,2
89374193555,-7,-2,-2,-1,0,-2,-6,-5
89374215935,-6,-1,0,1,-2,0,0,-3
89374215935,3,1,0,-1,-2,-2,-4,-1
89374216744,2,-1,-2,-2,-3,-1,0,0
89374216744,-6,-2,-1,0,-2,-1,-6,-5
89374230321,0,-1,-2,-1,-1,-2,-1,2
89374230321,-2,-2,-2,-1,-1,-2,-4,-3
89374230975,14,0,1,-1,-1,3,9,11
89374230975,-10,-2,0,-1,-2,-1,-4,-3
89374252830,-1,0,-3,0,0,-2,-2,-5
89374252830,-3,3,1,0,0,-1,-1,-1
89374253567,-5,-1,-1,0,0,-2,-1,-6
89374253567,1,-1,-1,-1,-1,1,1,0
89374283479,-4,-2,0,-1,-2,0,-1,-2
89374283479,1,0,-2,-2,-2,-3,-3,3
89374284292,-2,-3,-2,-2,0,-2,-2,-2
89374284292,1,1,-1,-3,0,0,-2,-2
89374290339,-4,-2,-1,-2,0,-1,-1,-1
89374290339,0,-2,0,3,-1,0,1,-2
89374291065,1,2,-4,-3,-1,-2,-4,-2
89374291065,-6,-5,4,0,-1,-2,0,-2
89374320946,4,2,-9,4,3,1,-1,2
89374320946,1,-2,15,21,-1,-1,-1,2
89374321756,-7,-6,-14,-35,-4,-4,1,-1
89374321756,-1,0,-3,-7,-3,0,-1,-1
89374335988,0,0,6,18,0,-1,3,2
89374335988,3,4,17,20,4,0,-2,0
89374336756,1,0,1,24,2,2,-12,-3
89374336756,-10,-1,-5,3,-4,-1,15,-1
89374349607,10,-3,-6,-11,-3,-3,-5,-2
89374349607,-4,-2,-14,-38,-6,-2,-6,-4
89374357768,-2,-1,7,12,0,-2,0,7
89374357768,4,1,-3,-4,0,1,-6,0
89374372778,-9,-2,1,2,-1,0,4,-3
89374372778,-3,-3,-6,1,-2,-2,2,-1
89374373567,2,-1,0,0,-1,-1,-3,-6
89374373567,-2,0,-1,3,1,0,-4,0
89374396006,-3,0,1,-8,-2,-2,-1,1
89374396006,1,-2,-6,-3,0,0,-5,1
89374396791,-2,-2,-2,-9,-1,0,1,-2
89374396791,4,-1,2,1,-2,0,1,3
89374410068,-4,0,0,-1,-2,0,0,-4
89374410068,1,-2,-7,-9,-1,-2,-2,-1
89374417801,-3,-2,0,3,-2,0,2,-1
89374417801,-2,0,-1,1,-1,-5,-9,-5
89374432751,1,-5,-1,-5,-3,1,-3,4
89374432751,12,2,-3,-2,-1,-1,1,0
89374433543,-5,-1,-1,-2,-1,-4,2,-1
89374433543,3,-2,0,0,-1,2,-12,-2
89374455948,-24,-3,-3,-6,1,-1,15,-3
89374455948,15,3,-1,0,-1,-1,7,18
89374456787,5,1,1,1,0,0,-6,-4
89374456787,0,-2,-1,-4,1,0,-1,5
89374469642,1,0,0,-1,-2,-2,-11,-10
89374469642,-12,-3,-3,-1,-1,-1,3,-2
89374477810,-2,-1,-1,-2,-1,-1,2,-3
89374477810,-2,-1,-1,0,-2,-1,0,-1
89374492767,6,1,5,3,0,-1,-5,-1
89374492767,-15,-4,-7,-6,-2,-2,5,-5
89374493536,15,2,-2,-4,-3,-2,-5,-2
89374493536,-3,1,-2,0,0,-4,-3,-3
89374515946,1,-2,-5,-1,-1,0,0,-1
89374515946,-1,1,3,1,0,0,-2,-6
89374516720,-13,-2,-1,2,1,1,1,-6
89374516720,-3,-2,-1,-2,-1,0,3,-2
89374529567,16,1,-1,-2,-1,-2,-2,4
89374529567,-12,-3,-3,0,1,-1,-4,-10
89374537821,-5,-1,0,-4,-1,-2,0,0
89374537821,0,1,-1,1,-1,-2,3,0
89374552743,-7,-2,-1,-3,-1,0,-2,-2
89374552743,4,2,-1,0,-1,0,-4,-5
89374553523,-3,-1,-1,1,-1,-1,-4,1
89374553523,7,0,-1,-1,-1,0,5,1
89374575966,-20,-3,-1,0,-2,-3,-2,-2
89374575966,17,0,-2,-2,-1,0,-5,1
89374576751,1,1,1,-2,-1,-2,3,1
89374576751,-7,-3,-1,0,-3,-2,-1,-3
89374589601,1,0,-2,-3,-2,-2,-2,4
89374589601,-6,-2,-2,0,0,0,-3,1
89374597770,-3,-2,-2,-3,-2,0,-2,-1
89374597770,2,-2,-3,-1,0,0,0,-3
89374612783,3,0,-2,-1,-2,-3,2,-5
89374612783,-5,-2,0,0,-3,-4,-2,-3
89374613565,0,-1,1,0,0,-1,2,-2
89374613565,-5,-2,2,-1,-1,-1,0,-2
89374635964,4,-1,-10,-5,-2,-2,-4,0
89374635964,-3,-1,0,0,-1,-1,-1,-2
89374636725,-3,-2,-3,-1,-2,-1,2,0
89374636725,-5,1,2,1,1,0,-2,-8
89374649595,6,3,15,14,2,0,-3,-2
89374649595,-7,-1,-10,21,0,-1,-3,-3
89374657834,6,-9,-17,-77,-12,-7,-7,11
89374657834,-11,-2,-3,-3,0,-1,-3,-9
89374672754,10,1,-5,-9,-2,-1,1,4
89374672754,-4,0,5,6,1,0,3,0
89374673507,-7,1,11,33,2,0,-3,-2
89374673507,2,-3,-5,-13,-3,-2,4,2
89374695955,-1,-1,1,0,0,-2,-3,-1
89374695955,-2,-1,2,1,-1,-1,0,-3
89374696751,-5,0,-4,-2,0,1,0,-3
89374696751,5,0,-1,2,-3,-3,2,1
89374709614,-4,0,-1,4,0,-2,-4,-7
89374709614,-2,-3,0,-7,-1,0,1,-2
89374725365,2,0,1,12,1,-1,-1,0
89374725365,2,0,0,4,-1,-2,-4,-12
89374733043,-11,-5,-4,-9,-3,1,-1,-5
89374733043,7,-4,-2,-12,-3,-6,-7,39
89374733717,-2,2,1,7,0,1,5,-10
89374733717,2,-2,-3,1,0,0,4,5
89374756193,-4,0,0,-3,-2,-1,-8,-2
89374756193,0,-1,2,-7,-1,0,-2,-4
89374756789,-4,1,-3,11,-1,-1,-3,-2
89374756789,3,0,-5,-1,-1,0,1,8
89374769836,1,-2,-1,0,0,0,1,-3
89374769836,-2,-1,-1,-2,-1,0,-2,-10
89374777875,0,0,2,0,1,-2,2,-3
89374777875,-2,1,1,0,1,-1,-3,-6
89374792975,0,-2,-3,-3,-2,-4,-2,3
89374792975,-5,-1,-4,-5,-1,1,1,-6
89374793650,1,1,2,3,-1,0,-1,-5
89374793650,11,-2,1,0,0,-1,-6,17
89374816040,4,-1,-1,-1,-1,1,7,-3
89374816040,-12,-4,0,-1,-2,-2,-1,-5
89374816811,-3,-3,-1,1,-1,-1,1,2
89374816811,-7,-1,-1,-1,-2,-2,-4,-17
89374838721,4,-2,-1,-2,-3,-2,0,9
89374838721,-12,-3,-2,-3,-3,-3,-4,-13
89374839398,3,-1,0,1,-1,-1,4,3
89374839398,-2,-2,-1,0,-1,-1,-1,3
89374852874,-11,-2,-1,-3,0,-1,2,-5
89374852874,23,0,-3,-1,-2,-1,-2,-2
89374853663,-9,-1,-3,1,-1,-1,0,1
89374853663,6,1,2,0,-2,1,-4,-2
89374876219,2,0,-3,-1,-1,0,1,3
89374876219,-4,0,0,0,-1,-3,3,0
89374876798,-3,-3,-1,0,-2,-2,-3,-3
89374876798,0,1,-2,-1,-2,-1,2,1
89374898681,-4,-3,-3,-3,-1,-1,-2,-6
89374898681,-1,-1,0,-3,-1,0,0,-3
89374899363,3,2,0,-1,-3,-1,-1,-3
89374899363,-7,-2,-2,-2,-2,-1,-2,-1
89374912879,2,-1,2,4,-3,-5,-7,-3
89374912879,-3,0,-4,-2,1,1,5,0
89374913626,5,3,14,17,4,0,-3,1
89374913626,-4,-4,-16,4,-1,0,-2,-2
89374936201,-5,-6,-11,-67,-7,-5,-3,-4
89374936201,3,0,3,5,0,1,1,-2
89374936826,-2,-1,3,-7,-4,-2,-4,-4
89374936826,-1,1,5,15,0,-2,-2,-1
89374958465,1,3,14,24,4,0,2,-1
89374958465,0,-1,-9,7,1,2,1,0
89374959275,-2,-7,-8,-28,-8,-5,-4,-2
89374959275,-3,-1,3,0,-2,-4,0,-3
89374972871,1,-2,-1,8,-1,0,-2,-1
89374972871,0,3,5,4,3,3,2,2
89374973552,1,1,0,17,2,2,0,-2
89374973552,-1,-3,-2,-12,-2,-4,-1,0
89374994715,0,1,-4,5,-2,0,0,-1
89374994715,-1,1,2,1,-3,-5,-5,-2
89375003570,-4,-6,-9,-4,-3,0,0,-8
89375003570,-2,-2,1,-7,0,2,5,3
89375018496,-2,0,-2,6,-1,-8,-3,0
89375018496,0,-2,-2,-7,-16,-28,-11,-4
89375020053,-1,1,-5,-5,-8,14,9,4
89375020053,2,1,5,1,32,20,0,-1
89375040934,-4,-1,0,9,-12,-16,1,0
89375040934,3,-1,-2,-3,-5,27,3,0
89375042553,1,2,-1,4,49,23,2,1
89375042553,-2,-2,0,-1,-11,-6,2,2
89375054635,1,0,-2,-3,-36,-31,-8,-1
89375054635,-26,-8,-5,-10,-32,-17,-4,-5
89375063672,25,4,3,7,63,24,3,-6
89375063672,-9,0,2,4,-7,2,-1,3
89375078532,4,-1,-2,-5,-39,-54,-19,-2
89375078532,0,2,1,-6,-15,-10,-7,-4
89375080150,-2,-3,-8,-12,-8,-18,12,0
89375080150,-5,-1,1,0,-79,36,16,3
89375101170,8,2,0,14,110,119,36,3
89375101170,16,4,14,29,16,14,2,3
89375102640,-12,-7,-1,-3,-80,-70,-28,-4
89375102640,0,-5,-8,-26,-105,-128,-33,-7
89375114624,-1,0,-4,-16,-79,18,4,11
89375114624,7,2,-3,5,76,108,62,-6
89375123618,-4,2,1,16,117,-7,-33,14
89375123618,-6,-7,3,4,-49,-44,-6,-8
89375138516,-1,2,-3,-6,-15,-49,-50,-11
89375138516,1,-6,-5,-20,-82,13,29,11
89375140067,-10,-3,-1,0,22,64,-5,-9
89375140067,3,3,0,14,81,28,36,-9
89375160923,1,2,6,16,68,-23,-32,6
89375160923,-2,-6,-4,-10,-28,-28,-2,-6
89375162516,-10,-5,-9,-16,-116,-58,-2,-10
89375162516,1,-1,-7,-14,-34,21,-11,9
89375174621,-7,-2,-2,-3,29,1,39,-16
89375174621,-2,-1,-5,-4,17,-34,-28,1
89375183657,13,3,5,9,0,15,14,18
89375183657,-2,2,2,3,31,-6,-16,-1
89375198768,0,-3,-5,-13,-88,-54,-2,-9
89375198768,4,5,-2,8,50,73,-7,1
89375200146,8,3,5,22,85,107,36,4
89375200146,6,-1,3,9,-4,-28,28,9
89375221188,-12,-7,0,2,-66,-44,-12,-3
89375221188,-10,-4,0,-6,-17,-72,-36,-8
89375222667,3,7,-1,-18,-61,-51,0,-7
89375222667,4,-6,-9,-17,1,8,-38,-10
89375234899,-6,-4,-8,-9,1,14,16,-3
89375234899,2,2,-3,-10,13,-10,7,5
89375243593,-12,-7,-2,3,-19,3,-9,-5
89375243593,2,2,1,12,56,38,-2,-3
89375257733,6,-1,5,11,8,22,11,5
89375257733,-4,-1,-1,-4,-4,-12,-19,-8
89375266081,2,0,-1,-3,-21,-25,18,10
89375266081,-10,-1,0,-7,-7,-4,-20,-8
89375281093,3,-1,-1,-9,20,25,3,2
89375281093,1,0,-1,2,-9,-11,-6,-4
89375282634,-2,-2,-5,-10,-33,-25,-17,-8
89375282634,-1,-2,-3,22,15,9,6,0
89375303539,1,2,3,10,18,16,7,2
89375303539,-1,1,0,-3,-10,-19,2,1
89375305098,-4,-3,-2,-7,-19,-14,-9,-2
89375305098,-1,0,1,-5,20,14,14,3
89375317839,-1,0,-3,9,9,10,-1,-4
89375317839,-8,-4,-1,-3,-13,-19,-8,4
89375324848,0,-3,-3,3,-1,-2,1,-6
89375324848,17,7,0,-9,2,1,-6,5
89375340967,4,-4,5,-7,-8,1,-5,-2
89375340967,-4,-16,-10,0,2,-4,2,6
89375342528,-13,0,-3,4,-1,1,2,3
89375342528,-9,-15,-10,-7,-4,-1,-28,-8
89375363714,2,10,8,0,5,3,71,21
89375363714,-6,-1,-2,3,-1,-3,15,-8
89375365123,-12,-4,-6,-7,-7,-9,-27,8
89375365123,5,-8,9,2,-3,-2,15,2
89375378003,-11,-4,-1,2,5,7,-23,-9
89375378003,-14,-27,-12,1,-2,3,-5,-10
89375392285,11,6,7,-4,-9,-4,5,-4
89375392285,-1,15,0,-2,1,2,4,4
89375401185,3,2,1,0,4,5,-4,3
89375401185,3,6,-2,-6,-4,-5,0,0
89375402626,-2,-4,-2,2,-7,-7,-9,-7
89375402626,-4,-10,-1,3,6,4,3,1
89375423533,-10,-3,-8,-7,0,0,-8,-3
89375423533,1,8,3,-4,-4,-1,-9,-4
89375425131,2,-1,-4,3,1,-6,1,-1
89375425131,-4,7,4,1,3,2,19,4
89375437888,13,-7,-5,-1,-1,-2,-36,-10
89375437888,-5,7,2,-1,0,-3,-3,3
89375444609,12,1,10,2,-2,6,92,21
89375444609,-10,2,-3,-3,0,-4,1,-12
89375461133,4,-4,-4,-1,0,-2,-14,5
89375461133,16,9,3,-1,-1,4,17,4
89375462573,-9,-4,-3,0,-3,-7,-30,-22
89375462573,-1,-13,-7,-4,-5,-1,-8,14
89375483445,-4,4,-3,1,1,-4,51,-6
89375483445,5,4,1,-2,-1,-3,-22,-1
89375484967,-2,-4,-5,-4,-2,0,-13,-1
89375484967,-2,4,1,-3,-2,0,4,-12
89375497796,-2,-3,-1,2,2,6,-36,-7
89375497796,-7,-5,-1,3,-1,-6,17,10
89375504598,6,2,1,-2,-1,3,-96,0
89375504598,-15,-7,0,-1,-2,-4,42,-11
89375521288,6,0,0,1,1,-1,-6,11
89375521288,1,4,-1,-3,-7,-5,-42,-2
89375522667,-6,-3,-3,-5,-5,-10,-17,-12
89375522667,-8,-5,-2,2,8,7,17,6
89375543522,-8,-1,-3,0,2,-1,5,-7
89375543522,1,0,1,4,-3,-3,2,2
89375545103,-4,0,-3,-9,-1,-6,15,-4
89375545103,-1,-3,-7,-5,-15,2,13,-1
89375558032,1,-4,-2,-5,9,10,-17,-6
89375558032,0,-6,4,10,14,-1,-15,1
89375564780,-12,-6,1,6,-6,-2,81,14
89375564780,7,7,4,-15,-15,-9,-34,-7
89375581278,-1,7,-2,2,-1,-18,-5,-2
89375581278,4,-8,0,44,-7,32,-4,-4
89375582713,6,0,-5,-21,70,23,-20,-5
89375582713,1,2,3,12,16,5,1,1
89375603506,-1,0,5,-8,-17,-10,7,6
89375603506,4,6,1,-18,-19,-23,-4,-6
89375605159,0,-6,-7,10,-38,-23,4,-4
89375605159,-9,-1,-3,-9,-4,6,-11,-5
89375617845,-4,-3,-2,0,7,2,-7,-3
89375617845,-6,-1,0,-11,-16,-11,9,-4
89375624591,0,-1,1,-2,-2,7,15,9
89375624591,7,0,-3,-5,4,-15,-25,-1
89375641121,-1,-3,-2,7,-1,12,5,-1
89375641121,-5,-1,2,-12,11,8,2,-3
89375642643,6,4,-2,5,-13,-7,-13,-2
89375642643,-1,-4,-5,12,3,1,-3,-3
89375663504,-12,-4,1,-8,7,0,5,-5
89375663504,0,2,0,14,23,10,10,0
89375665088,2,1,1,-15,-10,-6,-17,-6
89375665088,4,3,-12,-8,-6,0,22,5
89375677880,2,5,6,-5,-15,-4,-14,-3
89375677880,-16,-3,-9,1,11,5,5,-4
89375684903,1,1,6,1,4,8,1,1
89375684903,1,4,8,-14,-13,-7,-19,-2
89375700983,-5,-17,-13,4,4,-7,-2,-3
89375700983,2,5,-1,10,-14,-13,1,-2
89375702594,-3,0,-5,-12,-1,-2,-3,-4
89375702594,1,2,7,12,5,2,-5,-1
89375723577,-1,-1,-2,-27,-24,-2,-2,-3
89375723577,4,6,13,-22,-3,-4,4,1
89375725059,-5,-4,6,21,1,6,-7,-3
89375725059,0,-5,-8,14,10,-1,-8,-1
89375737223,-2,-1,-6,-19,-3,5,2,0
89375737223,1,-2,1,14,8,-2,-1,-1
89375746213,9,9,3,-1,1,6,3,1
89375746213,-8,-7,-7,-32,-33,-12,-5,-3
89375761173,-10,-11,0,17,5,-1,1,0
89375761173,-5,-11,-5,-19,-8,-2,0,-2
89375762612,-2,8,5,2,14,3,-2,-2
89375762612,3,3,-2,14,6,0,-3,-2
89375783666,3,3,1,5,-4,0,-3,1
89375783666,5,2,0,-10,7,0,0,0
89375785031,-2,-8,-11,4,-11,-8,-5,-3
89375785031,0,0,1,-1,1,0,-5,-1
89375797324,1,3,-3,-1,4,-1,-1,0
89375797324,2,-4,-5,-1,0,0,-1,-2
89375806195,0,0,0,1,-2,-3,-1,-1
89375806195,-10,-4,-4,1,-9,-2,-1,-1
89375821192,2,4,3,-4,6,-1,0,0
89375821192,0,-2,-4,0,-4,-3,-2,-3
89375822676,-6,-22,-19,-7,-8,0,-3,-3
89375822676,6,16,15,4,13,6,2,1
89375843677,-7,-9,-1,12,3,0,2,-1
89375843677,-5,-2,-3,-6,-9,-5,2,-1
89375845133,-7,4,-2,-4,-1,-3,-4,1
89375845133,7,-10,-7,-1,6,2,4,-13
89375857085,0,2,-7,3,-5,-3,-10,7
89375857085,0,-9,7,-3,-3,-2,9,-3
89375866121,4,8,1,1,-1,0,2,7
89375866121,0,-16,2,2,-2,-3,-24,-1
89375881252,7,10,4,-2,0,2,-2,0
89375881252,2,-9,-7,-2,0,2,4,17
89375882669,-12,-1,-3,2,-4,-3,0,-18
89375882669,31,4,2,-4,-1,7,-6,-1
89375903566,-31,-8,-9,-1,0,-11,3,-9
89375903566,-7,2,-4,-2,-9,-10,-14,21
89375905127,7,-3,1,0,1,10,-4,-10
89375905127,10,-2,-3,-6,5,-2,-5,-6
89375917168,12,2,5,4,3,8,5,10
89375917168,-10,-10,-8,-1,-3,-5,15,-11
89375926170,-2,9,6,-2,-7,-4,-41,6
89375926170,-5,14,8,-1,-1,2,2,-8
89375941035,8,7,2,0,1,-4,46,8
89375941035,2,1,0,0,-2,-4,31,-5
89375942601,10,-9,-3,-1,1,-2,-26,26
89375942601,-32,-3,-5,2,3,-8,32,-46
89375963726,-6,-1,-3,-2,-6,-7,-5,13
89375963726,-4,8,-1,-4,-5,16,-37,0
89375965156,0,-1,-4,0,4,1,31,-3
89375965156,7,-3,-3,-1,0,0,-2,34
89375977300,-14,-1,0,0,-1,3,-10,-15
89375977300,7,-3,-2,1,4,8,18,-6
89375986174,2,-5,-4,-2,-7,-11,-12,0
89375986174,-15,-4,-3,-3,-7,-3,-16,-2
89376001001,19,-13,-5,-4,-6,-8,-26,-15
89376001001,-7,8,4,1,4,12,-61,0
89376002687,-14,-2,0,2,6,3,102,14
89376002687,2,-3,-3,-3,-3,-15,-15,11
89376023570,20,-3,-4,-3,-6,0,-14,-16
89376023570,2,4,4,7,10,17,30,2
89376025130,19,3,1,-4,-5,3,-29,-14
89376025130,-35,-5,-2,-9,-14,-26,-19,-39
89376037311,-2,0,-1,5,0,6,9,9
89376037311,-7,-6,0,5,21,17,10,4
89376046189,-7,-9,-5,5,-4,3,8,-3
89376046189,14,2,-8,-4,10,7,-11,14
89376061214,-4,-3,1,0,-8,-11,2,-3
89376061214,6,8,2,6,-10,-19,3,-8
89376062625,-5,-7,-10,-8,-6,-2,-17,-6
89376062625,-5,-5,-3,-2,-10,-5,12,10
89376083654,-3,1,-4,0,12,1,-7,-3
89376083654,5,6,6,-2,-11,-7,-1,0
89376085049,-10,-7,-4,-11,1,-4,-4,-4
89376085049,5,-2,-6,-8,-11,5,-8,4
89376106198,-6,2,-2,7,1,-10,3,-2
89376106198,-1,-8,-1,-13,13,10,-4,-4
89376107633,1,7,6,-1,-17,-45,-27,-7
89376107633,-5,0,0,9,-33,-9,9,-1
89376119723,12,5,3,0,43,79,19,14
89376119723,0,5,3,18,88,51,16,2
89376128621,5,7,11,11,3,1,3,4
89376128621,3,0,2,-11,-33,-40,-5,5
89376143529,-13,-5,-3,-16,-85,-78,-26,-12
89376143529,-3,-11,-16,-9,-20,2,-7,-10
89376145048,4,11,11,23,57,43,14,2
89376145048,8,5,4,11,19,14,6,8
89376166060,-15,-9,1,0,-27,-24,-13,-8
89376166060,-3,-7,-15,-24,-39,-28,-18,-11
89376167626,0,7,4,-8,-27,-22,-5,-3
89376167626,-6,-12,-2,24,67,45,15,3
89376180313,2,0,-13,-60,-31,8,0,3
89376180313,-2,3,6,27,-34,-26,-11,-3
89376187136,-7,-5,-4,-50,-87,-83,-10,-6
89376187136,7,8,8,20,81,102,28,8
89376203468,9,12,15,48,123,77,26,8
89376203468,0,-6,-5,67,-43,-41,-3,3
89376205028,2,2,3,-10,-90,-84,-18,0
89376205028,-5,-8,-15,-32,-116,-96,-23,-8
89376217157,-2,-6,-11,-25,-30,-23,-11,-1
89376217157,1,3,-4,-27,9,-4,-5,-7
89376226054,3,11,12,22,37,46,6,1
89376226054,-5,0,-3,-31,7,2,-2,0
89376240387,-1,4,10,-6,1,7,-3,-1
89376240387,1,-8,-5,0,17,-3,0,-2
89376247142,-2,15,0,14,19,32,7,0
89376247142,1,8,17,8,6,11,3,3
89376263475,-2,-7,-4,10,-5,-18,-6,-2
89376263475,3,15,-2,-17,-15,-15,-2,0
89376264986,-1,-28,-1,3,20,25,1,-3
89376264986,0,-5,-6,18,3,-5,-2,0
89376285961,-5,4,-4,-10,-14,-13,1,-2
89376285961,0,-1,1,-17,-6,-1,1,0
89376287598,-3,-5,-10,-4,15,20,1,0
89376287598,-1,1,-4,1,-6,-10,-4,0
89376300315,-3,-14,-2,8,-7,-9,-2,4
89376300315,-7,-19,-6,-12,-7,4,3,-2
89376307141,0,-10,-10,0,6,4,0,4
89376307141,-4,6,2,1,-6,-6,-1,-10
89376323523,13,8,-5,4,1,0,-1,8
89376323523,-6,-6,6,-4,-4,-3,-2,-10
89376325061,16,9,4,6,7,7,-1,19
89376325061,-4,-8,-3,-4,-2,-1,4,-8
89376353581,-17,-4,0,4,-1,-1,-3,8
89376353581,6,12,-5,-8,-7,-9,-5,-16
89376355132,-2,-26,2,1,4,6,-1,-1
89376355132,6,5,-2,-2,0,1,21,9
89376360556,-36,-5,-4,3,-4,-6,-7,-17
89376360556,9,4,10,-2,-3,-3,2,17
89376367343,-11,3,-11,-5,3,2,-11,-21
89376367343,-3,-9,-10,-5,0,1,0,1
89376383668,3,-6,-3,2,-7,-7,19,-2
89376383668,5,0,-8,-5,-3,-5,-5,-1
89376385101,-20,1,-1,-6,-1,0,-4,-15
89376385101,11,3,3,2,-1,-4,-2,-1
89376406197,7,3,-2,1,0,-2,-8,-3
89376406197,-3,-4,-9,-5,-1,1,0,1
89376407650,4,15,5,-1,0,-2,6,-2
89376407650,-5,1,1,0,-3,-2,-22,-1
89376420473,10,3,3,4,0,-2,-10,-4
89376420473,-9,-7,2,-4,-3,0,-19,-3
89376427105,-3,-6,-5,-3,-6,-4,36,2
89376427105,-9,-5,-4,-5,-3,-1,-3,-3
89376443505,-4,5,6,3,7,7,40,2
89376443505,25,2,0,-1,0,-1,1,7
89376445152,-6,0,-5,-2,-1,0,-19,-10
89376445152,7,2,2,-2,-3,-4,-5,9
89376466212,3,-4,2,-1,-2,0,-5,-5
89376466212,-10,1,2,-1,4,3,3,1
89376467592,2,-2,-2,-1,-1,-1,-4,-1
89376467592,-2,-5,-4,-2,-5,-4,0,-3
89376480530,-1,1,0,1,-2,-4,-10,-3
89376480530,-7,-1,-3,0,0,0,6,0
89376487368,0,0,0,-3,-5,-2,-9,2
89376487368,-5,-3,-3,-2,-4,-9,-6,-5
89376503697,9,-1,1,1,6,6,4,3
89376503697,-8,1,3,0,2,1,-9,-2
89376505132,0,-3,0,1,0,-3,8,0
89376505132,0,0,8,-5,-19,-31,-26,-1
89376526199,1,-2,-9,-5,-31,-5,-8,-4
89376526199,-3,-5,-13,-3,48,35,-1,-7
89376527628,1,-2,-1,6,28,11,-9,4
89376527628,1,3,5,9,-16,33,10,-2
89376539910,-4,-1,14,-1,-1,-59,-12,4
89376539910,1,0,-17,-8,-28,13,0,4
89376548613,-1,0,-9,1,21,12,-4,0
89376548613,-1,1,14,5,21,1,3,-3
89376562795,2,-5,-24,-8,-20,-7,-5,-3
89376562795,-2,2,14,-2,-12,-18,3,-2
89376569806,-1,-2,7,0,-13,-4,0,-2
89376569806,-1,2,-5,0,-3,2,10,2
89376586192,-4,-2,-8,-9,5,9,-1,-5
89376586192,-2,-1,4,-1,-2,-13,-1,0
89376587668,-4,-1,-13,-3,-7,4,-4,-5
89376587668,11,0,5,2,4,-7,2,8
89376599823,-14,-1,6,4,2,12,-22,-11
89376599823,-1,1,0,-1,7,5,27,3
89376608605,-5,-2,2,0,-5,-1,0,0
89376608605,5,-1,-4,-5,-1,-8,-3,-4
89376623480,3,0,-6,-4,-15,-7,-10,-5
89376623480,-18,-4,-3,0,-14,-18,2,-11
89376625057,15,1,3,-1,15,9,-31,-1
89376625057,4,-1,-7,0,20,29,51,14
89376645939,4,4,7,9,23,28,4,3
89376645939,2,0,3,0,-17,-18,-2,-2
89376647525,-9,-2,-1,0,-2,-11,-3,-3
89376647525,0,-4,-6,-9,-6,-10,-14,-4
89376659625,3,2,0,1,-15,-11,3,0
89376659625,-3,-3,-5,1,-5,-4,-6,-2
89376668621,-1,-8,-21,-13,-8,-6,8,-3
89376668621,-6,-1,-3,-5,-1,2,-9,-6
89376683471,-4,-1,4,-1,4,5,7,0
89376683471,4,1,1,-3,0,-4,-5,4
89376685073,-1,-3,0,-1,-7,-2,-11,2
89376685073,-8,-3,-4,0,-4,-9,13,-11
89376706050,1,-1,-2,-1,4,7,-5,-3
89376706050,0,0,0,0,17,6,-9,5
89376707581,7,4,9,3,-11,-1,8,-6
89376707581,-12,-6,-14,-8,-20,-28,-15,-3
89376719636,0,-1,0,1,-10,-11,-3,0
89376719636,0,-5,-7,-3,12,41,18,1
89376728535,-4,3,9,5,32,10,6,-1
89376728535,-4,-3,1,-9,-45,-79,-22,-2
89376743417,0,-2,-8,-12,-58,-16,-5,-4
89376743417,0,2,-2,7,47,80,8,1
89376745006,2,4,20,30,95,70,21,9
89376745006,3,4,4,21,12,22,6,3
89376766004,0,-2,8,-3,-38,-54,-23,-2
89376766004,-6,-4,-3,-20,-76,-70,13,-7
89376767564,-4,-4,-14,-21,-49,-32,-14,-5
89376767564,-2,-2,-6,-5,23,13,6,-1
89376779663,-2,-1,0,0,16,12,0,-6
89376779663,4,-1,4,3,2,3,-14,3
89376788598,-13,-4,-9,-5,-12,-6,3,-3
89376788598,10,2,0,-1,-1,10,3,0
89376803453,2,-3,10,7,21,16,-2,0
89376803453,-17,-10,-25,-1,12,0,4,-6
89376805042,5,2,11,6,-21,-18,-5,2
89376805042,-10,-7,11,-9,-3,8,-8,-5
89376825944,0,-1,-13,0,22,21,9,3
89376825944,8,-5,6,-2,-3,-18,-11,0
89376827570,-1,-8,3,2,-26,-16,5,3
89376827570,-14,9,-5,9,6,17,-7,-21
89376839555,0,-5,-26,-45,8,6,6,1
89376839555,1,2,3,2,-9,-17,-8,3
89376848592,-3,0,0,0,-16,-7,-5,-2
89376848592,0,1,26,10,9,12,-1,3
89376863480,7,-4,-4,36,11,2,2,4
89376863480,-22,0,-7,-12,-6,-8,-2,6
89376865047,16,-8,-14,-9,-8,-3,-3,-35
89376865047,-3,-3,-1,1,6,3,-4,2
89376885934,-3,3,8,8,6,4,5,-2
89376885934,5,2,15,4,-3,-3,-7,3
89376887532,-6,-2,-19,-6,-9,-7,-1,3
89376887532,4,-5,-8,-1,-1,2,-1,0
89376899600,-8,1,0,-2,3,1,-4,-3
89376899600,1,1,3,-1,-2,-6,3,-6
89376908596,-7,2,5,-4,-1,-3,-1,5
89376908596,13,1,-12,-8,-3,-1,-1,4
89376923472,28,0,9,0,3,4,-12,12
89376923472,-32,-4,-20,-3,-2,-9,-15,-1
89376925074,-20,2,9,5,-6,-3,9,11
89376925074,36,-2,-13,-8,-1,1,8,-1
89376945975,-1,1,16,8,6,4,0,-1
89376945975,31,5,26,12,-2,-2,-2,5
89376947557,-23,-8,-46,-16,-7,-5,-4,-14
89376947557,-20,-4,1,0,0,1,-13,-4
89376959624,-6,-6,-2,-13,0,-1,3,8
89376959624,-5,2,5,4,-3,-3,11,-16
89376968556,9,1,8,1,1,-4,-5,15
89376968556,-2,1,2,1,1,3,5,6
89376983482,-3,-2,-12,-5,-1,-5,-9,-18
89376983482,-3,0,4,10,1,2,-3,0
89376985085,11,0,2,-27,-5,-1,-3,4
89376985085,-13,-1,-5,-2,-2,-2,-2,-3
89377006175,-13,1,5,3,0,2,6,3
89377006175,-1,0,-6,-8,-3,0,-1,-2
89377007594,38,5,12,9,-1,0,-5,-3
89377007594,18,0,-8,-1,0,0,-7,2
89377020183,-5,-2,-9,-23,-3,0,6,14
89377020183,15,4,-2,13,1,-1,-2,1
89377028624,-39,-6,9,-7,-3,-4,-5,-6
89377028624,18,0,8,3,2,2,4,12
89377043433,10,-6,-32,5,-6,-2,7,15
89377043433,28,5,1,-38,-2,-3,-7,-10
89377044964,-11,1,6,10,1,-3,1,3
89377044964,-22,-5,-3,-4,-1,-1,-1,-2
89377065939,24,5,20,9,3,2,-2,-8
89377065939,-20,-8,-4,30,-4,-5,3,2
89377067537,0,2,-5,-4,1,0,2,2
89377067537,1,1,-1,-1,-1,-2,-2,-3
89377079700,0,0,-7,-5,1,0,-2,-11
89377079700,-3,-3,-11,6,-1,-2,-3,-2
89377088599,8,-1,11,2,-1,-1,2,3
89377088599,-5,-5,-1,-1,-4,-3,-3,-2
89377103534,-9,2,10,18,2,1,-3,-8
89377103534,-13,2,-1,-8,0,5,-10,-3
89377105110,29,2,-5,-2,-1,-4,19,24
89377105110,-16,-4,-2,-4,-3,-5,-9,-11
89377126184,-9,-1,1,2,0,-2,-14,-13
89377126184,0,-4,3,-5,0,0,-2,-2
89377127630,-12,-4,-8,0,-1,0,0,-9
89377127630,-10,-6,-2,2,-5,-2,1,-8
89377139807,-6,-1,0,-1,3,1,5,0
89377139807,-3,-2,-3,-4,-2,-2,0,0
89377148661,-1,1,4,5,-3,0,-3,-5
89377148661,-5,-2,-7,-6,-2,-3,1,1
89377163253,-5,-3,-3,-5,-2,-2,1,11
89377163253,8,1,1,-1,-1,-3,0,9
89377171209,4,-3,-1,0,-1,-1,-3,16
89377171209,7,4,-12,-3,0,-2,-2,3
89377186232,2,0,1,-1,0,-1,4,-1
89377186232,-10,0,25,16,3,1,2,-8
89377187594,20,4,-14,0,0,-1,-1,6
89377187594,-30,-8,-2,-7,-1,1,-7,-7
89377199826,14,2,5,-2,-4,-4,-3,-8
89377199826,-9,-6,-1,-4,-3,-4,4,27
89377208614,5,1,11,9,1,4,-7,-17
89377208614,18,4,2,3,1,-2,-19,-7
89377222823,-21,-2,-5,1,0,0,44,20
89377222823,8,1,14,2,-1,-1,-7,-8
89377229659,-10,-5,-11,-7,-5,-3,-9,-11
89377229659,19,1,-8,-3,-2,0,3,8
89377246063,-6,-6,-4,-2,-2,-2,-11,0
89377246063,12,0,-5,-2,-1,-1,1,-1
89377247657,-35,0,8,2,1,1,9,-30
89377247657,6,0,3,0,3,1,2,-3
89377268467,-2,-1,-6,-2,-3,-4,-14,-13
89377268467,0,1,-7,-6,-2,0,1,1
89377270030,-7,-5,-3,-5,-3,-6,-11,-4
89377270030,-10,-1,2,3,-1,-1,1,1
89377283002,-2,0,0,2,1,0,0,-8
89377283002,-20,-5,-9,-5,0,-2,-5,-14
89377289844,22,-2,-7,-10,-6,-4,-2,9
89377289844,15,2,-4,-1,-2,1,7,3
89377306134,-11,-2,20,4,2,0,-6,-3
89377306134,0,-6,-40,-10,-5,-2,2,-4
89377307653,-3,-1,3,-4,2,-2,-5,7
89377307653,-4,-2,6,4,0,-1,-2,3
89377328572,6,2,5,2,-1,0,4,-7
89377328572,-7,-7,-23,-13,-4,-3,-19,-2
89377330128,4,-1,0,1,-2,1,6,-9
89377330128,6,0,4,0,-2,-1,1,21
89377343499,3,0,-13,-4,-2,0,-1,0
89377343499,3,0,12,5,-1,0,-1,3
89377345081,-13,-3,-5,1,-1,2,-5,2
89377345081,2,2,6,-1,-1,-2,2,0
89377365913,-7,3,3,6,1,-1,-3,2
89377365913,15,1,1,-3,0,-2,5,-2
89377367479,-5,-2,-3,0,0,0,-2,3
89377367479,1,1,2,0,0,0,2,-7
89377388533,-2,-4,-7,-2,-1,-1,-2,3
89377388533,-21,1,1,4,2,-1,-1,-17
89377390121,-2,2,4,1,1,-1,-9,-5
89377390121,-11,-3,-11,-12,-2,-3,-1,-10
89377402886,-1,-1,-1,-5,-2,-2,-4,-5
89377402886,10,0,9,-1,-1,1,2,4
89377409765,-7,-2,-3,6,-2,-1,0,-11
89377409765,-11,-3,-5,0,0,-1,1,-2
89377426265,7,0,-4,-3,-1,-1,-5,-6
89377426265,4,0,4,2,-1,-1,3,-1
89377427580,0,-2,0,0,0,0,2,3
89377427580,-3,-1,3,-1,-1,2,-16,-9
89377448676,4,-7,-8,-6,-3,-1,26,-24
89377448676,5,4,6,0,-1,-6,-15,4
89377450072,5,0,-3,-3,-3,-3,1,2
89377450072,-2,-3,1,1,-1,0,1,-7
89377463022,-6,1,1,2,1,2,-9,1
89377463022,-5,-3,-3,-3,-2,2,4,0
89377469835,9,0,-2,-2,-1,0,1,-4
89377469835,-14,-1,-2,2,-3,-1,-1,-1
89377486204,-1,-1,-2,-3,-2,-2,-6,6
89377486204,11,0,0,-1,0,-1,2,1
89377487628,7,1,4,-1,-1,0,-7,6
89377487628,-15,-4,-1,1,0,-1,8,-6
89377508466,-4,0,1,-1,0,-1,-3,22
89377508466,17,2,-2,-2,1,-2,-5,-4
89377510056,-1,-2,-2,-3,1,0,2,1
89377510056,-2,-1,1,-1,-1,0,0,-1
89377522765,5,1,-5,0,-1,-2,-1,-1
89377522765,3,-3,1,0,0,1,4,1
89377529551,3,1,0,0,0,4,5,25
89377529551,-1,4,3,1,1,-1,7,-13
89377546141,-8,-1,-2,-3,-1,-2,4,2
89377546141,-4,-4,-3,-4,-3,1,1,-4
89377547606,8,0,0,1,-1,-3,-1,-4
89377547606,14,0,-1,-2,-3,2,4,14
89377568230,-28,-5,-7,-1,-1,0,-9,-7
89377568230,-5,3,-1,0,0,-1,4,2
89377574670,-10,-4,2,3,-1,-3,-1,-6
89377574670,-5,-1,-1,0,-1,-3,-6,1
89377582985,3,1,3,-1,0,-2,-7,-5
89377582985,-2,-3,-3,-2,-3,0,-5,-2
89377589650,-6,-1,-2,-2,-1,0,-3,-2
89377589650,-26,-5,-4,1,-1,-3,0,-8
89377605971,30,7,9,5,1,-1,-4,3
89377605971,-18,-5,-16,6,-2,0,1,-6
89377607640,7,-1,0,-14,-3,-3,-2,-5
89377607640,-12,-8,-4,-2,-2,-6,-4,-2
89377628677,-10,-3,-2,-5,-1,-1,2,-3
89377628677,6,2,9,8,1,0,-6,-2
89377630095,-11,-1,-6,1,1,2,1,-6
89377630095,6,-1,-4,-1,-2,-2,-4,-2
89377643029,9,-3,-2,-2,-1,-3,10,0
89377643029,9,5,3,-5,-1,-2,7,13
89377649675,-11,-2,-5,-1,-2,-2,-3,-5
89377649675,1,0,4,-2,0,-2,-3,-1
89377665963,3,-2,-5,0,-1,1,-5,-3
89377665963,-13,-4,-1,-6,-1,-1,-3,-7
89377667672,-6,-2,-4,-1,-2,-4,0,7
89377667672,10,0,1,3,-2,2,0,17
89377688586,-1,1,3,-3,-2,0,-8,7
89377688586,3,-6,-1,-5,-3,-2,-2,-1
89377690173,-7,-2,2,2,-1,-1,-5,-4
89377690173,38,3,-1,-2,-2,1,2,4
89377702840,-15,-4,-9,-3,-2,0,4,10
89377702840,4,0,2,0,-1,-1,-6,-3
89377709830,-6,0,-2,-3,0,1,6,-5
89377709830,7,2,-1,-1,0,-3,-3,-5
89377726044,0,-1,2,0,-2,-2,-1,0
89377726044,-3,1,2,0,0,0,-3,-2
89377727637,2,-1,-1,1,-1,-1,1,0
89377727637,-11,-2,-7,-3,0,-2,-2,-2
89377748501,-6,-3,-1,-1,-1,3,-23,-6
89377748501,-3,0,-2,-1,-2,-6,28,15
89377750056,-8,-5,0,-2,-1,-2,-12,3
89377750056,6,-1,-5,-3,0,2,7,-2
89377762295,17,6,5,4,0,-1,-3,-7
89377762295,8,-3,-10,-15,-3,0,-6,-4
89377771164,11,0,2,4,-1,0,0,6
89377771164,-9,-1,3,0,-2,-1,-2,-3
89377786200,-1,-4,-4,-1,-3,-2,1,-7
89377786200,-8,-1,3,-1,-1,-2,-3,-7
89377787649,2,1,1,-1,-1,-2,1,-5
89377787649,-2,-4,-2,-1,-1,-1,-15,-7
89377808560,-1,-1,1,2,1,0,15,0
89377808560,3,2,1,1,0,3,-7,3
89377810053,-2,0,-1,-3,0,-1,-5,-2
89377810053,-5,-1,-3,0,-2,-1,-6,-2
89377822320,-6,-2,-1,-4,-2,-1,-4,-1
89377822320,-4,-1,2,2,-1,-1,-3,-5
89377831088,3,-1,-4,0,-1,0,-1,-3
89377831088,-7,-2,1,-1,0,0,1,1
89377845928,-2,-1,-3,-1,-2,-2,1,-3
89377845928,-4,0,-2,1,0,0,-4,-5
89377847492,14,-1,0,-1,-3,-2,-9,-3
89377847492,-16,-1,-3,-3,0,-5,7,10
89377868425,6,0,0,-1,-3,-3,-2,-34
89377868425,-9,-2,0,0,-2,-3,-9,-4
89377870034,-2,-2,-3,-1,-1,0,8,-1
89377870034,5,2,3,2,1,-2,-1,1
89377882116,-9,-1,-3,-3,-1,-2,-5,3
89377882116,5,0,0,0,0,0,-1,1
89377891061,-3,-1,0,-2,-1,0,1,-4
89377891061,-6,-1,-1,-3,0,0,-4,-4
89377906004,1,2,2,-2,-1,-1,2,3
89377906004,7,0,3,2,-1,0,-1,-7
89377907559,2,-4,-7,1,-5,-4,-2,3
89377907559,5,-1,-1,-6,-2,0,1,-2
89377928713,-1,-1,0,0,-1,-1,-4,2
89377928713,0,-2,-1,0,-2,0,0,-2
89377930142,-10,0,0,1,-1,0,0,-2
89377930142,5,0,0,2,0,0,-1,0
89377942192,9,-2,-3,0,0,0,0,5
89377942192,-15,-3,-4,0,-1,-1,-1,-11
89377951164,-13,1,2,-3,1,-2,2,-7
89377951164,18,2,-1,0,-1,-3,-1,9
89377966055,-10,-4,-1,-1,-2,-2,-2,-1
89377966055,-7,-3,-4,0,-2,-3,-6,-1
89377967592,-2,0,1,-3,-3,-2,0,-3
89377967592,-9,-1,-2,0,-1,-1,-2,-10
89377988511,-4,-2,-3,0,-1,-2,0,5
89377988511,9,1,-1,-2,0,0,-1,7
89377990088,-6,-4,-2,-2,1,0,-4,-4
89377990088,7,2,2,0,-1,2,-7,10
89378002319,20,2,2,0,-1,-1,18,15
89378002319,-3,0,-4,-1,-2,0,-4,-3
89378011146,-2,0,-3,-2,-2,0,-2,0
89378011146,-12,0,-1,0,-2,-2,-1,-4
89378026198,6,-3,-1,-2,-1,-1,-6,0
89378026198,-7,-3,0,-2,0,-2,0,-5
89378027637,5,1,0,1,-1,0,1,2
89378027637,3,-3,-3,-1,-1,-1,0,-3
89378048531,-7,0,-2,-2,-1,0,-3,-3
89378048531,0,-3,-3,-4,-2,3,10,6
89378050091,-40,-6,-5,-2,-1,-4,-30,-11
89378050091,43,2,-1,0,0,0,12,-7
89378062129,-11,2,2,0,0,1,-5,3
89378062129,4,-2,-9,-5,-3,-2,-1,4
89378071157,-7,-1,-1,-2,-2,3,2,-4
89378071157,-9,-3,-3,0,0,-1,-4,-2
89378086003,-2,-1,-2,-2,-1,-1,-5,-2
89378086003,0,-1,1,0,-1,-1,-3,-1
89378087607,19,2,-2,0,-1,-1,7,10
89378087607,-14,-3,0,-3,-2,-4,-2,-1
89378108649,0,-4,-4,-1,-1,1,-1,0
89378108649,0,1,2,0,-3,-3,-3,-1
89378110061,14,-2,-3,-4,-1,-3,4,13
89378110061,-20,-1,2,0,0,1,1,-1
89378122325,-1,2,-2,0,-2,-2,-5,-14
89378122325,4,-3,-5,-2,0,-3,-1,1
89378131118,0,1,1,2,-2,-1,4,-2
89378131118,-7,-2,-2,0,-2,0,-2,0
89378146874,2,-2,-3,-1,-1,-1,-1,5
89378146874,-7,-1,1,0,-1,-2,-2,-3
89378148271,4,1,1,0,-1,0,7,-6
89378148271,0,-1,0,-1,0,-1,-8,8
89378168728,-35,0,2,0,0,-1,1,-13
89378168728,4,0,1,-1,-1,-2,0,2
89378170107,-3,1,1,0,0,0,-7,-9
89378170107,5,-1,-2,-3,-3,-1,-1,11
89378190939,4,-2,-4,-1,0,-2,3,-3
89378190939,-10,-1,1,-2,-2,0,-2,-7
89378192565,4,-1,6,0,-1,-3,0,2
89378192565,-4,-2,-2,-2,-1,-1,-1,-10
89378205597,-4,-1,0,-1,-1,1,-4,-2
89378205597,-2,0,0,0,-2,0,-1,-1
89378212199,1,-1,-3,-4,-2,-2,1,0
89378212199,-1,2,0,0,0,-1,-1,-8
89378228485,-5,-3,-1,0,0,-1,-1,0
89378228485,1,-1,-5,-3,-2,-3,-3,5
89378230139,4,-2,-2,1,-2,-1,0,0
89378230139,-7,-3,-3,-2,-1,-1,2,-11
89378251218,-1,-1,0,-1,-1,0,-3,4
89378251218,-1,-1,1,0,-1,-2,-1,0
89378252650,2,-1,-3,-1,0,1,0,1
89378252650,-12,-2,-2,-1,-1,-1,0,-12
89378265949,23,-1,0,-3,-2,-6,6,17
89378265949,-13,1,2,2,1,0,-7,-9
89378267526,7,0,0,-1,0,0,2,5
89378267526,-9,0,1,0,0,1,-5,-7
89378288447,7,-2,-5,-2,-2,-1,-3,-4
89378288447,0,-3,0,0,-1,0,5,-1
89378290123,-6,0,-2,-1,-1,-1,-3,-2
89378290123,5,1,-2,-1,-2,0,1,6
89378311131,-7,-2,0,0,0,0,-3,0
89378311131,36,1,0,-3,-1,-2,-2,-9
89378312742,6,-2,-3,-2,-1,-3,1,7
89378312742,-1,-3,-2,-2,-2,-2,-2,-6
89378325317,-5,-1,-1,2,0,-2,-3,-2
89378325317,-9,-1,-1,-1,-2,-1,-2,-3
89378332092,-4,-3,-1,-1,-1,-1,-1,0
89378332092,1,-2,0,-1,-1,-1,0,0
89378348487,-1,-1,-1,0,-1,-2,-5,-2
89378348487,-7,-3,-1,-1,-2,-1,0,5
89378350068,-1,-1,-3,-1,-1,-2,-1,-4
89378350068,-5,0,-2,-1,-3,-1,-1,2
89378371114,-5,0,-1,-2,0,0,-1,-9
89378371114,-1,-2,0,-1,2,-1,-1,8
89378372641,0,-2,1,0,0,2,6,-7
89378372641,-38,-7,-4,-2,-4,-8,-7,-8
89378385364,0,-1,-1,-1,-2,-1,-2,-11
89378385364,-4,0,-2,-1,0,0,-2,2
89378392212,-4,-2,0,-3,-1,-1,-5,-7
89378392212,9,-1,2,-2,1,-1,1,2
89378408956,-3,-2,-3,-2,-2,-1,1,1
89378408956,-10,-2,-1,-1,-2,-2,-1,-1
89378410507,0,-1,-1,0,-1,-2,-1,-3
89378410507,5,2,0,-3,-1,-1,1,4
89378430973,-7,-1,1,0,-2,-3,0,0
89378430973,1,-3,-3,-2,-2,-2,-4,-15
89378432554,-2,-2,-2,-1,0,-3,1,3
89378432554,6,-1,-3,0,-2,-2,-3,-7
89378445422,-8,-2,1,-1,-2,-1,0,-5
89378445422,-3,0,-2,0,-1,-2,-3,-3
89378452134,-5,-1,-2,-2,-1,-2,-1,2
89378452134,4,-3,-1,0,0,-1,-1,1
89378468457,0,-1,-1,-1,0,-1,-3,1
89378468457,-1,0,-1,-3,0,1,-1,2
89378470046,-1,1,1,0,-1,-2,1,-4
89378470046,36,2,-1,1,1,2,-6,1
89378490950,-38,-4,-2,-1,0,1,10,10
89378490950,55,9,4,1,0,-2,-1,19
89378492559,-12,-2,-4,1,-1,0,7,-5
89378492559,12,2,0,-3,-2,0,-4,9
89378505397,5,-1,-1,0,-3,0,-4,1
89378505397,-15,-3,-2,-2,-1,0,3,1
89378512160,-2,-2,-1,-1,-4,1,-5,-4
89378512160,-7,0,-3,0,0,0,0,-2
89378528818,11,1,-2,-2,-2,0,10,2
89378528818,-6,-1,-1,-1,0,0,-3,6
89378534561,6,0,0,-2,-2,-2,-5,-2
89378534561,-13,-3,0,-2,0,-1,2,-4
89378550941,-29,-3,-1,-2,-1,-2,-5,-6
89378550941,-9,-3,0,0,-2,-1,-2,-9
89378552520,-4,-2,-1,-1,-1,0,-4,-1
89378552520,-3,-1,0,-1,-1,0,2,1
89378565425,10,1,-1,-1,-1,0,-5,-2
89378565425,-5,-3,-1,-1,-3,-3,2,-2
89378572314,1,-2,-2,-2,-2,-1,-3,0
89378572314,-43,-9,-4,-3,-3,-1,1,14
89378588354,52,9,5,4,0,-1,6,-1
89378588354,-10,-2,-1,-3,0,-2,-11,-1
89378589986,-2,-3,-2,-1,-1,-2,12,10
89378589986,3,-3,-2,-2,-1,-1,-3,2
89378611085,-8,-4,-2,-1,1,2,0,-4
89378611085,-3,0,-2,0,1,0,1,-2
89378612585,25,4,-1,1,0,1,-6,4
89378612585,5,0,0,0,-3,-1,-1,-4
89378632866,0,-2,-4,-2,-1,-2,0,2
89378632866,-4,-2,0,0,-1,-1,4,-7
89378633634,-3,-1,-1,-1,-1,-3,-8,-6
89378633634,-2,0,1,1,-1,0,2,-5
89378648539,1,-1,-3,-3,-1,-3,-6,-5
89378648539,2,-1,-2,0,-1,0,-2,1
89378650060,-7,-1,-1,1,-2,0,-2,-2
89378650060,-2,-2,-2,0,0,-2,1,-3
89378671225,1,-1,0,-2,-1,-1,-6,4
89378671225,2,-1,-1,-1,-2,-1,-2,1
89378672603,18,-4,-6,-6,-3,0,2,-16
89378672603,-13,4,3,3,2,-3,-5,-1
89378684839,-1,-3,1,0,-1,-1,1,1
89378684839,0,-2,-1,0,-2,-2,-5,-2
89378694342,-7,-2,-1,-1,-1,0,-5,0
89378694342,8,-1,-2,-1,-3,0,-1,-2
89378707790,1,-1,-1,-2,-3,-1,1,-2
89378707790,-15,-3,-2,-1,-3,-1,1,-3
89378708541,-8,0,1,-1,0,0,1,2
89378708541,5,2,4,0,1,0,0,-2
89378730217,-9,-2,-1,-1,-2,-2,-4,-4
89378730217,7,1,-1,-2,-2,-2,7,-4
89378731164,-12,-3,-2,-1,-2,-1,-4,5
89378731164,6,-1,-2,-1,-1,-2,1,-4
89378753454,-3,-1,-2,0,0,-2,-4,-4
89378753454,0,-2,0,-1,-1,-1,1,-1
89378754304,-8,-1,1,2,-1,-2,1,-3
89378754304,10,-1,0,-3,-1,-1,-2,2
89378767713,26,-1,-2,-1,-1,-1,-5,8
89378767713,-21,-3,-2,0,1,3,3,-13
89378768539,-4,5,7,1,-1,-4,-4,-20
89378768539,-1,0,-8,-1,-3,1,-1,-3
89378790282,5,-1,-2,-2,-2,-1,-4,-1
89378790282,2,0,-2,-2,0,-1,-2,0
89378790962,-7,-3,-3,-1,-2,-1,-2,-1
89378790962,-4,-1,0,-1,-1,0,0,-5
89378813495,-7,-1,-1,-1,-2,-1,-5,-5
89378813495,-10,-5,-4,-3,-3,-1,6,3
89378814360,1,-2,-1,-3,-1,-2,-1,3
89378814360,0,-2,-2,-1,-3,-4,-3,0
89378827798,-5,-3,0,-3,-1,0,1,4
89378827798,-36,-4,-1,0,-2,0,-4,-2
89378828571,6,-1,0,-1,-1,-1,-5,4
89378828571,3,-4,-4,-2,-1,0,13,0
89378850209,-9,0,1,-2,-1,-2,-4,1
89378850209,22,2,-1,-1,-1,-2,-4,-1
89378851005,-3,-2,-4,-2,1,-2,2,7
89378851005,-9,1,1,-1,-1,-2,-7,1
89378873425,4,-3,0,-1,1,0,10,11
89378873425,-19,-3,0,-2,-2,-2,-7,-28
89378874324,10,0,-3,0,-1,-1,1,4
89378874324,4,-2,-1,1,-1,0,-6,-5
89378887739,-1,0,-1,-2,-1,0,8,5
89378887739,4,-3,-4,-1,-1,-2,-8,2
89378888500,-45,-4,1,-2,0,-2,0,-1
89378888500,-4,-1,0,-2,-2,-2,-5,-3
89378910410,3,-1,-2,2,-1,-1,-1,-6
89378910410,3,-1,-1,1,-1,0,0,5
89378910956,4,-1,-1,-2,-1,-1,-3,-2
89378910956,4,-4,-3,-4,-2,-3,0,-4
89378933405,-21,-3,-2,-2,-2,-1,-5,-6
89378933405,16,-1,-3,-3,0,-1,0,1
89378934187,-3,-1,-1,-1,-2,-1,-1,-2
89378934187,-3,-2,-2,0,0,-1,-1,-7
89378947687,7,0,-3,-1,-1,-2,-6,-5
89378947687,5,-2,-1,-3,-3,-2,9,17
89378948484,9,2,0,1,0,-2,-4,-9
89378948484,4,1,0,-1,1,0,2,2
89378970147,-46,-4,-1,-1,-1,1,2,-7
89378970147,11,0,0,0,-1,-1,2,11
89378970941,3,-1,-3,-1,-2,-1,-4,-2
89378970941,4,-1,-1,-1,-1,-2,-1,0
89378993482,12,-1,-2,0,-2,-3,-1,4
89378993482,0,1,1,-3,0,-2,-13,-6
89378994305,-3,-2,-3,-3,-2,-1,1,-3
89378994305,-17,-2,1,2,0,3,-6,-5
89379007722,14,1,0,-2,-1,-2,4,-19
89379007722,-10,-3,-1,-1,-2,-1,-1,-4
89379008482,1,-1,1,0,-1,0,-1,-3
89379008482,-7,0,-1,0,-1,0,-4,5
89379030260,1,0,-1,0,-1,1,-3,0
89379030260,-1,-1,-1,1,-3,0,2,-4
89379030987,25,1,-3,-1,0,-1,-3,4
89379030987,-17,-1,-3,-4,-2,-1,9,6
89379053338,1,-1,-2,-1,0,0,-3,0
89379053338,1,1,-1,-2,-1,-1,0,-1
89379054136,-3,-2,-1,-1,0,0,3,3
89379054136,21,3,1,-1,-2,0,-2,-3
89379067826,-3,-4,-1,-1,-3,-4,-5,-2
89379067826,-4,-1,-1,-2,-1,0,-9,-2
89379068815,-6,0,0,-2,-1,-1,9,-4
89379068815,-4,-1,-4,0,-2,-1,-7,-6
89379090261,-4,-2,1,-2,-1,-1,8,4
89379090261,6,-3,-1,0,-3,-3,-4,-8
89379091129,-4,-1,0,-1,0,-1,-2,-4
89379091129,-15,-4,-1,-2,-1,-1,-3,-10
89379113668,10,1,1,-1,-1,-1,-4,6
89379113668,-2,0,-1,-2,0,1,4,2
89379114423,-6,-1,-1,0,1,-1,-1,2
89379114423,8,-3,-1,0,1,-1,3,5
89379127945,15,0,-1,-1,0,0,-7,-5
89379127945,-5,-4,-4,-3,-4,-1,8,3
89379128585,4,3,1,1,-2,-5,-8,-1
89379128585,-1,0,0,0,-1,-1,-2,2
89379150571,5,0,-1,-1,-1,-2,-1,-3
89379150571,-6,-1,1,-2,-1,-2,-1,-3
89379151079,3,-1,-3,-2,0,3,-4,4
89379151079,7,0,0,-2,1,-2,10,0
89379173671,-19,-4,-3,-1,-1,1,1,13
89379173671,24,7,4,1,3,0,3,6
89379174251,-7,-2,-2,0,0,-1,-2,-2
89379174251,-3,-1,-2,-1,-3,-2,-3,-1
89379188013,-16,-5,-4,0,-2,-2,-3,-6
89379188013,5,1,1,0,0,1,1,5
89379188646,1,-1,-2,-2,-1,-1,0,-2
89379188646,4,0,-1,-1,1,-2,-3,1
89379210366,-1,0,0,0,1,0,-3,-3
89379210366,-3,-3,-4,1,-2,-2,-3,-1
89379211004,-6,0,-1,-1,-1,1,0,-6
89379211004,-6,-4,0,-1,-2,-3,-2,1
89379232517,8,1,1,2,0,-1,0,-6
89379232517,-5,-2,-4,-1,-1,-2,-2,-3
89379240608,-4,1,0,0,-1,-2,-1,0
89379240608,3,0,-4,-1,-2,0,-5,-4
89379247717,0,-2,0,-2,1,-2,-1,-3
89379247717,-5,-1,0,1,-3,0,-2,-2
89379248529,6,-3,-2,1,-3,1,-1,0
89379248529,0,-2,-1,-1,-1,-2,-3,-5
89379270492,-1,3,0,0,-1,-1,-4,-6
89379270492,-8,-1,-3,-1,0,-1,0,-4
89379271073,-2,-5,-3,-2,-3,-2,-1,8
89379271073,-3,-1,-3,-1,-1,3,3,-25
89379293711,6,1,0,-1,-1,1,-12,7
89379293711,4,-2,-1,-2,-2,-3,8,7
89379294357,5,1,0,0,0,0,0,-12
89379294357,3,-3,-2,-3,1,-2,-4,7
89379307785,-2,-3,-3,-3,-1,-3,4,-2
89379307785,-2,0,-2,-1,0,-2,-7,-6
89379308638,1,-1,-1,-3,-2,-2,-1,5
89379308638,-5,-1,0,0,0,0,0,3
