timestamp,emg1,emg2,emg3,emg4,emg5,emg6,emg7,emg8
82474026322,-3,-2,0,0,-1,0,-1,-2
82474026322,-7,-5,-5,-4,-3,-2,-1,-1
82474027234,12,-3,0,-1,-2,-1,-1,-4
82474027234,-6,-1,0,-1,-1,-2,-1,-1
82474028065,-5,-1,-3,-3,-2,-2,-1,-3
82474028065,2,0,2,0,-1,-1,-2,-3
82474029444,-3,0,-1,1,-1,-2,0,3
82474029444,-1,-4,-2,0,-2,0,-3,-3
82474037235,9,-15,-3,-1,-1,-2,-1,-8
82474037235,6,4,1,1,1,1,1,-2
82474044249,-5,0,-4,-3,-4,-1,0,6
82474044249,-4,-29,-3,-2,-3,-2,-2,-3
82474052488,-6,4,0,-1,-1,-2,-2,-2
82474052488,-1,-1,-3,0,1,-2,-1,6
82474067953,-15,-12,-1,-4,0,-2,-1,0
82474067953,10,11,1,1,0,3,2,-2
82474073643,10,9,1,-1,-1,0,2,5
82474073643,-3,-6,0,0,-2,-3,-2,3
82474098505,-8,-1,-5,-1,-2,-1,-2,1
82474098505,-7,2,-1,-1,-1,-3,-1,-1
82474100091,0,0,2,1,1,1,-4,-6
82474100091,3,-5,-1,-4,-2,1,1,3
82474144322,0,-1,-1,0,0,-2,-1,-2
82474144322,-1,4,-1,-1,-1,0,-1,-2
82474145133,-3,-22,-4,-2,-2,-2,-4,-13
82474145133,-1,-1,-1,-1,-1,0,0,3
82474145961,-1,0,-2,-1,1,0,-2,-1
82474145961,1,1,-1,-3,-3,1,-1,3
82474149748,-3,5,2,0,-1,-1,-2,-1
82474149748,2,2,0,-1,-1,-1,-2,-4
82474151307,-3,-5,0,0,-1,-1,-1,0
82474151307,-2,-2,-1,-1,0,-2,-2,-2
82474155884,-1,3,-2,-4,-3,-2,1,3
82474155884,-2,-3,-2,-1,-2,0,0,-2
82474164830,0,2,-1,2,1,-1,-2,-1
82474164830,1,-1,-1,-1,0,0,0,-2
82474178346,0,2,-1,-3,-13,-2,0,2
82474178346,-1,-1,-1,-3,0,-3,0,-3
82474187333,-2,-2,-1,-3,0,-1,-1,-3
82474187333,2,1,-1,2,-2,-2,-1,-1
82474209717,1,-1,-2,-5,3,0,-1,0
82474209717,-3,0,-1,-3,0,-1,-4,-2
82474211383,0,-1,-3,0,-3,2,0,-1
82474211383,-3,-5,-3,-7,0,-2,-1,-1
82474224113,0,7,1,4,2,0,-2,0
82474224113,1,0,-3,-6,-2,-1,0,-1
82474230798,-1,1,2,2,1,-1,0,-2
82474230798,-2,-5,-1,0,-2,-1,-1,-1
82474247400,-1,0,-2,0,0,-1,-3,-2
82474247400,-1,1,0,3,1,0,0,3
82474248847,-1,-2,-1,-1,-1,-2,-1,-1
82474248847,-4,3,0,6,-3,-1,-1,-2
82474269930,1,0,1,-11,-1,0,1,0
82474269930,1,0,-2,-6,-1,0,-2,-2
82474271458,-3,-26,-4,3,-7,-3,0,0
82474271458,-1,-1,-2,14,2,0,-1,-3
82474284093,-2,0,0,2,4,0,-1,-1
82474284093,-3,-7,1,-3,-8,-3,-1,-1
82474290890,2,6,0,-4,2,1,-2,1
82474290890,-2,-3,-1,-15,-7,-2,-3,-1
82474307234,0,-3,0,-7,2,-1,-1,1
82474307234,-1,3,-2,-6,2,0,-2,-2
82474308871,-2,2,-1,19,-2,-2,-3,-1
82474308871,2,2,3,33,7,-1,-2,-1
82474329980,-1,1,-4,-57,-8,0,0,2
82474329980,1,-1,2,7,-2,0,0,1
82474331411,-2,2,-2,-17,-1,-1,-1,-4
82474331411,0,-5,-2,22,6,-2,0,1
82474344302,-3,-4,-2,15,-11,-4,-3,-2
82474344302,0,-1,-3,-4,7,2,1,0
82474351127,-2,-2,-4,-7,-15,-5,-3,-1
82474351127,-2,4,5,8,3,-2,-1,-2
82474367483,0,1,1,3,1,-1,-2,-4
82474367483,-3,-5,-6,-11,-3,-3,-2,-7
82474368880,0,8,-1,9,6,3,3,2
82474368880,-2,-22,-3,-16,-4,0,-1,1
82474397516,1,-1,-1,28,2,-3,-1,5
82474397516,0,-2,-4,-30,-1,0,2,-3
82474398923,-1,2,-1,12,0,-7,-5,-4
82474398923,-4,3,-5,-31,-7,2,-4,-6
82474403544,0,-3,-4,4,5,4,6,7
82474403544,-2,-6,2,27,-3,-10,-7,-4
82474412430,2,-1,-2,-29,-4,-6,2,3
82474412430,-1,2,0,-5,0,1,-2,-2
82474427261,-5,-7,-1,20,2,3,-4,-7
82474427261,0,1,-1,-1,-2,-2,0,2
82474428852,-1,0,3,-2,0,0,0,0
82474428852,1,1,-1,-3,-2,-1,4,5
82474449727,0,2,-3,-14,3,2,-1,-3
82474449727,-10,6,-3,2,-6,-8,-6,2
82474451302,2,-11,1,2,-3,-4,-3,3
82474451302,0,-1,-4,-9,-3,2,-3,-5
82474463380,-3,0,-1,0,0,1,4,-3
82474463380,2,3,1,5,-1,-1,-4,5
82474472317,-4,1,-1,6,1,2,-2,3
82474472317,2,1,-4,-8,-7,4,4,5
82474487183,1,-4,0,-3,-2,-23,-3,-3
82474487183,1,-1,2,15,-1,-1,-9,-4
82474488843,-2,2,1,-6,4,0,1,-3
82474488843,-1,-2,1,-2,-3,7,0,1
82474509742,0,2,0,-2,0,-4,-2,-4
82474509742,-2,-5,-2,-6,0,11,6,3
82474511329,-4,2,-4,-1,2,4,-3,-7
82474511329,-2,-2,-1,-28,0,-10,-6,-3
82474523369,-1,-1,-1,11,-7,5,10,-4
82474523369,0,-1,-1,8,-2,-6,-6,4
82474532372,2,-4,0,-2,2,1,6,4
82474532372,2,3,-1,2,0,11,-1,-6
82474547229,-4,-2,-2,-11,-6,-39,-5,8
82474547229,5,-6,-2,9,3,12,-4,-6
82474548784,-4,3,0,-5,-2,-17,-5,-7
82474548784,-8,-2,-3,7,-1,4,1,0
82474569740,4,2,0,2,5,12,-1,3
82474569740,2,6,-1,-5,-4,-5,8,-7
82474571396,-1,-3,0,9,-1,9,12,6
82474571396,11,-3,-2,-11,0,2,-9,-16
82474583581,4,-16,0,14,3,-1,0,7
82474583581,-4,-2,3,-4,3,-3,-7,-11
82474592479,2,7,0,-6,-3,1,-3,3
82474592479,-16,-3,-4,-7,-6,9,1,-5
82474607282,-3,5,2,12,2,-9,-5,-13
82474607282,0,-2,-3,-9,-12,-10,-8,13
82474608905,-1,-4,-3,-2,-3,-6,4,-2
82474608905,4,4,3,-10,-11,-10,10,5
82474629739,-3,12,1,3,7,19,-8,-5
82474629739,-3,0,1,2,3,-1,2,-5
82474631433,1,1,-3,3,-4,-1,-7,-11
82474631433,-5,-6,-3,5,3,1,-3,-3
82474643551,-7,-2,-4,-14,-7,-11,4,-2
82474643551,1,11,0,6,7,14,1,-2
82474659925,2,-4,3,3,4,6,-6,7
82474659925,-1,1,-2,10,-1,-21,-2,-11
82474667354,-2,-1,-3,-16,-7,10,-3,-2
82474667354,-2,-1,-6,-10,-7,-21,6,-4
82474668893,1,0,0,-1,5,22,3,5
82474668893,-3,-6,-2,4,-4,-29,1,6
82474689723,0,0,3,0,3,16,-9,-14
82474689723,4,-8,-4,2,-5,-2,2,19
82474691388,-9,-2,-4,0,2,-9,-4,-17
82474691388,2,-1,-3,-10,-12,7,-5,9
82474703439,-3,10,2,-4,2,-1,3,7
82474703439,0,4,7,-6,-7,14,0,-10
82474712417,-3,-1,-2,20,6,-10,-9,7
82474712417,-4,2,0,-2,1,0,3,6
82474726634,3,-2,2,-4,0,-20,8,-4
82474726634,-7,-3,-2,-28,-2,17,2,2
82474733547,2,-1,-1,-19,-9,-17,-2,4
82474733547,-1,3,2,31,2,-7,-6,-2
82474749812,-2,-7,-1,-13,0,13,-6,-5
82474749812,2,-4,-3,0,3,-5,-5,-2
82474751367,4,1,-2,-7,5,15,17,3
82474751367,0,-1,5,14,7,13,-3,3
82474763560,-3,-4,-5,-1,-10,-27,-13,-3
82474763560,-4,-26,-2,0,2,0,-3,-8
82474772442,-1,-2,-2,-1,-1,2,2,-1
82474772442,-1,1,-1,-12,0,26,1,-14
82474787350,3,-6,-2,13,5,-28,10,34
82474787350,4,8,0,5,-15,17,0,-16
82474788875,-3,-3,-2,-24,-12,-48,-13,-7
82474788875,2,-5,1,13,5,-17,-17,7
82474809838,1,-5,-10,4,1,24,2,-9
82474809838,-5,0,2,-16,-8,-12,1,-7
82474811428,3,1,1,34,8,17,7,2
82474811428,2,3,-8,-14,7,-6,8,3
82474823451,-1,0,3,6,-3,23,0,5
82474823451,-6,-5,-2,2,-5,-9,-12,-16
82474832423,-1,-3,-2,-18,-11,22,0,1
82474832423,2,0,1,3,-2,-45,-12,5
82474846787,2,-1,-6,11,1,3,1,9
82474846787,4,2,5,2,3,3,11,10
82474853652,4,4,0,-5,-3,-12,-10,-7
82474853652,-7,-24,0,-4,4,26,3,-3
82474869943,3,1,0,4,-6,-10,-1,-4
82474869943,-22,-2,-7,17,7,-3,8,-14
82474871407,13,3,0,-5,4,4,-5,-20
82474871407,-3,4,-1,-2,3,11,8,10
82474883686,-8,-16,-4,-9,0,17,-3,-11
82474883686,8,-1,-2,7,14,-7,1,14
82474892426,-5,0,5,3,-9,-11,-21,-3
82474892426,-7,-2,-5,-7,-8,-11,10,-19
82474906826,-1,1,0,-8,3,6,-2,1
82474906826,-7,1,-5,2,-4,-10,-21,-24
82474913650,-2,-5,-10,-9,13,-4,19,22
82474913650,5,7,3,-14,-35,-4,7,-3
82474929910,-4,2,-2,13,11,-2,-17,-10
82474929910,6,3,-4,-11,-19,5,0,10
82474931399,-3,-14,5,21,18,26,14,-12
82474931399,-3,2,1,-11,7,-10,-11,0
82474943458,-5,-2,-4,-20,-21,-29,-2,-10
82474943458,-3,-2,1,13,6,-4,6,8
82474952449,-5,1,-2,-9,-2,32,-10,-19
82474952449,0,2,1,12,0,-7,2,-2
82474966821,-1,5,4,3,2,-9,7,8
82474966821,8,-2,-4,-10,5,7,-1,6
82474973401,-4,-1,-3,-3,-18,2,-4,-1
82474973401,0,-2,-3,8,7,-22,-21,-5
82474989746,-1,5,2,-14,-4,22,39,11
82474989746,-2,-4,-8,13,0,12,-11,10
82474991315,-2,13,-2,-32,-18,-56,-12,3
82474991315,3,2,1,15,22,20,10,5
82475003388,-1,-7,-14,-9,-14,1,3,4
82475003388,-5,-1,-1,-13,3,15,12,12
82475012367,5,4,1,-12,0,8,-9,-5
82475012367,-6,-4,-2,29,1,-20,-21,-17
82475026542,3,1,4,-4,-8,-17,4,17
82475026542,-1,0,3,-1,21,4,14,-7
82475033365,-7,-5,-4,18,-16,4,-5,15
82475033365,-2,-4,-4,-33,-6,7,-1,-22
82475049726,0,-2,-2,4,-2,23,-11,-13
82475049726,-1,-1,0,9,4,-31,-17,-11
82475051295,5,1,5,-12,6,-26,3,9
82475051295,-1,4,8,2,-10,9,2,1
82475072214,-1,-1,-12,-16,18,14,1,-8
82475072214,3,3,6,21,-17,-6,-14,7
82475073837,0,-17,-7,-23,-6,17,13,-3
82475073837,-2,4,4,-1,5,-3,7,1
82475086559,3,2,1,-20,-1,-8,-9,12
82475086559,-3,-6,-2,-3,10,-4,-4,-13
82475093322,-1,-2,-4,24,-5,15,7,7
82475093322,4,-1,2,-5,-1,-13,6,22
82475108400,-3,-2,4,9,6,-9,-20,-19
82475108400,4,1,-6,-28,-10,2,15,25
82475117328,9,0,-3,32,6,0,14,3
82475117328,-12,1,0,-15,-10,11,-21,-16
82475132191,-1,1,4,28,6,-5,8,17
82475132191,-5,2,9,-29,6,-7,-11,-18
82475133795,-3,-3,-6,0,-7,9,3,-16
82475133795,3,-5,-10,-25,-13,11,-1,0
82475154738,-3,-7,-2,23,7,-20,-15,-28
82475154738,1,1,8,11,-8,-8,-20,-18
82475156306,-8,-3,1,-19,-8,-10,11,10
82475156306,-16,0,-4,10,8,28,5,8
82475168327,22,8,3,3,-5,-24,7,16
82475168327,-3,-8,-5,-2,3,22,-2,-1
82475177409,-52,2,2,2,-8,-25,-5,-48
82475177409,4,-17,-1,2,2,-8,-15,30
82475192305,-15,-6,-2,-6,4,30,-3,-33
82475192305,9,6,-1,-2,-6,-12,16,5
82475193849,-10,-4,-4,-6,6,-5,7,-13
82475193849,11,13,-4,6,1,1,2,-24
82475214796,-19,-1,1,-8,-10,-6,-17,-19
82475214796,19,-8,-9,-9,-14,30,18,85
82475216396,30,-8,-4,8,18,-1,6,102
82475216396,7,2,-3,4,-1,-20,-10,-19
82475228581,-11,-1,3,1,8,24,32,18
82475228581,-10,5,-1,4,-10,-4,-19,-44
82475237433,-6,0,-1,5,-3,-23,-16,-47
82475237433,7,-1,-8,-13,-2,-5,20,58
82475251604,3,-10,-4,4,4,9,-12,-3
82475251604,-14,-6,2,0,0,-9,-10,-48
82475258408,3,2,3,-19,-2,18,23,-13
82475258408,-17,-4,3,25,5,6,-24,-29
82475275024,32,-27,-12,-26,-21,-4,58,77
82475275024,-8,9,1,1,4,-31,-14,-33
82475276408,-1,-4,0,1,1,-15,-31,-19
82475276408,4,2,-2,-9,0,8,24,-2
82475288632,-6,6,6,7,6,7,-14,-8
82475288632,7,0,-6,5,-2,-7,17,19
82475297456,5,3,-4,-8,-9,-1,-3,7
82475297456,-13,-9,-4,0,-10,-18,-19,15
82475311759,-6,19,3,6,4,14,-13,-23
82475311759,4,-3,-3,-1,5,1,1,3
82475318620,-8,5,-2,2,0,-26,-27,-53
82475318620,10,-12,-4,0,1,12,19,43
82475334957,-1,3,-5,-19,-17,-8,-27,-27
82475334957,0,-2,0,3,7,12,16,20
82475336404,11,5,6,11,12,14,0,10
82475336404,2,12,1,-7,-8,-5,-3,0
82475348469,11,3,-1,0,-5,-20,-10,4
82475348469,-18,-5,1,-5,-4,-3,-25,-80
82475357407,36,-1,-3,3,-1,7,25,32
82475357407,-15,8,-2,0,11,1,13,-4
82475379837,-4,3,7,-3,-3,4,-4,1
82475379837,0,0,1,12,4,12,-14,-19
82475381384,6,1,-1,2,-3,-10,-6,9
82475381384,-5,6,4,-1,-1,3,7,-32
82475394901,-23,-8,-9,-12,-11,-2,3,-88
82475394901,5,1,-10,-11,-3,-7,-10,14
82475396314,-11,7,-6,8,5,-2,4,-3
82475396314,12,-8,-1,13,0,5,5,8
82475408640,-9,-10,2,4,-1,0,-13,7
82475408640,0,3,2,8,4,-2,1,9
82475417441,-28,0,-2,-8,-7,-2,-14,-8
82475417441,2,-1,2,-18,-13,-3,-4,-34
82475432232,9,4,7,19,19,-2,-13,17
82475432232,3,-5,-4,-5,-1,-1,19,29
82475433880,-2,-17,-2,-16,-5,5,-6,8
82475433880,-11,4,6,9,7,-2,-12,-19
82475454756,17,1,-3,4,-7,3,21,25
82475454756,-8,2,2,-12,3,2,1,21
82475456357,-16,-4,2,0,2,-1,-7,-21
82475456357,-1,-7,-12,-8,-5,-5,-7,-8
82475468390,0,1,-6,-16,-7,-9,-5,-7
82475468390,-5,0,-4,-7,-9,-7,-2,-5
82475477337,20,4,3,-4,6,7,1,20
82475477337,-1,-2,4,36,3,6,-1,-15
82475492208,-5,0,0,9,-6,-6,-12,8
82475492208,4,-1,4,5,7,-11,23,3
82475493811,-2,-3,-4,-6,2,11,-9,-10
82475493811,3,-3,-8,5,2,-6,-3,2
82475514746,-10,-1,-1,-17,-1,-7,-7,-6
82475514746,-7,5,-1,9,-14,-1,-1,-9
82475516344,1,-3,0,19,0,8,5,2
82475516344,-3,0,4,-2,5,-7,-5,1
82475537189,-1,4,5,1,7,-2,-4,-11
82475537189,2,-1,-1,-1,-3,-5,-3,3
82475539016,-4,-2,-6,-6,9,-7,-6,-5
82475539016,0,-3,-5,-20,-34,10,7,6
82475552287,-27,-4,0,7,1,-1,-6,-49
82475552287,14,-3,3,-12,6,-1,2,38
82475553909,-8,11,0,29,-3,-11,-7,-15
82475553909,-9,-7,-6,-23,4,12,-8,-9
82475574762,-9,0,0,5,-10,-23,-2,7
82475574762,-5,-5,-5,12,-2,6,-3,-19
82475576315,13,0,4,-4,-3,17,17,9
82475576315,-11,0,2,-19,1,-14,-1,0
82475597481,18,3,7,4,4,18,11,2
82475597481,-14,4,-5,-5,-3,-7,2,6
82475598953,9,-9,-4,-14,-13,-9,-15,0
82475598953,2,3,-10,-27,-3,-5,2,-29
82475611842,19,-2,-2,36,5,-2,6,77
82475611842,0,1,2,-6,5,13,4,-2
82475618385,-28,-9,-3,31,3,2,-5,-55
82475618385,0,0,2,-34,-11,5,-3,-1
82475634810,-5,11,-6,-8,5,-20,-4,-9
82475634810,2,-6,-2,-5,-20,-6,-9,-10
82475636356,-5,1,2,-5,4,2,6,15
82475636356,3,-5,0,18,7,7,4,6
82475657421,-2,1,0,-9,-4,15,2,-6
82475657421,-24,-8,-3,-8,-8,-14,-13,6
82475658833,4,-2,1,-6,7,-11,5,13
82475658833,10,5,3,3,2,-2,-5,1
82475671106,-6,-12,-6,6,-4,5,-2,-37
82475671106,2,5,-2,-16,-1,-5,-7,-12
82475687404,-10,1,3,-11,-7,16,-7,11
82475687404,8,-2,1,30,11,-14,19,41
82475695019,-14,3,1,-9,-5,-1,-12,-18
82475695019,14,-7,0,7,8,15,12,-3
82475696409,-6,1,1,-30,-20,-25,-11,-16
82475696409,11,3,12,0,2,8,-6,-17
82475717460,0,-3,12,-3,-1,-9,5,22
82475717460,-3,7,11,6,10,30,10,2
82475718864,-1,-2,-2,-20,3,-5,2,18
82475718864,-11,-15,-15,11,-1,-4,-2,-55
82475731112,-12,-6,-17,-8,-6,3,-6,-20
82475731112,27,5,-3,4,-3,-25,-11,17
82475739860,5,3,-4,8,9,19,9,-1
82475739860,-1,0,-4,17,-4,-1,-7,-6
82475754863,-4,0,-2,-21,-5,-12,2,-7
82475754863,-14,-12,-2,17,6,11,1,-23
82475756420,1,-3,2,5,-5,3,-6,-3
82475756420,-3,1,1,-10,-2,-22,-25,14
82475777241,1,-4,1,6,2,12,16,6
82475777241,-8,0,-2,-30,1,0,-3,1
82475778914,-6,0,-7,-8,-10,-12,6,19
82475778914,-5,2,-4,13,4,15,3,28
82475790909,-2,-2,-7,-8,-1,-3,-9,-16
82475790909,-11,3,-2,13,4,-6,-6,-50
82475799969,6,5,0,1,-2,-4,6,15
82475799969,-1,-2,-3,-18,-3,6,11,10
82475814954,9,-7,-6,10,-1,-18,-3,35
82475814954,1,3,-1,0,-4,10,0,-19
82475816401,25,-1,-6,-17,-5,7,5,30
82475816401,0,-17,2,15,0,-27,-11,-6
82475837553,7,-1,0,-1,3,23,8,5
82475837553,-14,-5,-8,4,-8,-24,-11,19
82475838930,0,2,3,2,5,9,-1,-5
82475838930,-6,5,-2,-10,2,26,20,8
82475851133,0,5,-1,-13,-3,-15,-10,-8
82475851133,-6,-13,-3,-5,-9,-13,-8,65
82475859918,-9,1,-2,-1,0,16,9,-20
82475859918,0,6,0,-6,5,4,-1,-14
82475882260,-1,2,3,12,7,10,0,0
82475882260,6,2,-4,-9,-7,-8,3,-5
82475883849,6,-10,-1,17,-1,-2,-3,37
82475883849,-19,5,3,-2,-11,-26,-9,6
82475897428,-5,-5,-4,-15,1,7,3,-1
82475897428,16,1,2,17,5,1,2,-16
82475898835,-8,-6,-1,-13,-6,-4,-14,-17
82475898835,-2,-2,1,19,-3,3,5,-6
82475910929,-1,8,-4,-43,0,-8,-12,-1
82475910929,-4,-2,-2,-6,-5,-5,5,4
82475919990,-3,6,1,8,0,-20,-7,-12
82475919990,1,-10,-5,-13,-3,8,-7,-7
82475934983,11,0,1,12,-4,3,1,29
82475934983,-5,-10,0,-6,4,0,9,-37
82475936409,0,2,-4,1,-2,0,-3,-1
82475936409,1,6,0,0,-5,-22,-15,-13
82475957430,3,-4,3,12,0,15,13,11
82475957430,-7,-5,-10,-6,0,9,-3,-23
82475958831,-9,-3,-2,5,1,7,6,-27
82475958831,1,-6,2,-3,-5,-18,4,1
82475970927,-7,-7,-4,-16,-9,-3,-1,-14
82475970927,-1,1,4,15,2,-5,-1,9
82475979951,-5,-12,0,0,2,1,-8,-9
82475979951,3,2,-2,-6,2,2,-8,19
82475994875,-5,1,4,7,1,-3,-5,-7
82475994875,5,2,0,-4,-1,-8,1,1
82475996457,-1,-3,-2,-7,-3,6,-2,7
82475996457,-10,-1,2,-23,-4,20,0,-34
82476017416,4,-5,-1,12,-4,-37,-11,28
82476017416,6,3,6,0,8,-4,5,12
82476018921,1,4,-5,6,-2,5,-2,-1
82476018921,-3,-1,2,-7,-1,12,3,-34
82476031001,-17,-1,-5,-15,-5,10,-2,-34
82476031001,13,28,1,7,-1,-6,-7,22
82476039890,-3,-9,1,-6,-11,-17,-11,-11
82476039890,21,1,-1,0,11,-2,24,36
82476054769,-2,-2,-5,9,2,9,-8,-10
82476054769,-2,0,1,9,0,0,-1,-9
82476056324,-7,-1,-1,-24,-1,-4,-2,-19
82476056324,-29,-3,-6,-5,-8,-6,-13,-61
82476076345,1,-4,-1,-4,2,-5,4,8
82476076345,8,-8,-3,8,6,6,1,1
82476084924,5,5,3,4,-4,-7,-5,-10
82476084924,17,8,-5,11,-2,-1,5,9
82476091081,5,-3,-1,-4,6,6,10,51
82476091081,-12,-5,0,-3,1,9,-4,-7
82476099892,4,-1,-3,18,-2,-2,5,12
82476099892,0,5,4,52,6,-4,-11,11
82476114933,-3,-1,-7,-72,-17,-12,0,-28
82476114933,14,-3,-1,14,-10,-6,-6,51
82476116378,9,10,-5,-49,-6,5,5,20
82476116378,-2,-8,1,11,4,6,1,-19
82476137208,23,8,8,63,7,3,0,73
82476137208,-35,-13,-7,-52,3,-4,-4,-29
82476138842,-7,13,2,0,1,0,-3,-28
82476138842,1,-8,-1,19,-9,-5,0,15
82476151057,-34,-25,2,19,6,-1,-7,-50
82476151057,-3,14,0,-2,-3,-2,-4,6
82476159914,12,2,1,16,5,-2,4,55
82476159914,-2,-6,-3,-9,0,2,-5,10
82476174891,-2,1,-3,13,-4,-3,1,-4
82476174891,6,-1,-1,11,-5,4,4,-4
82476176400,-3,-9,-7,29,13,-1,-4,-26
82476176400,-6,-2,-5,-38,-3,-1,6,29
82476197342,15,7,1,14,0,2,-3,-29
82476197342,-2,-4,0,-4,-4,0,1,-6
82476198860,-18,8,2,7,-5,-4,-1,-2
82476198860,14,8,6,16,12,0,2,28
82476210901,1,2,-5,-31,-21,-3,-5,-10
82476210901,3,-5,1,-7,-3,0,3,-13
82476219874,-12,-6,-3,0,2,-2,-6,-51
82476219874,-1,-4,-1,44,4,0,-1,19
82476234756,-6,14,-4,-26,-2,-1,2,-5
82476234756,14,-30,-4,-6,-4,-4,-6,-46
82476236335,-9,-24,4,1,-4,-1,8,2
82476236335,-16,-9,-7,-34,-4,-2,-6,-11
82476257339,-12,-6,-6,7,2,-1,-3,-7
82476257339,-2,2,-1,9,-2,-2,-7,-5
82476258902,4,-1,0,-4,-1,-1,7,10
82476258902,0,-5,-1,-6,-3,-1,-5,-6
82476271002,-3,-2,-1,-32,-3,-2,2,8
82476271002,-2,7,1,3,2,1,0,14
82476279897,4,-4,-4,-7,-1,0,-2,1
82476279897,3,3,1,8,-2,-1,-4,-2
82476294088,11,9,-1,-6,-6,-1,-2,-6
82476294088,8,4,-1,1,6,1,5,8
82476300875,7,-4,-5,5,-12,-5,-7,5
82476300875,3,29,0,-38,-6,-3,1,-8
82476317099,-2,-5,2,4,4,0,1,-6
82476317099,-3,-1,-3,-22,-6,-2,2,9
82476323410,-5,1,0,9,8,1,-2,-3
82476323410,-1,-4,-5,5,-10,-3,-2,3
82476330997,3,8,2,16,1,-2,-3,-9
82476330997,-6,-20,-1,7,4,2,-1,7
82476339878,10,6,-1,4,2,1,0,-8
82476339878,-7,-3,0,-2,-4,-1,0,2
82476354121,2,-2,-1,-1,3,0,-1,-2
82476354121,-3,3,-1,14,-4,-3,-3,-6
82476361005,0,0,3,9,4,-1,-1,3
82476361005,6,5,4,7,3,1,1,1
82476377405,-5,-7,-4,5,0,-1,0,-3
82476377405,5,0,1,13,1,1,0,-10
82476378803,-13,-2,-2,-41,-12,-1,-2,20
82476378803,-2,-22,-2,-5,-1,0,-1,-5
82476391115,0,2,-1,5,2,-1,-1,-7
82476391115,0,2,-4,2,-3,-5,-1,3
82476407459,-10,-6,0,-12,1,2,-2,-7
82476407459,9,-8,-4,10,-2,-1,0,1
82476414127,2,0,2,4,3,1,0,2
82476414127,-8,-34,-5,-8,-8,0,1,17
82476420852,8,3,2,21,8,-2,-1,-7
82476420852,-6,8,-2,-19,0,0,2,1
82476437376,0,1,-3,0,0,0,-1,-1
82476437376,-2,18,5,3,-1,-4,-1,3
82476438909,-3,0,-5,-4,-9,-2,-2,-3
82476438909,13,-6,1,6,2,-1,-1,3
82476459726,0,4,0,-4,-3,-1,-2,-5
82476459726,-4,6,2,1,0,3,0,-14
82476461358,3,-16,-5,4,-1,-1,-2,2
82476461358,6,5,3,-9,2,1,1,-4
82476474639,1,-7,-6,-2,-11,-2,0,4
82476474639,-5,3,4,-12,0,1,-2,1
82476481084,8,-21,-4,-4,-2,-1,1,1
82476481084,10,13,0,-14,0,-1,-4,0
82476497286,-6,-1,0,13,3,0,0,-5
82476497286,-9,-11,-6,-4,-8,-4,-1,-16
82476498921,24,31,2,-9,-1,-1,1,27
82476498921,-7,12,-4,-15,-8,-3,-2,-1
82476519762,-7,-7,0,0,0,-1,-3,-4
82476519762,22,8,-3,-8,1,-2,-1,1
82476521371,-23,-1,-1,-13,-1,-2,-3,-16
82476521371,-11,-6,0,8,-3,1,-1,1
82476533417,3,-1,2,0,-3,-2,-1,4
82476533417,-8,7,0,3,0,2,-1,3
82476542450,-10,-19,-3,9,3,0,-1,-10
82476542450,-4,-8,-1,-7,-7,-1,0,2
82476556507,-8,1,-4,3,0,-4,-3,-17
82476556507,-26,-5,-2,3,-3,-3,-6,-8
82476564915,2,-1,0,-2,-3,0,-2,-1
82476564915,-10,13,-2,-3,1,1,-1,-2
82476579966,26,10,8,6,2,0,1,2
82476579966,7,6,-3,1,2,-2,2,8
82476581463,-7,-4,0,-15,-4,-2,-3,-6
82476581463,1,-3,-1,-3,1,-2,1,1
82476593545,-8,17,-4,-21,-5,-3,-3,-3
82476593545,8,8,3,14,0,0,0,3
82476602299,6,-2,0,21,2,0,0,-2
82476602299,-4,-15,-4,-10,-1,-2,0,-1
82476617483,6,-10,-2,-13,-1,1,-2,-6
82476617483,6,8,4,1,0,0,3,32
82476618907,-4,9,2,9,2,-4,-4,-6
82476618907,-2,-2,-4,-4,0,-2,1,1
82476639848,-3,-20,-6,10,1,-3,-4,8
82476639848,-16,-3,-5,-16,-4,-1,-2,-7
82476641361,-1,-36,-4,-18,-2,1,0,-4
82476641361,-14,-16,-4,17,-1,-1,-3,1
82476653371,4,9,3,-3,-2,-2,-1,1
82476653371,-3,-10,-3,-2,-2,-1,-2,-14
82476662435,3,12,1,3,1,-1,-1,7
82476662435,20,-9,-3,-10,1,-1,-2,-14
82476677191,-13,-12,-1,-1,-7,1,2,2
82476677191,25,7,0,-19,-3,-2,-1,-6
82476678784,-5,30,3,15,1,0,-1,-5
82476678784,-3,-2,1,12,5,1,-2,-3
82476699753,3,5,-1,-4,-1,1,0,41
82476699753,-2,-23,-7,-3,-2,1,3,-6
82476701341,5,5,0,-13,0,0,-1,-2
82476701341,-4,-3,-2,-1,-3,-3,-2,3
82476713876,-15,-24,-2,9,7,1,-1,-8
82476713876,-4,7,1,4,1,-1,-3,0
82476722388,-1,-13,-10,-2,-6,-3,-3,0
82476722388,-5,3,3,15,2,-1,0,0
82476737499,15,-3,1,-8,-7,-2,-2,-3
82476737499,30,8,2,-3,0,-1,0,-2
82476738885,-3,-4,0,4,1,0,0,3
82476738885,5,7,2,-4,2,0,1,3
82476759742,-20,-13,-6,-1,-1,-2,-2,-9
82476759742,-10,-27,-1,6,-1,0,0,-7
82476762052,3,7,2,6,1,-3,-3,0
82476762052,-7,-2,-5,-22,-4,-2,0,2
82476773416,-4,8,3,3,-1,-3,-2,-10
82476773416,-11,12,-1,-4,-2,-1,2,7
82476782346,-34,-9,-3,-7,-2,-1,-1,-2
82476782346,-10,-16,-1,-5,-5,-1,-1,-6
82476797351,-9,-15,-3,20,4,-2,0,-5
82476797351,-6,9,2,-2,0,0,-4,0
82476798856,2,3,-1,-5,-3,0,1,-7
82476798856,-19,18,2,-3,-1,-1,-2,-3
82476827188,-5,0,-1,-8,-2,1,-2,-29
82476827188,-13,-2,-7,1,0,0,1,12
82476828822,7,-1,-1,-3,-3,-2,1,7
82476828822,4,1,0,-2,-3,2,2,-13
82476834101,9,7,1,-2,1,1,3,1
82476834101,-32,-50,-5,5,-4,-5,-3,-2
82476840873,7,-2,-2,-6,-3,-1,-2,-6
82476840873,3,-9,-7,-2,-1,0,-2,4
82476857211,17,12,4,-5,2,2,1,5
82476857211,1,23,2,1,2,-1,-2,-11
82476858940,2,-9,-2,-3,-6,-2,-1,0
82476858940,-7,-13,3,19,0,-3,-1,1
82476879876,-3,1,-8,-6,-2,-1,-1,-22
82476879876,6,15,-2,-16,-1,1,0,13
82476881404,-8,-3,1,17,5,0,-1,-6
82476881404,0,-3,-4,1,-4,-2,-5,-7
82476893456,-19,0,1,-18,-5,-2,-3,-7
82476893456,-3,8,-2,8,-6,-3,1,5
82476901572,-5,-1,1,1,3,-1,-1,-1
82476901572,-4,-2,-1,-1,0,-1,-3,-11
82476916590,5,-5,-3,7,-1,-2,-1,15
82476916590,23,26,4,-4,-1,2,1,-8
82476917409,0,-29,-2,-1,2,-1,-2,-3
82476917409,8,6,0,-1,-4,-2,-1,8
82476939269,4,-6,-7,-10,-1,-1,-1,4
82476939269,-6,-2,-1,-1,3,0,0,-1
82476939843,7,4,0,3,-3,-2,-2,-25
82476939843,8,7,2,-11,-2,0,1,0
82476953416,2,-7,1,6,-2,0,1,6
82476953416,-13,-3,-1,0,-2,-5,-3,7
82476961686,-3,12,0,-5,-2,0,-1,0
82476961686,11,3,2,5,3,-1,3,7
82476976567,7,6,1,11,0,-1,-1,4
82476976567,12,6,0,2,-2,-2,-3,-11
82476977324,5,-21,-1,-11,-5,0,0,12
82476977324,-12,-4,-3,-8,-1,0,-2,-1
82476999247,0,-1,-3,-7,-3,0,-1,3
82476999247,-2,-21,-3,-3,1,-2,-1,-5
82476999846,-7,6,2,21,-5,-4,0,2
82476999846,4,1,1,-15,-3,2,-1,-4
82477013416,-13,-8,4,30,8,-1,-1,15
82477013416,-15,-7,-5,-14,-3,-1,-3,-10
82477021599,5,10,0,-8,0,-1,-1,-2
82477021599,-20,-9,-6,-4,-1,-3,-1,8
82477036550,-26,-12,-6,-16,-6,-2,-3,-11
82477036550,-3,4,0,4,0,0,0,-9
82477037278,17,7,-1,-2,0,-1,-2,14
82477037278,5,7,1,4,4,-1,-3,1
82477058981,-19,-21,-6,-9,-8,-3,-3,-13
82477058981,17,2,-1,-1,4,0,1,6
82477059785,-18,-6,-4,3,-6,-2,-2,-31
82477059785,7,0,0,4,-1,-2,-1,27
82477073292,12,31,4,0,-3,-1,0,1
82477073292,-1,15,3,-2,-2,1,2,1
82477081937,1,7,-5,-6,4,0,4,2
82477081937,-3,-9,-3,-2,-7,-4,-3,-10
82477096516,2,6,0,1,2,0,-2,-13
82477096516,-4,3,-1,2,-3,-1,-4,0
82477097302,12,5,-2,-9,2,1,0,6
82477097302,5,6,-1,6,1,-2,-1,-4
82477119067,10,-3,2,10,-5,-2,0,1
82477119067,4,-16,0,-6,-2,-2,-2,6
82477119992,4,-1,2,4,5,1,-1,-3
82477119992,19,-14,-4,2,1,0,-1,16
82477133360,7,11,8,-2,5,2,2,3
82477133360,-3,-8,-4,2,-5,-4,-1,-1
82477140849,-13,23,-1,-5,-3,-1,-1,2
82477140849,-19,-2,0,-20,-1,1,0,4
82477156529,24,5,2,10,-1,-3,-2,10
82477156529,0,-1,-4,1,-1,0,0,-1
82477157299,-5,-1,0,-4,-3,-2,-2,-10
82477157299,-21,10,-1,2,-1,-3,-1,-19
82477179008,3,-16,-3,-8,1,0,0,9
82477179008,-4,1,2,5,1,-1,-3,-23
82477179800,3,-2,-3,-4,-5,-1,-2,-1
82477179800,8,-5,-1,-6,-1,0,-1,7
82477193344,-18,-15,-4,-8,-1,-1,2,-6
82477193344,10,1,3,4,2,-1,0,-1
82477201495,-25,-10,0,6,1,-1,0,-3
82477201495,7,1,0,-8,3,0,2,13
82477216518,31,-6,-3,3,-9,-3,-4,-14
82477216518,-6,-3,1,4,1,0,3,10
82477217309,-3,-4,-2,-1,-3,-2,-2,-1
82477217309,-4,-2,-1,9,1,-2,-2,-6
82477238978,-8,4,-1,-21,2,1,-1,-4
82477238978,-7,0,-3,1,-2,-1,-2,3
82477239757,18,1,1,-2,-3,0,0,9
82477239757,8,13,-1,-3,-1,-1,-1,23
82477253434,-1,11,-6,0,4,-1,-3,-1
82477253434,-1,-8,-1,-10,-9,0,-1,-2
82477261550,5,-2,-1,-1,4,-1,-1,15
82477261550,-9,-18,-5,-6,-7,-2,-1,-23
82477276530,4,-6,-2,-1,1,0,-1,-3
82477276530,-12,-6,-4,3,1,-1,-3,4
82477277323,4,8,0,-1,-2,-2,-2,-3
82477277323,-19,-8,2,3,-3,0,-2,-3
82477298996,-17,3,0,5,-3,0,0,0
82477298996,-4,-5,-4,-10,-3,-3,-5,-33
82477299861,3,-3,-2,-1,0,1,2,2
82477299861,0,3,0,4,1,0,-2,-16
82477313360,-10,4,0,1,-1,1,-1,2
82477313360,18,3,1,9,4,0,-4,1
82477321560,-13,13,2,-11,-4,0,-1,-5
82477321560,7,-2,-1,0,-2,0,0,-1
82477336544,-4,0,-2,2,-2,-1,-1,-3
82477336544,15,14,1,-2,-1,2,1,4
82477337264,4,17,0,3,1,-2,-3,6
82477337264,10,-3,-2,3,-3,-2,0,-4
82477367133,-14,-3,1,-10,-5,-2,-3,2
82477367133,8,4,-2,0,1,0,1,9
82477367906,-6,-6,-2,0,-1,-1,-4,-9
82477367906,-23,5,-2,-4,-4,-1,-3,-13
82477373382,-15,-1,-3,0,-2,-5,-3,26
82477373382,-5,-8,-3,-9,-1,0,0,0
82477381493,-5,-11,-2,-1,-3,-1,-1,-4
82477381493,5,-23,0,3,2,-1,-3,1
82477404766,-2,-3,-6,-3,0,-1,1,-8
82477404766,-4,6,2,-4,-3,-3,-1,2
82477405570,8,17,2,6,-4,-3,0,2
82477405570,1,-8,0,1,2,2,1,-9
82477419015,-4,9,4,9,5,1,0,-7
82477419015,-1,-2,-3,-4,-2,-1,-4,2
82477419758,2,-2,-5,-7,-1,-1,2,4
82477419758,3,-13,1,2,-1,-1,1,-1
82477441582,13,-2,0,3,-2,-1,-2,3
82477441582,-10,-6,-2,-6,-5,-3,-4,-16
82477442510,-2,-17,1,-2,2,0,1,30
82477442510,4,6,-5,-3,0,-1,-3,-9
82477456535,-8,-16,-4,-1,0,-1,1,1
82477456535,-11,-3,-3,2,1,0,1,-8
82477457306,-3,-5,-2,-3,-2,-3,-3,-8
82477457306,-3,-13,-5,-7,0,-2,-2,-5
82477479004,-2,5,-1,0,-4,-4,-1,1
82477479004,6,-1,-2,-3,-1,-2,-1,11
82477479781,-6,-9,-1,4,-3,-1,-2,-12
82477479781,-4,8,0,5,3,2,3,12
82477502159,-4,5,1,13,2,-1,-2,-14
82477502159,-10,-5,-1,-12,0,0,1,11
82477502964,1,-8,-2,1,-2,-1,0,-8
82477502964,-3,7,3,11,-3,-2,-1,45
82477516523,18,10,3,-11,-2,1,1,-2
82477516523,-3,-6,-2,5,1,-2,0,-8
82477517399,8,-1,-1,-6,2,0,0,7
82477517399,6,10,2,0,-3,0,-1,-13
82477538993,-3,11,4,0,1,0,-2,-2
82477538993,1,-3,-5,-3,-4,-1,0,11
82477539800,-7,-2,-3,-10,-6,-2,-5,-15
82477539800,-13,-26,-4,-4,-1,-2,-3,-14
82477562185,1,1,-2,-2,-1,0,1,2
82477562185,3,1,2,4,3,1,-3,-12
82477563199,3,-6,-1,0,0,-2,-2,-4
82477563199,11,23,5,-6,-8,-3,-2,-8
82477576566,-13,-1,-3,2,3,0,0,-15
82477576566,2,-6,2,2,0,-1,1,1
82477577451,0,-7,0,0,2,1,0,-4
82477577451,5,4,-1,-6,3,-1,1,3
82477599190,1,-8,-3,0,-6,-3,-3,-10
82477599190,-2,10,0,5,2,-1,-3,0
82477599889,-10,-16,-2,-3,-3,-2,-1,3
82477599889,9,-5,-3,-2,-3,-3,0,-8
82477629745,5,-2,-2,-6,-3,0,-1,1
82477629745,-3,-2,-2,3,1,-3,-1,-2
82477630433,-2,4,-3,-5,1,0,-1,1
82477630433,-1,5,0,-3,-4,-2,-2,-4
82477636532,16,-4,-1,0,-2,-2,-1,7
82477636532,-15,1,2,3,-1,-1,-4,-32
82477637335,-4,2,-4,-2,-1,1,2,10
82477637335,-15,2,-1,1,0,0,-2,-3
82477659050,2,-6,-1,-11,-2,-1,-1,5
82477659050,-9,-16,-2,5,0,-1,0,-11
82477659788,1,7,0,-2,-6,-2,-3,-4
82477659788,5,8,-4,-1,-3,1,-3,4
82477682146,-15,-3,0,1,0,-2,-4,-2
82477682146,7,-7,0,-6,-2,1,3,5
82477682936,-8,-6,-1,-1,-2,0,-1,-5
82477682936,26,3,-1,-1,-1,-1,-2,8
82477696623,-5,3,-1,1,3,0,1,0
82477696623,11,1,-1,-6,-7,-1,-4,-13
82477697296,-9,10,3,-2,4,1,0,8
82477697296,-3,-2,-1,4,-5,-2,-3,-22
82477718985,-6,-3,-1,2,1,1,4,4
82477718985,-7,4,-2,-5,-1,-1,0,8
82477719760,9,-3,-1,-1,-2,-4,-3,-12
82477719760,-2,-19,-2,0,3,1,-1,-5
82477749739,-7,-21,-5,-17,-5,-1,-3,-5
82477749739,1,-1,-1,10,-2,-4,-1,17
82477750509,7,-3,-2,-2,3,1,0,-12
82477750509,-17,-2,-3,12,-1,-3,-2,0
82477756500,3,4,-1,-3,1,0,0,-9
82477756500,16,-3,-1,-1,-7,-1,-2,1
82477757306,5,0,2,-1,-4,-1,-2,6
82477757306,12,5,2,-2,8,-1,0,-11
82477779008,-2,-1,-3,-11,-6,0,-1,4
82477779008,-14,5,-2,-1,3,0,0,0
82477779802,5,-19,-4,-6,-8,-4,-1,11
82477779802,-6,-20,-6,-5,-1,1,0,-7
82477802207,-5,4,1,1,-2,-3,-4,8
82477802207,9,6,1,0,1,1,1,-25
82477802953,1,23,0,0,12,0,0,23
82477802953,-29,3,3,-7,-13,-3,-3,-4
82477816495,19,-3,-3,3,-2,0,1,20
82477816495,-25,-1,-5,-6,-2,-2,-1,1
82477817267,-4,-3,1,12,5,0,0,-15
82477817267,-15,-3,-5,-6,0,-4,-5,-26
82477839048,-13,3,1,9,4,-1,-1,-8
82477839048,0,0,0,-7,-5,-2,-1,9
82477839772,3,19,-1,-4,-5,-1,-3,-3
82477839772,-8,7,0,-3,1,-1,2,-26
82477862265,2,-13,1,-2,-2,-2,0,-11
82477862265,4,-6,-6,0,2,-2,-2,23
82477862963,-7,1,0,1,-6,-1,-2,-16
82477862963,21,11,-1,-11,-4,-1,-1,6
82477876515,-17,7,0,0,3,0,-3,-21
82477876515,0,7,5,8,2,0,1,25
82477877217,-6,-19,-2,-5,-3,-2,-1,-4
82477877217,-10,5,3,7,2,0,1,12
82477899256,8,1,1,-3,1,-1,-1,5
82477899256,-9,-12,-3,-2,0,-3,-4,-21
82477899890,-5,1,0,-9,-3,1,1,16
82477899890,7,-30,-6,2,-1,-2,-1,28
82477922223,-5,-6,-2,4,-1,-1,-1,-14
82477922223,-2,6,-2,-6,0,0,-3,-10
82477922940,11,11,3,11,5,-2,-2,-3
82477922940,-14,2,0,-10,-4,0,3,6
82477936492,7,0,-3,7,1,-1,-3,3
82477936492,25,3,0,-1,-4,-2,2,29
82477937290,1,-30,-3,-6,0,0,0,-3
82477937290,10,6,1,-6,0,0,-2,-12
82477958965,5,1,-2,0,-3,0,0,28
82477958965,-4,-5,2,-3,2,-2,-1,-12
82477959726,0,19,-3,4,4,0,-1,-4
82477959726,0,-4,-1,-2,-6,-4,-1,-6
82477982301,0,-5,1,4,3,0,-2,-4
82477982301,-12,-6,-4,-1,-1,-3,-5,-4
82477983206,-14,-13,-8,-5,-9,0,-1,-8
82477983206,-28,1,-2,4,3,0,-3,7
82477996630,-6,1,-2,-11,-4,-1,1,-2
82477996630,1,-2,0,1,0,-1,-2,1
82477997249,-18,7,1,1,-5,-3,0,24
82477997249,3,11,4,7,5,2,-1,0
