timestamp,emg1,emg2,emg3,emg4,emg5,emg6,emg7,emg8
82612878908,0,0,-1,-3,-4,-2,-3,-2
82612878908,6,5,1,0,0,0,-1,1
82612879673,-1,0,-1,-9,1,0,0,0
82612879673,2,-1,-2,3,0,-3,0,-1
82612880495,2,4,2,-1,-4,-3,0,1
82612880495,-3,-2,-6,-4,-4,2,-4,-4
82612883248,-2,34,2,-1,2,-1,1,-2
82612883248,-11,0,4,-3,2,4,3,4
82612891080,5,-2,-1,-4,-3,-1,0,1
82612891080,-7,-7,0,5,0,-3,0,-2
82612899094,15,3,-1,4,-4,1,-2,1
82612899094,27,1,-1,-6,3,-11,-4,5
82612905365,-46,-8,-5,-7,-3,6,-2,-11
82612905365,0,6,7,21,-6,-2,0,1
82612920580,-7,-30,-3,4,0,-7,-3,-3
82612920580,17,5,1,-3,4,-1,5,7
82612929969,20,-4,-3,-17,-14,2,-3,-1
82612929969,-2,-3,-5,-5,1,0,-4,-11
82612944281,-19,-3,-1,-6,-4,-5,-2,0
82612944281,-11,-3,-1,-1,6,5,-3,-4
82612951277,47,7,2,10,3,-3,5,8
82612951277,-45,-7,-1,4,4,-4,-2,-7
82612965274,21,-2,0,-13,2,4,-1,0
82612965274,-6,-3,-5,-2,-3,-3,-2,-6
82613007024,12,2,1,-6,0,-3,-2,3
82613007024,34,1,-4,-5,-5,4,-5,5
82613007864,-11,-3,-3,-1,3,10,13,-5
82613007864,-2,2,-1,-5,5,0,0,7
82613011607,32,1,-1,2,3,-6,-5,-5
82613011607,-43,-5,2,7,-8,-8,-4,-8
82613012415,-8,-3,-5,-10,-5,0,-8,6
82613012415,20,2,0,15,3,12,-1,2
82613017781,-53,-8,-1,13,13,-9,2,-5
82613017781,11,7,1,3,5,-5,-5,1
82613025275,-3,-17,-2,-29,-23,-6,-4,-16
82613025275,6,1,1,5,6,2,4,2
82613034226,32,8,0,0,-17,-1,-10,10
82613034226,-55,-7,-2,9,13,6,11,-19
82613048400,-12,-3,-3,3,-1,-1,-13,-1
82613048400,5,-3,-2,-8,-8,-34,-4,-2
82613055188,11,-2,0,3,-1,10,2,2
82613055188,-2,-1,1,-3,-2,1,-1,5
82613079146,4,8,2,-1,-2,-4,-1,-1
82613079146,-35,-10,-8,-12,-4,9,-8,-30
82613080701,3,1,0,-2,-6,-26,-2,10
82613080701,-16,-4,-4,-16,-7,6,7,-5
82613092847,8,5,5,7,18,19,14,7
82613092847,7,1,-1,5,-1,-5,-2,2
82613101839,-9,-3,-3,-10,-3,16,2,-9
82613101839,46,3,9,-1,-3,-17,-19,-5
82613116811,-39,-5,-8,-7,-4,-3,-13,-5
82613116811,-4,-3,6,27,12,-14,8,-9
82613118257,-4,-3,-6,-43,-25,-10,-3,-3
82613118257,6,-12,-3,17,4,17,24,20
82613139155,4,7,8,-2,15,10,5,11
82613139155,12,-3,3,51,10,20,-16,-1
82613140774,-22,-2,-2,-8,-11,-22,3,-20
82613140774,10,4,-4,-7,3,10,-2,13
82613152979,5,-4,-9,-29,-20,-26,-6,-11
82613152979,-2,-1,-2,-4,4,5,-4,32
82613161821,5,2,4,-2,5,-2,-10,-6
82613161821,-42,-4,0,-2,-7,15,-3,-25
82613176734,1,-2,-8,6,-6,-17,20,0
82613176734,-3,0,3,-7,-3,9,-6,0
82613178287,-1,-5,-5,-2,1,0,7,-1
82613178287,16,7,1,15,18,-4,-7,0
82613199591,28,9,-1,-14,-8,-4,-12,7
82613199591,-47,0,-1,-11,0,23,25,-13
82613201237,19,3,-2,-28,-20,-1,-1,1
82613201237,-50,-13,-2,52,17,6,-8,-11
82613212988,13,2,2,21,9,-37,-13,-6
82613212988,5,2,-6,-37,-20,-29,-24,-10
82613221808,-5,-2,4,13,12,20,9,14
82613221808,17,9,0,-37,-25,-14,4,20
82613236826,5,-1,-3,-12,-12,12,-10,-16
82613236826,2,-4,2,25,26,4,9,6
82613238247,1,0,2,-12,-8,-18,-9,6
82613238247,24,1,-3,0,-9,3,-11,-9
82613259312,6,6,3,8,3,9,21,20
82613259312,39,-6,-1,-11,4,-3,-7,-1
82613260790,-21,1,2,20,4,26,16,-5
82613260790,20,5,1,-30,2,-22,-2,31
82613273045,27,2,0,7,-11,4,-8,0
82613273045,-22,5,2,-8,-19,-10,-1,-20
82613281768,-1,-4,-1,31,11,-4,-3,8
82613281768,11,-3,-1,-18,-4,3,-1,3
82613296783,-29,-5,4,6,20,6,0,-4
82613296783,6,8,0,-30,-49,4,2,8
82613298268,13,-12,-11,-18,-12,-22,-16,-26
82613298268,-45,-7,5,54,19,-6,3,-18
82613326589,9,1,-3,-17,-4,11,3,6
82613326589,-22,2,-5,13,19,-11,1,-1
82613328253,-4,1,-3,0,8,30,0,-8
82613328253,27,4,-2,-29,-24,-10,-4,-11
82613332993,-22,-6,4,-3,-5,-5,-7,-9
82613332993,31,-5,-2,15,6,-2,1,-2
82613341846,-56,-7,1,-4,1,-8,2,0
82613341846,0,-2,0,5,-11,-5,-9,-13
82613356823,-6,-3,-6,5,20,7,0,25
82613356823,12,-3,1,-20,-7,4,4,4
82613358253,29,18,-1,12,-1,-2,-2,4
82613358253,-38,-9,-7,1,5,1,-1,-16
82613379364,0,-2,0,-10,-17,-4,-6,-18
82613379364,5,1,0,9,-5,-9,-2,12
82613380753,7,0,-2,13,13,7,-1,2
82613380753,14,3,-4,-26,8,1,10,16
82613392942,10,-10,-3,25,-13,-2,-2,-7
82613392942,1,10,-1,-15,-6,-1,-6,-4
82613401798,-2,-3,1,-1,-4,2,12,-4
82613401798,-11,-18,-10,-8,-7,-11,-13,-6
82613416668,5,-16,1,-4,7,3,-7,-2
82613416668,-3,-5,-4,7,4,-3,14,33
82613418298,-8,5,1,1,-1,1,-8,-32
82613418298,52,1,2,-7,-4,-3,-1,21
82613439181,-53,5,1,6,-5,-4,1,-7
82613439181,-9,-4,-5,-21,12,3,-7,-39
82613440766,-42,-22,0,1,-21,-7,-4,-19
82613440766,-7,2,-7,6,1,2,3,-15
82613452986,23,12,2,12,13,2,-1,-7
82613452986,-12,-36,-1,-11,-7,-1,9,12
82613461827,5,1,-5,-14,-1,1,1,11
82613461827,10,1,3,-2,-1,0,1,9
82613476684,-3,1,4,14,-5,-3,3,-6
82613476684,32,13,-5,-8,-10,-1,-8,-2
82613478269,-41,-6,-3,-6,0,-2,-2,11
82613478269,9,4,2,-7,-4,3,6,2
82613499307,7,19,3,7,23,-1,-1,10
82613499307,-3,-4,-4,7,-22,-4,-6,2
82613500786,6,-5,-4,-40,-5,-8,-7,25
82613500786,-55,6,3,48,1,0,-6,28
82613512770,64,28,4,-5,2,1,-3,-19
82613512770,24,-3,-5,-29,-6,5,4,7
82613521804,-21,16,3,22,27,-3,12,-34
82613521804,-6,-25,0,-3,0,9,7,24
82613536150,58,48,3,-1,-7,-5,-4,18
82613536150,-39,6,1,-4,3,4,3,45
82613542801,-11,-13,-3,-7,-6,-4,-12,-64
82613542801,24,-3,-11,-13,-1,-5,2,40
82613559309,-78,-19,-6,0,-1,-2,-5,-9
82613559309,11,-1,3,2,2,-3,-4,-17
82613560809,63,12,3,19,8,-5,-3,28
82613560809,-80,-23,-5,-3,10,3,-1,-53
82613573003,11,-33,-3,-4,-17,5,2,-3
82613573003,-61,-5,-4,5,2,-5,-11,-27
82613581804,19,-28,-19,-13,-3,8,-3,28
82613581804,17,-5,-2,-21,6,-17,-5,-4
82613596810,13,-10,-5,9,-13,-9,-2,3
82613596810,-43,0,9,17,9,9,4,-32
82613598231,-6,10,8,-3,-10,12,4,42
82613598231,72,58,-8,-19,-4,0,-13,-20
82613619238,-63,-28,-1,-6,-4,-1,3,-24
82613619238,39,5,-6,-6,-16,-34,-18,17
82613620813,-3,1,1,-23,-5,3,6,13
82613620813,35,28,9,49,17,13,-6,-101
82613633017,6,4,-2,29,-2,-11,13,62
82613633017,28,-1,-1,0,-1,-5,-4,-3
82613641768,-33,-7,2,-7,1,10,-10,-44
82613641768,-22,-9,1,-18,0,5,9,-15
82613656218,12,5,-3,-75,-21,6,13,-6
82613656218,-90,-15,-14,83,19,-2,-21,-47
82613662777,19,6,7,64,15,-18,-31,-26
82613662777,1,-6,-3,-31,-26,4,35,62
82613679274,-18,-13,-5,-27,-2,-3,-7,3
82613679274,27,10,-2,-72,-22,-8,12,-2
82613680838,-9,-1,-2,8,-5,-11,-22,-33
82613680838,13,-2,-3,-9,7,-7,-13,2
82613692841,-18,-2,-6,8,-14,6,8,-24
82613692841,51,-8,5,20,-4,2,-7,-2
82613701742,-37,-2,-2,10,13,9,6,9
82613701742,11,13,8,9,1,3,5,36
82613716039,-3,-7,-1,-16,1,1,0,-4
82613716039,31,8,5,0,8,15,7,7
82613723009,13,3,-7,-27,-13,-11,3,21
82613723009,-10,-8,0,8,-10,-13,-1,-9
82613739092,5,-1,0,12,4,1,-13,14
82613739092,-11,1,-2,-3,10,14,10,9
82613740720,22,-3,-5,-8,-18,-7,7,9
82613740720,-18,-9,-3,-5,-3,2,-2,-8
82613752748,7,-3,-2,-27,-6,-17,-14,-48
82613752748,-3,-5,5,46,18,11,23,49
82613761800,7,3,3,-19,-17,-4,0,11
82613761800,6,-5,-1,11,10,-3,-11,-4
82613775950,-4,-1,-4,-51,-10,-4,1,-24
82613775950,28,19,-2,26,1,-2,5,19
82613782709,-13,-5,0,12,5,9,3,4
82613782709,-15,-3,-8,-17,-23,-6,-9,-6
82613799070,8,-9,3,20,18,2,5,5
82613799070,26,6,-1,-29,-10,-3,-11,-24
82613800716,-13,5,4,17,11,-1,5,-5
82613800716,7,-4,-1,-4,-9,-3,-1,-4
82613821563,-17,-1,-4,8,-3,3,-7,20
82613821563,-3,2,2,-21,-3,-1,5,-7
82613823196,14,-3,1,19,8,0,5,-27
82613823196,-12,-3,1,-11,-3,0,-7,-7
82613835907,11,0,-3,22,0,-5,1,2
82613835907,-22,7,-8,-9,-1,1,-1,-6
82613842801,1,-8,-3,-3,0,-2,4,51
82613842801,3,3,0,-8,-6,-2,-3,41
82613859338,15,2,-4,10,7,2,2,12
82613859338,-25,-4,1,-21,0,-6,-6,-4
82613860744,-2,13,1,1,-2,-1,0,-5
82613860744,23,-3,1,23,14,0,3,5
82613881603,-37,-3,-4,-7,-8,-1,0,13
82613881603,-5,-14,1,-4,7,-6,-3,-1
82613883270,23,6,-2,-8,-6,2,-1,-11
82613883270,-46,-28,-6,-8,0,-2,3,4
82613896142,11,-7,-1,14,11,1,1,-5
82613896142,5,0,4,-6,-1,-3,-4,-13
82613902931,-2,-16,4,0,-7,0,1,-9
82613902931,33,11,2,4,-1,-1,-2,52
82613919297,4,-16,-5,-9,5,2,0,-6
82613919297,1,-10,1,13,2,-3,-5,-21
82613920807,21,12,1,-16,-8,0,0,4
82613920807,-19,-13,-13,9,10,-7,-9,-29
82613941651,9,18,6,36,7,1,-2,35
82613941651,2,11,-12,-47,-17,-1,0,25
82613943285,53,-19,-3,22,15,0,0,-26
82613943285,-12,2,0,-11,-10,-2,-1,9
82613963511,-31,-20,-4,-7,-9,-4,-5,-74
82613963511,-14,6,-6,0,-2,-1,-1,-14
82613964244,42,9,14,8,7,0,-1,-21
82613964244,-1,-14,3,-11,-12,-1,-2,-25
82613985996,7,-5,0,4,2,-5,-5,45
82613985996,32,-12,-2,-9,3,-1,-1,-13
82613986887,-101,-9,-6,-2,2,-1,-8,-53
82613986887,46,15,2,-16,-4,3,6,11
82614000936,87,18,23,3,-2,0,-5,19
82614000936,-44,7,4,-11,2,2,-7,-95
82614001766,-9,16,-1,28,4,3,22,57
82614001766,46,27,-3,-11,0,1,-6,-76
82614023458,-16,-30,-9,6,2,4,11,47
82614023458,-9,-10,-3,12,-4,-4,-3,-3
82614024262,23,-4,-9,13,8,-5,-6,53
82614024262,-74,4,-1,-29,-19,-2,0,-7
82614045939,12,18,-6,18,-1,0,0,-40
82614045939,16,-13,-5,2,2,-5,-3,43
82614046758,13,-6,-10,-11,-5,-5,-1,38
82614046758,18,-12,-3,-13,-9,10,0,-4
82614060347,-23,5,0,7,8,-1,5,41
82614060347,-51,-2,-1,-80,-20,6,-3,-22
82614076052,49,6,1,81,20,-2,-5,23
82614076052,-14,7,2,-2,0,-13,0,-13
82614083547,-31,-1,-1,-2,-15,-8,-11,-46
82614083547,26,4,-2,-25,-21,14,13,37
82614084328,-28,1,3,-80,-9,-13,-83,2
82614084328,-26,-6,6,94,45,34,87,67
82614106179,7,9,3,2,9,15,33,51
82614106179,7,-6,3,25,3,-8,3,1
82614106745,23,0,-3,-42,-28,-7,2,-25
82614106745,-87,-22,-7,-2,-9,-26,-50,-69
82614120936,14,3,-5,-14,3,-16,-25,-21
82614120936,24,29,3,11,-18,-2,8,28
82614121946,-47,-10,-4,-6,9,3,13,-28
82614121946,29,3,-4,-9,-4,-7,-20,11
82614143694,0,4,-2,0,2,5,9,-18
82614143694,-4,-1,-2,21,14,-1,-14,-9
82614144240,-8,-3,0,-18,-18,3,13,-6
82614144240,20,1,4,16,7,0,-1,5
82614166187,-9,-3,-7,-18,0,-1,-11,-20
82614166187,-5,-9,1,21,7,-5,-3,-4
82614166777,-5,-3,0,-1,0,0,8,1
82614166777,18,-1,2,-29,-4,2,1,3
82614181160,-9,-2,0,1,-12,-6,-7,-19
82614181160,-3,-6,-1,0,5,-2,-3,7
82614181850,1,2,2,-4,0,6,16,-1
82614181850,-6,3,-3,-15,-14,-3,-11,-11
82614203479,1,-2,4,43,25,-1,-6,-11
82614203479,2,-7,-1,17,6,-4,-1,7
82614204408,3,3,1,-9,-6,3,5,-6
82614204408,-19,-3,-4,-21,-15,-1,-5,-10
82614226107,-2,10,0,-12,-3,0,1,1
82614226107,6,-11,-6,17,4,-1,0,1
82614226816,-25,-4,-1,9,5,10,-1,-7
82614226816,25,-3,-6,-59,-14,-27,-9,-1
82614242422,13,-11,-1,-6,-3,4,6,-11
82614242422,-33,-11,-1,4,3,1,-3,-4
82614243471,21,3,7,47,12,5,6,-1
82614243471,7,-7,-1,10,3,8,-2,-5
82614263462,-7,-1,-5,8,-3,-10,-8,-12
82614263462,17,12,2,1,-1,-3,0,5
82614264241,15,-20,-6,5,-6,-6,0,-1
82614264241,-11,3,1,25,2,-2,-3,-5
82614286084,-3,-1,-1,-9,-2,-1,-2,-1
82614286084,4,3,6,-32,4,5,1,0
82614286720,-12,4,-7,12,-1,-8,-4,-1
82614286720,9,1,1,47,4,-3,-1,4
82614301023,-8,11,-6,-54,-23,5,-1,-4
82614301023,-3,-9,-2,16,2,-6,-1,-2
82614301750,-6,1,6,14,3,2,4,1
82614301750,5,-6,-1,22,9,3,-3,-1
82614323476,4,3,-4,-81,-15,-4,0,2
82614323476,-2,0,-6,0,-5,-2,-2,-9
82614324221,4,-3,0,-11,-10,-4,-1,-8
82614324221,2,0,12,30,16,4,-3,9
82614346138,-12,-21,0,33,11,2,0,0
82614346138,-4,-1,-5,-50,-18,-5,-5,-1
82614346820,-4,-4,-8,-28,-12,-4,2,-2
82614346820,5,-2,1,23,-5,-3,-3,-2
82614360917,19,12,7,38,18,4,2,-5
82614360917,-1,-5,0,-13,1,0,-2,-5
82614361929,-2,2,4,15,6,1,3,29
82614361929,-2,4,-4,-53,-5,-2,-1,-3
82614383642,0,2,0,-3,-6,0,-2,-2
82614383642,-7,-1,0,39,12,4,-1,-1
82614384192,-8,5,-3,-21,-3,-7,-1,-9
82614384192,5,1,-4,-17,-4,5,4,5
82614406042,-7,-8,-2,29,2,4,-9,-1
82614406042,-2,-2,-3,9,-1,-6,-2,-8
82614406920,-6,0,-1,-14,0,-7,-4,-4
82614406920,-2,-1,-10,-99,-19,-9,-4,0
82614421085,-6,-5,0,30,6,-4,0,-2
82614421085,-1,3,6,28,2,13,4,4
82614421774,1,1,-3,-38,-5,-8,-4,-6
82614421774,-1,-5,0,34,1,-6,-3,0
82614443537,5,-4,1,18,-1,0,-2,1
82614443537,13,9,-1,-38,-5,-4,3,9
82614444279,-3,-1,-1,15,2,6,1,-4
82614444279,1,11,2,8,1,5,3,8
82614466040,3,-4,0,-16,-1,-4,-1,-1
82614466040,-2,3,-2,44,1,-5,-2,-2
82614466834,-5,-3,-6,-10,3,0,-3,-4
82614466834,0,1,2,13,-2,-2,-3,-6
82614480940,-8,2,-5,-5,-3,-5,-3,-2
82614480940,-1,-3,0,-8,3,3,-1,1
82614481786,5,1,-4,2,-3,3,2,-1
82614481786,-12,0,1,35,5,1,-1,-4
82614511574,-5,-1,-3,3,-1,-5,-2,-2
82614511574,-4,-5,-4,1,-3,-7,-6,-8
82614512142,0,-3,-5,-40,-7,2,-1,-1
82614512142,5,-2,-4,65,4,-2,-1,2
82614526124,-6,-1,-3,-23,-7,-4,-1,-6
82614526124,-3,0,3,57,8,1,-1,2
82614526776,-3,2,-1,-20,-2,1,-1,-3
82614526776,4,-4,-2,14,-1,-1,-2,-2
82614541008,-7,3,1,6,0,0,1,0
82614541008,-5,-20,-12,-80,-11,-3,-4,-1
82614541939,-2,5,5,56,9,-1,0,-9
82614541939,0,0,-2,-35,0,2,5,10
82614563586,-4,-24,-2,-7,2,-1,-1,0
82614563586,5,7,5,13,5,0,1,-5
82614564281,-11,-5,-7,-6,-6,-1,-4,-6
82614564281,0,-10,-3,-43,-4,1,-1,2
82614585953,32,11,6,15,-1,-1,-2,-5
82614585953,20,31,1,-45,-7,-4,1,28
82614586780,7,-13,1,-7,-1,1,2,-9
82614586780,-15,7,1,16,2,0,-2,0
82614600942,-8,-12,0,23,5,-1,-1,1
82614600942,-5,-2,1,-6,-1,-2,-2,-5
82614601745,5,8,-6,-18,-9,-4,0,12
82614601745,1,-8,4,-1,5,1,-2,-9
82614623472,-9,4,-2,-19,-2,0,0,3
82614623472,-22,-16,-2,27,3,-1,-1,-11
82614624245,-10,-2,1,-21,-1,-1,-3,11
82614624245,-7,-7,-7,-5,-4,-2,0,-9
82614646178,0,3,-4,-18,-6,-1,-2,-2
82614646178,-5,-6,-2,7,-3,-1,0,-3
82614646773,-5,12,2,14,7,1,-2,-5
82614646773,15,2,-4,-36,-11,-4,-6,-5
82614660886,-7,4,1,12,6,0,3,7
82614660886,3,-1,1,18,-3,0,1,-3
82614661724,-4,14,-4,-16,-1,1,0,-5
82614661724,1,-15,-2,4,0,-2,-3,-3
82614683450,-3,2,-3,6,-3,-2,-2,-6
82614683450,-9,-3,2,30,6,-1,0,-5
82614684194,11,1,-1,-5,-9,-4,0,3
82614684194,4,14,2,-11,3,-1,2,-2
82614706181,-9,15,-4,-11,-6,-2,-1,-4
82614706181,-13,-20,-8,-18,-5,-2,-3,10
82614706700,10,-11,1,18,2,0,-1,1
82614706700,-3,8,-1,-37,-5,-1,-3,-3
82614721127,-4,-2,1,5,1,-1,-1,0
82614721127,-4,-3,-6,-35,-10,-3,-2,-5
82614721818,-24,-1,-2,27,0,0,0,-21
82614721818,-16,-36,-1,23,6,2,1,-2
82614744018,-6,-5,-6,-35,-3,-1,-2,-1
82614744018,5,5,1,-1,-4,-1,-2,-5
82614744761,2,-9,-1,-12,-3,-3,-1,2
82614744761,-3,10,1,2,-2,-2,-2,-4
82614765940,-9,-10,-7,25,0,-2,-2,-4
82614765940,10,12,-1,-3,-2,-2,-2,-6
82614766749,4,-6,-1,-9,-2,0,0,1
82614766749,-25,2,2,33,0,-4,-3,-3
82614780918,21,13,7,-1,7,3,1,6
82614780918,4,3,0,6,-3,-1,0,1
82614781939,-12,21,-4,-5,-2,0,-3,0
82614781939,12,-10,1,-1,1,-2,0,0
82614803391,-10,-8,4,13,2,-1,-7,-14
82614803391,-8,-6,-7,5,1,0,1,7
82614804162,11,-4,5,39,-1,2,9,26
82614804162,-2,-13,-2,-18,-7,0,0,-2
82614826096,4,1,3,0,0,2,11,22
82614826096,16,0,-7,-11,2,-4,-13,-39
82614826733,3,-4,-7,-22,0,0,16,42
82614826733,9,3,-7,2,-2,-2,-3,-7
82614841068,2,13,3,21,7,2,-4,-9
82614841068,-29,-42,-8,-15,-9,-3,-5,-3
82614841819,-4,-2,8,6,7,-2,-10,-19
82614841819,15,4,-6,37,-1,-1,2,4
82614863463,-3,-2,4,-46,-9,0,0,3
82614863463,-9,2,0,22,7,-1,-1,6
82614864220,-31,-4,-6,-79,-12,0,-8,-14
82614864220,-8,-1,4,44,8,1,-10,-19
82614886012,6,-10,-8,4,-4,-1,-2,-77
82614886012,3,21,4,-21,-2,-1,13,25
82614886909,4,-51,-9,-3,-2,-2,-6,-14
82614886909,5,29,6,4,4,-1,0,20
82614900912,-2,-3,-7,13,-8,-6,-7,-12
82614900912,6,5,5,6,4,2,-3,-33
82614901705,12,-23,-3,7,-2,-4,0,43
82614901705,0,0,9,24,8,0,1,3
82614923482,-8,-12,-13,-32,-15,-4,-2,17
82614923482,4,12,6,58,8,-2,-5,-22
82614924280,3,11,-3,-16,-1,2,0,7
82614924280,4,1,-2,21,1,-1,-2,-27
82614945992,-19,5,6,-10,7,3,1,4
82614945992,-2,4,-5,-11,-16,-7,-12,38
82614946773,1,-9,-2,31,3,0,7,-7
82614946773,3,-6,-1,-22,2,-1,1,-32
82614960268,-13,16,-10,-24,-15,-6,-4,55
82614960268,2,-11,0,-11,-1,1,4,-25
82614968463,-29,-3,5,15,1,-5,-4,-25
82614968463,-3,3,-2,-25,-8,-3,-2,6
82614983391,-2,-17,-7,-16,-1,-3,-5,-29
82614983391,12,2,0,19,2,0,-1,9
82614984187,-11,8,3,10,0,-4,-4,2
82614984187,6,13,-9,-55,-10,0,0,-20
82615005845,-18,1,9,41,13,-1,-1,49
82615005845,2,10,3,-5,-1,1,4,-2
82615006652,10,4,-8,-28,-11,-2,0,-10
82615006652,2,4,1,2,0,-1,-4,12
82615020193,10,-1,0,-10,1,1,0,-14
82615020193,-8,-6,0,29,3,0,3,10
82615028381,13,14,2,-38,1,-1,-2,-10
82615028381,0,-10,-5,6,-5,0,-2,9
82615043382,0,-3,-3,9,-1,-2,2,3
82615043382,-4,-12,-4,-22,-1,1,4,32
82615044175,10,-2,0,17,0,0,-5,-8
82615044175,5,-6,-5,-15,-1,-3,-2,5
82615065879,6,-9,2,3,2,0,4,-8
82615065879,-2,1,-3,-11,-4,-2,-4,-7
82615066669,-4,11,-3,16,3,0,-2,-3
82615066669,-32,-6,-6,-4,-2,-1,1,-56
82615080237,24,-17,8,15,2,0,0,29
82615080237,47,26,-1,-18,-3,0,4,31
82615088439,4,-6,6,20,7,2,-2,-1
82615088439,-23,-14,-1,-6,0,-1,0,-7
82615103405,-2,0,-1,-1,-1,0,-5,19
82615103405,-19,-2,2,-6,-2,2,6,-12
82615104158,8,8,3,9,-2,0,7,35
82615104158,13,-12,3,2,0,-1,-1,26
82615125850,-21,-21,0,-8,-3,-2,-3,-48
82615125850,-2,-8,-4,-7,0,-1,-1,11
82615126707,-3,11,-3,-2,-2,-2,-8,-23
82615126707,-11,-2,-2,2,-3,-1,2,18
82615140196,14,14,-2,-4,-2,-3,-4,-32
82615140196,-18,-42,-2,4,1,-1,0,2
82615156201,2,0,1,9,-3,-3,-2,-14
82615156201,0,6,-1,-14,-3,0,0,12
82615163331,-8,25,-1,-1,-1,-2,1,-12
82615163331,10,-2,1,-2,1,-1,-1,-7
82615164137,3,1,-1,27,3,-3,-4,-3
82615164137,17,-3,-11,-12,-7,-2,0,9
82615185871,6,5,-4,-5,-4,-3,1,11
82615185871,-16,2,0,-4,-3,0,-5,-9
82615186705,7,-2,-2,-1,-1,-2,-5,1
82615186705,1,-1,-1,-7,-2,-1,-1,-7
82615200269,0,-6,-4,-3,-2,0,4,8
82615200269,-6,5,2,5,1,-2,-3,-20
82615208418,-6,-13,0,5,2,2,-3,15
82615208418,-7,-13,-1,-4,-2,0,5,5
82615223336,-18,-4,-1,6,1,0,-3,-42
82615223336,13,-8,1,-5,-2,0,2,5
82615224159,-8,-1,2,5,3,0,0,-7
82615224159,19,25,6,5,3,1,0,18
82615245919,11,-8,1,5,2,2,-1,2
82615245919,-25,-4,-5,-10,-4,-3,-6,-29
82615246718,-2,7,-3,-7,-4,-3,-5,-9
82615246718,-1,3,3,6,3,0,-1,4
82615269108,-6,-29,-4,-6,-1,-2,-1,7
82615269108,-5,-9,-2,4,1,-2,-6,0
82615269806,3,1,-7,-5,-4,0,2,2
82615269806,-3,-1,5,8,1,0,-2,7
82615283416,5,7,-2,-9,0,0,-2,11
82615283416,9,14,-1,-16,-4,-2,4,3
82615284220,-14,0,-1,3,-1,-1,-1,-11
82615284220,1,-7,-5,-4,-3,-1,-4,-26
82615306637,0,15,5,-2,0,0,-4,4
82615306637,7,10,-4,7,-4,-3,1,3
82615307400,17,5,3,-7,-1,-2,1,-3
82615307400,0,6,1,-1,0,-1,-3,-1
82615329069,7,8,0,5,-2,-1,1,9
82615329069,-8,19,-2,-8,-3,-2,-14,-38
82615329830,-47,-18,-1,0,-1,-1,3,1
82615329830,5,3,2,2,0,-2,-1,12
82615343418,-10,10,3,-1,0,-1,2,-7
82615343418,-10,-11,-1,-3,-1,-1,-2,-9
82615344215,11,3,-1,-2,1,0,-3,51
82615344215,-6,-20,-5,-4,-3,-2,-2,10
82615366513,0,1,-4,-1,-3,-2,-5,-31
82615366513,4,-3,1,2,0,0,3,5
82615367298,9,3,4,2,-1,-1,-3,-12
82615367298,-2,-3,-3,-4,2,2,-1,-3
82615389198,-3,1,-2,2,-2,-1,-1,17
82615389198,4,-7,-7,-1,-2,-3,2,12
82615390068,5,-2,-1,-5,1,0,1,-13
82615390068,-4,6,0,0,-4,-2,-4,-11
82615403329,-1,-9,-5,-4,-3,-4,-2,-2
82615403329,-17,-2,1,3,4,0,0,-15
82615404099,-5,-1,-4,-2,-3,-1,1,0
82615404099,-4,-2,-3,4,1,0,-2,4
82615426724,9,-2,1,2,-1,1,1,16
82615426724,-2,0,5,-4,-5,1,-2,1
82615427563,10,20,-1,-8,-5,-2,-5,-12
82615427563,-7,-9,-2,-5,-3,-3,2,-2
82615449106,-8,-6,-1,3,-1,0,-4,-32
82615449106,42,7,0,1,1,-1,2,-16
82615449858,8,-1,-2,4,2,1,0,2
82615449858,-1,3,1,-3,-1,-1,-1,-26
82615463556,-1,-2,0,-4,-1,-2,2,44
82615463556,12,-20,-4,2,-2,-2,-2,0
82615464317,4,-38,-2,-6,-2,0,-1,-23
82615464317,9,12,4,1,0,2,5,13
82615486586,6,-8,-2,-6,-5,-6,-6,3
82615486586,-5,1,2,4,-1,-1,1,12
82615487367,0,-2,-1,3,3,-3,-1,-1
82615487367,-8,-7,-4,-7,-5,-3,-4,5
82615509260,0,10,0,3,0,1,0,-7
82615509260,8,-1,1,-5,-2,-2,0,29
82615509975,-19,2,-3,-1,-2,-2,-4,-21
82615509975,-4,4,1,2,-1,-2,-2,-1
82615523402,-8,1,-4,-1,-2,-2,-3,-20
82615523402,-2,6,1,1,0,0,0,-2
82615524163,-6,-7,-5,-5,-4,-3,-4,3
82615524163,2,-4,-1,1,-2,0,-1,-19
82615546612,2,-9,-3,-5,-1,-1,3,35
82615546612,-20,2,-1,2,0,1,-4,-1
82615547628,24,21,-2,-8,-2,-2,1,1
82615547628,-26,1,-3,-2,-2,0,-3,-6
82615569016,5,-20,1,1,1,1,0,1
82615569016,-13,-3,-1,-3,-1,-2,-1,-13
82615569639,-5,5,-2,1,-3,-2,0,11
82615569639,12,0,2,0,0,-1,-1,10
82615583551,-4,-1,-1,-3,-4,-3,0,-16
82615583551,-2,6,-2,0,2,1,-2,0
82615584194,1,-7,-3,1,-2,0,2,20
82615584194,11,3,2,1,0,0,-2,3
82615606754,-13,2,-3,2,-1,0,-2,9
82615606754,-2,-13,-4,-6,-2,-1,-2,-2
82615607420,-2,3,0,-7,1,0,0,-8
82615607420,-2,-7,-1,0,1,0,0,12
82615629093,4,5,-5,-2,0,0,-2,5
82615629093,-6,0,1,3,-1,-2,-1,2
82615629913,-22,-6,-2,6,0,0,-5,-32
82615629913,0,-9,-1,-3,-2,-2,0,1
82615643323,2,5,0,-1,-1,-1,-2,-11
82615643323,4,-7,-2,0,-2,0,-1,-1
82615644173,-10,-19,0,3,1,-1,-1,-3
82615644173,-19,-3,-4,-3,-2,-2,-1,1
82615666557,-3,0,-1,-3,-1,-1,0,13
82615666557,0,-2,-1,1,0,1,2,-20
82615667346,-25,4,0,0,-1,-2,0,17
82615667346,9,1,-1,-3,-2,-2,-3,11
82615689041,2,0,-1,2,0,-1,-1,-10
82615689041,-5,24,-2,-3,-3,-3,-2,1
82615689824,3,-6,0,-2,-3,0,1,-5
82615689824,8,6,1,4,1,-1,-1,-3
82615703524,-2,0,0,0,-1,-1,1,-2
82615703524,-1,-3,2,-3,-1,0,-1,17
82615704129,6,11,0,-4,-4,-3,-2,-6
82615704129,-3,-15,-2,-1,-1,0,0,0
82615726676,-3,3,-1,-1,0,0,0,-10
82615726676,-3,-4,0,0,1,0,-3,-17
82615727572,42,9,5,6,1,2,8,85
82615727572,-14,4,0,-4,-2,-4,-5,-13
82615749040,11,-6,-1,1,0,-2,-1,37
82615749040,1,-2,-3,-8,-2,-2,-1,-2
82615749836,-7,-4,-2,2,0,1,-4,-24
82615749836,2,3,1,3,1,-2,1,6
82615763428,1,-5,-4,-1,-1,-1,-1,-4
82615763428,1,-1,-5,4,-2,-2,-1,10
82615764250,-25,-18,-1,-5,-3,0,-2,-9
82615764250,-3,-1,-1,-1,-2,0,0,-7
82615786541,-14,12,0,-3,-2,-1,-2,-21
82615786541,18,-33,-1,0,0,-3,-2,3
82615787318,5,6,1,0,2,0,3,-3
82615787318,2,1,-2,-2,-2,-1,1,14
82615809292,-2,-6,-4,-6,-3,-1,-2,-9
82615809292,0,12,-1,0,-1,0,0,1
82615809929,15,1,0,3,0,-1,-2,-2
82615809929,-5,-8,-1,-4,2,-1,-4,-6
82615823396,-2,4,2,1,-1,-1,1,-11
82615823396,-5,6,1,-1,-1,-1,-2,8
82615824143,-3,-1,-5,-4,-2,-3,-4,-20
82615824143,2,10,-1,1,-1,1,-1,4
82615846796,0,-4,-2,2,-1,-1,-1,-12
82615846796,-19,6,-2,-3,-3,-2,1,-5
82615847452,8,1,-1,2,-2,-3,-5,-8
82615847452,17,-26,-1,0,0,-3,-2,-11
82615869157,-3,-25,-1,-2,0,1,0,3
82615869157,2,-7,-3,-2,-1,-1,-1,-1
82615869945,5,0,-1,-2,0,-3,0,3
82615869945,-7,3,-4,-4,-1,-1,-1,-11
82615882945,1,6,4,-1,-3,-3,-4,-31
82615882945,8,-2,-3,0,0,2,6,48
82615891157,-7,0,-3,-3,-1,-1,-2,-19
82615891157,5,9,1,4,0,1,1,8
82615906545,1,15,0,-6,0,-2,0,1
82615906545,0,-8,-3,-3,-3,-3,-6,-16
82615907354,-7,-3,-3,-1,0,0,0,-11
82615907354,-1,5,-1,1,1,-2,5,27
82615929065,5,5,1,0,-1,0,-3,-5
82615929065,-10,0,0,1,0,-2,-3,-19
82615929879,-3,1,2,-1,-1,-1,0,-2
82615929879,-15,-7,-4,-6,-5,-2,-4,-20
82615942835,-10,-1,-2,-1,-3,0,-1,12
82615942835,9,-20,0,0,-2,1,0,11
82615950969,7,-7,-2,0,1,-2,2,-10
82615950969,4,10,3,1,0,-1,-3,-2
82615974014,0,-2,-2,-2,1,-1,1,10
82615974014,-3,10,-1,1,-2,-2,0,-10
82615974840,1,16,-3,-7,-4,-1,0,3
82615974840,39,-5,1,-4,-1,-1,0,45
82615989217,2,12,6,8,5,4,4,10
82615989217,3,6,-3,2,1,-3,-3,-8
82615989956,-1,0,-1,-4,-1,-3,-2,-4
82615989956,-2,6,-2,1,-2,-2,-3,-21
82616002730,-4,-11,-4,1,-1,-2,0,1
82616002730,-4,16,0,-4,-2,-1,-1,6
82616011097,-12,-2,0,1,-1,0,-2,-10
82616011097,-8,-3,-3,-1,-1,0,1,37
82616026814,9,-1,2,-2,0,-2,-2,1
82616026814,-10,-5,-2,-1,1,-1,-1,-13
82616027415,-7,-8,-2,0,-1,0,-1,3
82616027415,-18,10,-1,3,-2,-2,-3,-3
82616049186,23,-3,-2,-1,-1,-1,3,0
82616049186,-25,-10,-2,-1,1,-2,-2,1
82616050000,0,0,0,-2,-1,-2,-2,-10
82616050000,-9,0,-2,1,1,1,-1,-4
82616062737,-17,-7,-5,-6,-3,-2,-2,-1
82616062737,3,0,-4,-3,-3,-2,-1,-6
82616071109,17,-5,-1,-2,-1,0,1,11
82616071109,-13,3,3,0,0,-2,-1,-25
82616086603,9,-1,-4,1,-3,-5,-3,1
82616086603,-6,-2,-3,-6,-2,-1,-3,-26
82616087395,-6,1,3,0,-2,0,-1,4
82616087395,-3,-8,-1,-3,-1,-2,-2,-7
82616109114,-5,3,-2,2,1,0,-2,2
82616109114,-1,3,3,2,0,1,-1,-8
82616109833,-15,19,-1,-4,-4,-4,-1,2
82616109833,-4,-6,-4,0,-2,-1,-1,-7
82616122955,-10,-3,2,-3,-1,0,-2,-28
82616122955,5,-3,-2,0,-1,-1,-1,14
82616131073,-15,0,-1,-2,-2,0,-2,-6
82616131073,-5,-8,-2,0,-2,-1,0,-9
82616146599,7,8,-3,-6,-1,-4,0,14
82616146599,4,-5,-2,-5,-2,-2,-2,3
82616147573,-1,13,3,4,0,1,-2,-22
82616147573,13,-13,-6,-4,0,-3,1,-2
82616169160,-17,-5,-1,2,-2,1,-2,-5
82616169160,14,13,1,0,-2,-1,-1,-3
82616170022,7,-13,-2,-4,-3,-2,1,6
82616170022,6,2,0,0,0,-1,-1,1
82616183156,0,-2,1,-1,-1,0,-1,3
82616183156,1,7,-1,0,-1,0,3,-1
82616191748,7,-7,-2,1,1,0,-1,0
82616191748,3,3,-1,-4,-1,0,1,6
82616206172,-8,-7,-3,-5,-3,-2,-3,-27
82616206172,19,5,4,1,-1,-1,0,16
82616212718,12,-3,2,2,-1,0,0,7
82616212718,-3,0,-1,-3,-4,0,-1,-5
