timestamp,emg1,emg2,emg3,emg4,emg5,emg6,emg7,emg8
82066406828,-1,-2,-1,1,-1,-2,-1,0
82066406828,0,11,-2,-4,0,0,0,1
82066413644,1,-11,-3,-3,-1,-2,-2,-3
82066413644,-1,1,0,-4,-1,0,-2,-1
82066429987,-1,0,-2,0,1,0,0,-1
82066429987,2,2,0,1,-1,-2,-2,0
82066431601,-2,3,-1,-1,-1,0,-2,-1
82066431601,-2,-2,-4,-7,-4,-1,-2,-1
82066452549,-1,-4,-2,-1,-1,-2,-2,-1
82066452549,-3,-6,-2,-1,-3,-1,-2,-2
82066454213,-2,-1,0,0,-3,-1,-1,-1
82066454213,0,-2,-1,1,-1,-1,-2,-1
82066466141,-2,-1,-1,-1,-1,0,0,0
82066466141,1,-3,-1,-1,-1,-1,0,-2
82066475195,-2,0,-1,-1,1,-2,-1,0
82066475195,-1,1,-2,2,-1,-1,-1,-1
82066497496,-2,-1,-2,-1,-2,-1,0,-2
82066497496,-1,-3,1,-2,1,-1,0,-1
82066499129,-1,-1,-1,-1,0,-1,0,0
82066499129,-1,-4,-1,-2,-1,-1,-3,0
82066519984,1,-2,2,0,-1,1,-2,-1
82066519984,-3,-4,-2,-3,-3,-2,-2,-2
82066521653,-1,-1,-1,0,-1,-1,-2,-1
82066521653,1,4,0,-7,-3,-2,-1,-2
82066526182,0,-2,-2,0,-1,0,-1,-1
82066526182,-2,-2,0,0,-1,0,-1,-1
82066535226,0,15,-1,-1,1,0,-1,0
82066535226,-2,-10,-3,2,-1,-1,-1,-4
82066550244,0,0,-2,-2,-1,0,-1,-1
82066550244,-1,-3,-2,1,-2,0,-2,-1
82066551780,1,4,-3,-1,-2,-1,-1,-1
82066551780,-2,0,-2,1,-1,-2,-1,-3
82066572603,-1,-3,-3,-3,0,-2,-2,-1
82066572603,-2,-3,-1,2,0,-2,-1,0
82066574229,-2,-7,-3,-6,-1,-1,1,0
82066574229,-2,1,-1,0,-2,0,0,0
82066586271,-1,-2,-1,-1,-1,-1,1,-2
82066586271,0,-2,-2,-2,-2,-1,-1,-1
82066595269,-2,-5,0,0,-2,-1,-3,-2
82066595269,-1,1,0,-1,0,-1,-3,-2
82066610114,-2,1,0,-2,-2,0,-2,1
82066610114,-1,0,-1,1,-2,-2,-1,-1
82066611694,-2,-4,0,-4,-1,-1,-1,-1
82066611694,-2,-1,0,1,-1,-2,0,-1
82066632519,1,1,-1,-3,-1,0,-2,-2
82066632519,-1,-2,-1,0,-1,-1,-2,-1
82066634158,2,-1,-2,2,-3,-1,-2,-1
82066634158,-2,1,-1,-6,-1,-1,-2,0
82066646204,-1,-3,0,-1,-1,-2,1,-2
82066646204,0,0,-2,2,-1,-1,-1,-1
82066655166,-2,-2,0,-1,0,0,-1,-1
82066655166,2,9,-1,3,1,-1,0,-1
82066670030,-2,-14,-6,-6,-3,-3,-2,0
82066670030,-1,-1,-2,-2,-1,-1,-2,0
82066671635,-2,-1,-1,0,-1,-1,0,-1
82066671635,1,2,-2,0,-2,-1,-3,0
82066692507,-3,1,0,-1,-2,-2,-1,-1
82066692507,-2,-1,-2,-3,-1,-2,-2,-2
82066694142,0,-6,-1,-1,-2,-2,-1,0
82066694142,-1,-5,-2,-3,-1,-1,0,-2
82066706152,-3,2,1,1,-1,-1,-2,0
82066706152,0,-1,-2,-2,-2,-1,-2,-1
82066715181,-1,0,0,0,-2,0,-2,-1
82066715181,0,-4,-2,2,-2,-2,-2,-1
82066729074,-1,1,-1,-1,-1,0,1,-2
82066729074,-1,0,-1,0,-1,0,0,-2
82066737703,-3,-3,0,-1,0,0,-1,0
82066737703,0,-1,-1,-3,1,-1,0,1
82066752970,-1,0,0,1,-2,-2,-1,-2
82066752970,-2,-3,-1,-7,-3,-2,-1,-1
82066754580,-1,-1,1,-1,-1,-1,0,-2
82066754580,-3,-4,-1,0,-2,-1,-1,-1
82066766194,2,17,1,0,-1,-1,0,0
82066766194,-1,-2,-1,-1,-1,0,0,-1
82066775201,2,-1,-1,-2,-1,-1,0,-2
82066775201,-1,-3,0,0,1,-1,1,-2
82066790045,0,0,-1,-2,0,-1,-2,0
82066790045,0,0,-1,0,-1,1,-1,-2
82066791712,-2,-3,-3,-2,-1,1,-1,-1
82066791712,-1,1,-1,-1,-2,-1,-2,-1
82066812790,0,-4,-1,-2,-1,-1,0,-1
82066812790,-2,-1,0,0,-1,0,-1,-1
82066814160,-2,-3,-2,-3,-2,-3,-2,1
82066814160,-2,-4,-2,1,-2,0,0,1
82066826215,1,-3,0,2,-2,0,-1,0
82066826215,-1,-2,-3,-4,-1,-1,1,-1
82066835176,-2,-1,-1,-1,-2,-2,-1,-2
82066835176,1,-2,0,-3,0,0,-1,0
82066850011,-2,-4,-1,-1,-2,-1,-3,0
82066850011,-1,1,-1,3,0,-1,-1,-1
82066851621,-1,-1,-1,-5,-1,1,-1,-1
82066851621,-1,-2,-1,-2,-3,-2,-1,-3
82066872542,-1,-4,-1,-2,1,0,0,-2
82066872542,0,9,1,-4,1,-1,-2,-2
82066874160,-2,-11,-2,1,-1,-1,1,0
82066874160,-1,-2,1,2,0,-1,-1,1
82066886197,-1,1,-2,-8,0,1,-2,-1
82066886197,-1,1,-2,0,-2,-1,-1,-2
82066895158,-1,2,-1,-1,-2,-2,-2,-1
82066895158,0,2,2,0,0,0,-2,-2
82066909976,-3,-6,-2,1,0,-2,-1,-1
82066909976,0,-6,0,0,-1,-1,0,2
82066911609,-1,2,-1,-1,0,-1,-2,-2
82066911609,-2,-3,-1,-1,0,0,-1,0
82066932523,-1,0,1,-2,2,-2,-2,-1
82066932523,-3,-6,-4,-4,-3,-1,0,-1
82066934138,0,1,1,10,1,-1,-1,-1
82066934138,-3,2,-2,-5,-3,-1,-1,0
82066954965,-2,-1,-2,-3,-1,0,-1,0
82066954965,-3,-2,-2,-2,0,-2,-2,-3
82066956600,0,-2,-2,-7,-4,-2,-2,0
82066956600,-2,0,-2,7,-2,-1,0,-1
82066969989,-2,-25,-3,5,-1,-1,-1,-1
82066969989,-1,-5,-1,-2,-2,-1,-1,0
82066971605,-1,3,-2,3,1,0,0,0
82066971605,-1,-1,0,4,0,-2,0,-2
82066992532,-1,4,-3,-16,-3,-2,-1,0
82066992532,0,0,-2,2,-3,-2,-1,-1
82066994152,-2,-4,0,-6,2,0,-1,-2
82066994152,1,-1,-2,-5,-5,-2,-2,1
82067014975,0,4,0,5,1,-2,0,-2
82067014975,0,-3,-2,-7,-1,-1,-1,0
82067016614,0,2,0,4,-1,0,-2,0
82067016614,-1,-2,-3,-7,1,-3,-2,-2
82067030342,-4,3,0,3,-5,-2,-3,-1
82067030342,0,0,2,7,2,-1,-1,0
82067032073,0,0,-2,-10,-2,0,1,1
82067032073,-2,-1,0,1,4,-1,-1,0
82067052553,-1,-1,-5,-2,-5,-3,-2,-1
82067052553,-1,0,-1,-4,-2,-1,0,0
82067054142,-3,-2,0,-6,3,-4,0,-2
82067054142,3,0,-2,-2,-2,1,1,1
82067074997,-1,3,1,0,-1,-1,0,-2
82067074997,-2,-1,1,18,6,1,0,0
82067076640,-3,-2,-4,-8,-13,-2,-2,-1
82067076640,-4,3,-2,2,-2,-5,-2,-2
82067089388,-1,3,0,-10,0,-2,-2,-1
82067089388,-1,-2,-2,-2,-4,1,1,-2
82067096170,0,-4,-1,-1,4,-2,-4,-1
82067096170,-3,-2,-1,-3,2,-4,-2,-2
82067112527,-2,-1,-3,2,-2,5,2,-1
82067112527,-3,-1,1,6,1,-6,-4,-2
82067114133,3,6,0,14,2,0,3,3
82067114133,1,-3,1,0,2,2,2,0
82067135021,-3,-4,-1,4,-2,1,-4,-4
82067135021,1,1,-1,-15,-8,-2,-6,-2
82067136633,-2,-4,-2,-1,1,0,-1,-3
82067136633,-1,-1,-1,-1,-6,-12,-6,-2
82067148738,-2,-3,1,9,14,1,3,-1
82067148738,-2,-3,-5,-6,-13,0,-2,0
82067157702,-4,-1,1,-6,-14,-2,-2,-3
82067157702,0,-2,-2,-15,-1,-1,0,0
82067172571,2,4,-2,-14,-2,1,-1,5
82067172571,-6,-19,-4,48,23,18,2,-8
82067174053,0,0,-3,-49,-12,-23,-6,4
82067174053,-1,0,0,-16,-7,-3,-3,-3
82067195026,0,-6,1,18,-3,-3,2,-2
82067195026,-7,5,3,16,-8,-3,-9,-59
82067196672,7,-5,-6,20,1,-3,5,42
82067196672,-3,-4,1,2,-2,0,-10,-4
82067208966,0,4,-1,-7,3,-6,1,-1
82067208966,-1,-1,0,-20,8,12,8,6
82067217770,-2,4,7,44,25,22,-5,-17
82067217770,-2,-4,-9,-16,-10,-21,1,3
82067232524,0,-1,-6,-78,-16,6,-8,-1
82067232524,1,1,-1,-23,-21,-23,-6,13
82067234131,8,-25,-7,-12,-14,-7,-1,-13
82067234131,0,1,4,48,16,-4,1,3
82067255101,-5,-2,-4,13,-11,-4,-14,-8
82067255101,3,0,1,-28,3,2,4,9
82067256764,1,9,4,18,5,0,9,-4
82067256764,6,13,-3,-42,-2,44,8,-2
82067268720,0,-2,4,32,13,-20,-1,14
82067268720,2,3,-5,-6,-7,-5,-4,7
82067277739,-6,-1,0,-7,13,15,2,-10
82067277739,0,-2,1,1,3,-9,3,3
82067292721,-2,18,0,-9,-23,-12,-12,-7
82067292721,-2,-9,-6,-30,6,-28,-6,11
82067294173,-1,9,7,12,15,39,7,-5
82067294173,-6,-7,-5,47,-6,-40,-10,-5
82067315134,6,1,2,-2,-8,-8,-6,17
82067315134,-3,0,-2,15,10,-5,1,-4
82067316856,-5,-4,-10,-42,-30,-24,11,2
82067316856,-4,-4,0,14,23,97,3,-14
82067328819,1,-5,-2,15,6,-8,-16,-7
82067328819,-6,0,-4,-7,-31,-2,18,6
82067337766,3,1,4,37,26,-36,-25,7
82067337766,-8,-3,-1,-14,4,-22,1,-41
82067352645,14,-5,0,24,11,7,17,72
82067352645,2,3,4,29,-18,8,-8,-14
82067354156,-3,4,-7,-66,-17,42,41,-4
82067354156,-4,-21,-1,20,-5,-12,-16,-5
82067375117,-27,-3,0,6,27,20,-45,-31
82067375117,2,3,-1,-5,-10,-42,-8,0
82067376669,0,2,2,26,19,-22,-12,10
82067376669,-2,2,0,0,-25,-14,22,-3
82067388974,-3,-7,-5,-6,-4,46,13,-29
82067388974,4,-1,3,32,23,-7,12,27
82067397766,-4,4,5,13,-6,-19,-7,-5
82067397766,4,0,-8,-40,-10,10,5,14
82067412554,3,1,3,-7,-7,-20,-5,-14
82067412554,-4,-3,-4,-20,-19,48,-3,-7
82067414141,-1,-7,-8,13,-11,-21,-17,-12
82067414141,-3,0,-1,-19,-14,32,16,11
82067435151,8,10,1,15,22,-46,27,37
82067435151,2,5,6,3,2,5,-30,-20
82067436684,-2,0,1,12,18,-3,6,-1
82067436684,3,2,10,-14,-13,-23,-54,8
82067448766,-8,-6,-12,-16,1,40,57,-33
82067448766,-2,-4,-5,-11,-6,26,14,10
82067457758,-5,-3,-5,18,-15,-30,-24,-7
82067457758,2,5,-2,-20,-9,-1,13,2
82067472727,-3,-7,6,52,29,-8,-24,-20
82067472727,5,2,5,-14,-23,-6,-4,18
82067474162,0,1,-3,-53,12,39,7,-2
82067474162,-3,-1,-2,60,10,-22,-7,-8
82067495277,0,-6,-4,-10,-9,-4,-3,4
82067495277,-2,-9,-9,-32,-4,4,8,-4
82067496834,0,2,5,-5,-6,-13,-3,-1
82067496834,0,13,8,3,14,-17,-6,-6
82067509005,-1,-8,-2,-16,-20,-8,-1,8
82067509005,1,5,7,27,16,14,-4,1
82067517769,-2,-3,-2,-33,-7,17,2,-5
82067517769,2,1,2,-10,8,2,11,8
82067533289,-2,-3,1,17,-15,-9,-10,-7
82067533289,-5,-2,-2,2,13,-6,5,-10
82067538727,0,-2,2,7,13,1,-6,1
82067538727,-2,-8,-7,-32,-15,6,3,16
82067555144,-1,0,2,-3,-17,-6,-1,-8
82067555144,1,-4,-5,35,15,-12,-7,-4
82067556681,-1,0,-4,-15,-15,-5,-1,4
82067556681,-2,-5,-4,32,13,-3,5,-5
82067568986,2,4,1,-37,-8,6,-3,-3
82067568986,-1,3,3,13,11,-26,-5,1
82067577761,-8,-12,-6,32,-17,15,-6,-7
82067577761,3,-3,0,-2,-20,-4,1,9
82067592555,3,1,0,-5,6,11,9,3
82067592555,-3,-5,-3,8,-2,3,-1,-1
82067594142,-2,4,-7,-39,-23,-1,-3,-7
82067594142,-5,-4,2,29,6,-21,-10,-13
82067615222,2,-3,-3,17,5,4,3,13
82067615222,2,5,-3,-57,-8,-2,-1,0
82067616684,0,-2,3,41,6,2,3,-8
82067616684,-2,0,-7,-41,-5,-10,-7,-15
82067628960,2,-1,0,4,-8,2,5,2
82067628960,0,8,0,-9,9,0,-3,-1
82067637820,-13,-2,-1,-4,5,-7,-2,0
82067637820,1,1,6,33,5,5,2,0
82067652705,-4,-3,-9,-26,-21,-11,-4,-10
82067652705,1,-2,0,-9,5,8,1,16
82067654130,2,0,-7,-38,-7,-2,2,2
82067654130,-4,-3,-9,-25,3,-2,-4,0
82067674187,-4,-2,1,33,3,-3,-2,-5
82067674187,1,-5,0,56,8,-2,3,-6
82067682754,1,0,-7,13,-9,-6,-3,-11
82067682754,3,1,9,-18,-3,7,1,17
82067688917,1,1,-3,25,3,-2,-3,-2
82067688917,-5,-24,-8,-36,-7,0,3,-2
82067697804,1,-3,4,73,5,-3,-3,0
82067697804,-5,1,-9,-40,24,4,0,-6
82067711863,-2,-4,2,29,3,-7,-4,-9
82067711863,1,8,6,-13,-16,-2,-5,-1
82067718702,3,-7,-17,16,-9,-3,0,6
82067718702,-15,-5,-1,-10,-22,-4,4,-1
82067734985,-4,2,5,-7,5,-2,-3,-1
82067734985,0,-2,-6,-6,15,-2,0,-5
82067736606,5,1,10,10,-16,2,-3,1
82067736606,-1,8,-14,-51,-12,-7,-3,-11
82067748711,9,2,-3,-10,11,4,2,1
82067748711,-4,11,5,15,-7,-6,0,-5
82067757652,-3,1,-4,-43,8,4,1,-2
82067757652,1,-7,4,25,-14,3,-1,-2
82067771803,-2,-3,0,5,-3,4,0,3
82067771803,0,-2,-7,-23,1,-1,0,-3
82067778867,3,2,6,23,21,2,4,7
82067778867,4,-4,0,-10,0,-4,-2,-5
82067796500,-5,-1,-4,-8,-21,-7,-4,-6
82067796500,1,-2,-3,9,11,-1,0,0
82067799491,-2,-2,9,27,3,-1,-3,-3
82067799491,0,-1,-4,14,6,0,-2,2
82067810012,-3,-3,0,-17,-10,-3,0,-1
82067810012,-1,0,0,-46,2,0,0,-2
82067825170,-2,-2,-4,-14,-12,-3,-1,1
82067825170,3,0,-3,14,7,-1,-1,2
82067831877,-2,-1,2,-19,2,1,0,-1
82067831877,-3,-4,-2,27,-8,-2,1,2
82067838687,1,0,5,5,4,2,0,0
82067838687,0,0,5,12,17,2,1,-1
82067855011,-2,-19,-3,-11,-3,2,0,7
82067855011,-1,1,0,15,5,2,2,-1
82067856591,1,-2,0,-23,-12,-10,-5,0
82067856591,-1,1,7,1,0,1,1,0
82067877591,-2,4,-5,20,3,-4,-3,-5
82067877591,-2,-3,5,30,-14,1,-2,-3
82067880542,-1,-2,-1,2,5,1,1,1
82067880542,-2,-4,-12,-76,4,-4,-6,0
82067893199,1,6,11,-17,-1,-3,1,-1
82067893199,-3,0,-9,26,-5,-6,-5,0
82067898692,-3,2,0,7,6,2,-2,-7
82067898692,-1,-3,2,18,-15,-2,2,4
82067915004,3,-3,-12,-1,2,-1,-1,-3
82067915004,13,-7,1,-23,4,-4,-4,-1
82067916609,0,9,1,-2,-6,-5,-4,-5
82067916609,0,-1,6,38,-2,3,1,1
82067937577,-5,-6,-10,-9,16,14,5,-10
82067937577,-6,-2,0,-19,-11,-5,-1,4
82067939117,0,5,5,-21,11,1,-4,-6
82067939117,4,4,-7,26,-13,-21,-8,-3
82067951926,-4,4,2,13,-2,0,-9,-14
82067951926,-7,-9,-2,-7,10,10,15,7
82067958699,4,-3,-11,-33,-9,-7,-4,-5
82067958699,-28,-11,-17,-33,-1,1,-2,-14
82067975322,-14,2,16,13,-10,-16,-12,-22
82067975322,28,26,-17,-16,4,5,3,3
82067976703,-27,-32,1,-10,-3,10,10,-33
82067976703,43,18,0,7,-4,-6,-6,-16
82067997656,3,23,7,-16,-3,-2,5,-11
82067997656,12,-28,28,82,32,18,15,41
82067999249,-23,-9,-4,-23,-27,-17,-12,5
82067999249,48,15,26,0,0,3,1,-15
82068011168,26,2,1,34,15,4,7,25
82068011168,5,-8,-19,-32,-23,-11,-27,-32
82068020149,-42,-22,23,41,13,6,17,15
82068020149,-15,-27,-69,-10,2,3,11,11
82068034995,11,11,30,-2,-3,-7,-20,-58
82068034995,-28,11,-35,-22,-12,-10,21,50
82068037552,71,-4,12,76,25,6,-10,-21
82068037552,-49,18,-6,-71,-39,-9,-11,-6
82068057623,-27,-15,20,28,8,-1,-1,-45
82068057623,-24,-6,-7,-22,-15,-6,-7,34
82068060114,-5,22,-11,54,2,-10,-7,-15
82068060114,0,-16,31,78,38,28,32,24
82068071150,9,-5,-35,-57,-29,-5,-9,43
82068071150,-7,8,44,91,57,-3,-5,-39
82068081130,10,-3,-46,-45,-38,1,9,13
82068081130,21,7,17,5,10,17,10,12
82068095021,-18,-13,-23,-15,-7,18,-1,17
82068095021,8,12,7,-9,-4,-47,-27,-29
82068096676,10,10,-7,-44,-8,2,-4,15
82068096676,-14,-5,-2,22,21,-10,2,-13
82068117493,-6,-4,-2,-24,-17,19,24,16
82068117493,20,7,-2,53,6,38,-16,-5
82068119131,-2,8,10,-45,-5,16,-1,-8
82068119131,-13,-7,13,36,14,-2,-7,0
82068131427,6,0,-22,-67,-15,-23,2,10
82068131427,-15,-16,-5,-20,-41,-22,3,-10
82068140144,-12,-4,-4,-2,-1,-18,-8,-8
82068140144,-5,0,-3,-20,-15,-6,-6,4
82068155031,-1,-10,-3,72,20,-10,-1,11
82068155031,-4,-1,-4,-84,-9,8,3,-25
82068156607,-3,-2,5,-14,6,1,0,8
82068156607,6,0,-2,6,1,0,-3,3
82068179065,-6,14,8,-6,18,4,-1,-1
82068179065,1,-3,4,8,-19,1,2,-7
82068180692,4,2,-1,34,15,4,4,5
82068180692,-4,-3,4,10,-5,-1,-5,2
82068191258,-6,-3,-6,-14,-6,-3,-5,-5
82068191258,-8,-3,-4,-7,-8,2,1,-5
82068200232,-2,-8,-9,36,20,-1,0,7
82068200232,-1,1,6,-16,-6,-2,-6,-9
82068215021,3,-3,-2,-7,4,3,3,5
82068215021,17,4,2,-2,-2,0,3,0
82068216614,2,4,5,-32,-10,-4,-1,1
82068216614,-9,-6,-6,6,2,-4,-6,-2
82068237633,2,0,-1,26,-2,-1,1,2
82068237633,-9,-6,0,1,10,1,-2,-4
82068239151,-2,1,-3,-17,-11,-4,-3,-2
82068239151,-4,-6,-2,16,-1,-1,-1,-1
82068252571,-2,-5,-3,4,-1,-5,-2,0
82068252571,1,-1,-5,-27,-4,-2,-2,-8
82068260291,-3,0,2,-5,10,1,0,0
82068260291,4,2,-4,-4,-20,-4,-5,0
82068275050,-12,-7,2,9,5,0,-2,-4
82068275050,-6,-3,-3,0,4,1,1,-2
82068276621,-9,-9,0,-21,-10,1,0,2
82068276621,-2,-4,-5,43,24,-2,-5,-2
82068297793,-3,-3,-4,6,-12,-3,-3,-2
82068297793,-19,-20,-2,-12,-2,-1,1,-2
82068299168,1,5,1,-5,-3,0,1,2
82068299168,5,0,2,11,0,0,-2,-4
82068311167,0,-3,2,3,3,0,-1,0
82068311167,0,2,-6,-24,-6,-2,-1,-2
82068320180,6,3,2,9,2,-3,0,0
82068320180,-3,-3,-3,-20,-5,0,1,-3
82068335126,7,4,-5,1,0,-2,-2,2
82068335126,-2,2,2,10,-3,2,1,1
82068336729,1,1,1,-6,3,-1,-2,-2
82068336729,-3,-1,-4,-9,-11,-3,-2,-3
82068357628,-4,-3,-1,-7,4,-1,-2,0
82068357628,2,2,-3,7,3,-1,0,-2
82068359217,1,3,0,-3,-4,-3,0,-1
82068359217,9,-16,-2,-2,1,-2,-3,-1
82068371280,9,6,4,0,-18,3,2,4
82068371280,1,0,0,-10,-1,-2,-2,0
82068380202,1,3,-6,12,1,-2,-3,-2
82068380202,7,11,2,-12,-6,-1,-1,-1
82068394990,-7,-4,-1,-32,-4,-1,0,-2
82068394990,-2,-3,-4,39,19,-1,-3,-2
82068396608,2,-2,-4,-24,-13,-6,0,0
82068396608,-9,-3,0,-2,6,3,0,-1
82068417742,5,2,2,23,-3,-2,-2,-1
82068417742,3,5,-5,-43,-14,-3,0,-2
82068419179,-15,-16,0,0,6,2,-1,-3
82068419179,0,9,4,19,0,-4,-2,2
82068431342,4,1,0,-6,2,0,0,-2
82068431342,-3,-4,1,1,-1,-1,2,-1
82068440184,0,1,0,18,1,0,-1,1
82068440184,12,-1,-1,-19,-7,-5,-2,2
82068455019,1,3,0,-3,1,1,3,-1
82068455019,12,5,2,12,1,-7,-5,0
82068456550,-3,-3,-5,-2,-2,-5,0,-1
82068456550,-6,-1,-3,-3,-6,3,1,1
82068477776,-7,-15,-2,-4,7,-9,-9,-2
82068477776,-3,-3,0,-2,-5,8,4,-3
82068479223,-3,-2,-2,17,15,11,4,-1
82068479223,-4,-2,-2,-1,-6,-1,2,-1
82068491171,-3,-2,-3,18,9,-1,1,-3
82068491171,1,13,1,-22,-14,-7,-5,0
82068500225,-1,-8,-1,-3,-1,-5,-5,-1
82068500225,-3,-1,-5,-14,-4,-6,-2,-3
82068515026,-4,-1,-3,-10,5,-1,0,-2
82068515026,-2,-1,-1,22,3,8,4,1
82068516655,3,5,2,-14,-10,-3,-3,-1
82068516655,-7,-5,0,28,2,14,1,-1
82068537637,5,2,-2,-15,-11,-48,-5,-1
82068537637,1,-2,0,10,9,10,-13,1
82068539119,1,-1,-2,-11,-3,5,5,1
82068539119,-1,-1,0,-14,-4,10,6,-2
82068551426,-29,-2,-3,-2,-9,5,-3,-6
82068551426,-4,-5,-1,14,1,-10,0,-1
82068560195,-1,0,-1,-6,-2,2,-2,-1
82068560195,-2,4,-3,-5,-4,-4,-4,-1
82068574369,1,-16,-4,-4,0,3,-3,0
82068574369,-2,-5,-3,3,-2,-7,2,-2
82068581237,-5,3,0,0,2,3,-5,-3
82068581237,-6,-6,-2,-8,-8,-10,0,-3
82068597614,6,5,-1,7,3,10,5,1
82068597614,-5,-2,-5,-17,-3,-6,-4,-1
82068599211,4,-5,0,41,13,1,1,-1
82068599211,0,1,-1,-11,-3,-8,-4,-2
82068611298,0,0,-1,1,0,8,0,-1
82068611298,-2,-2,1,-25,-6,-3,4,-2
82068620205,2,2,-6,-10,0,-3,-10,-3
82068620205,0,0,4,5,3,-1,1,1
82068634384,2,2,-2,-17,-6,2,0,-2
82068634384,-4,-4,-3,8,-5,-5,-1,-4
82068641163,-2,-1,0,-5,-5,-9,-3,-4
82068641163,-2,-1,-1,-2,4,2,-3,2
82068657637,3,2,1,-2,1,5,5,5
82068657637,1,2,1,5,-2,-5,-2,-2
82068659209,-2,-2,-3,-14,-5,9,4,1
82068659209,-3,-1,-1,-4,1,1,-5,0
82068671154,1,10,0,15,4,-7,-3,-2
82068671154,16,0,-3,2,-5,-1,-2,-2
82068680223,8,18,4,-4,-5,-2,-1,2
82068680223,-2,-7,-1,-4,-2,-23,-3,-1
82068694601,2,2,-2,1,2,14,-1,1
82068694601,-2,-3,-3,4,8,2,1,-2
82068701252,-1,-3,-4,1,-23,-10,-4,-3
82068701252,4,7,3,1,16,11,3,1
82068717535,0,-4,-2,6,-8,-12,-4,0
82068717535,-7,-4,-2,10,3,7,2,-2
82068719157,-4,-3,-1,-8,9,5,4,2
82068719157,-4,-3,-4,-40,-16,-4,-5,-4
82068731230,-3,-6,0,-6,-3,-2,-1,-3
82068731230,-1,0,1,5,-4,-1,-1,1
82068740170,-2,-3,-4,18,7,-3,4,-1
82068740170,0,-2,0,17,0,-2,-3,-1
82068754328,2,2,4,-8,4,9,-3,-1
82068754328,-9,-21,-4,-5,-5,-1,0,-1
82068761153,-3,-5,1,-11,-8,-8,-2,-3
82068761153,-6,-3,-3,4,1,5,-1,-2
82068777486,15,4,-1,-4,3,-2,-2,1
82068777486,9,2,-1,-3,-1,-2,1,0
82068779085,2,2,2,7,-3,0,-1,0
82068779085,-3,-6,-4,-7,-3,-3,1,-3
82068791184,-9,-3,-3,3,0,0,0,-4
82068791184,-1,0,-3,-9,-9,-1,-2,-1
82068800238,1,3,-1,0,3,-4,-3,1
82068800238,-6,-14,-2,3,-2,-1,-2,-3
82068814660,0,-1,1,16,5,4,1,0
82068814660,-4,5,-5,-70,-12,-1,1,-1
82068821208,-6,-5,-3,2,-5,-8,-2,-1
82068821208,-1,4,2,14,2,2,-1,-1
82068837583,-5,-2,-2,-8,-2,1,0,-1
82068837583,-7,-24,0,25,6,2,1,0
82068839216,-1,1,0,-6,-3,3,-2,0
82068839216,3,2,-2,-9,-2,-5,-1,-2
82068860016,-2,-2,-2,-10,-5,-4,-1,-1
82068860016,2,14,1,-4,-2,1,-2,-1
82068861684,-2,-7,-4,3,3,-4,-2,-6
82068861684,1,-1,-2,8,-2,-1,1,-1
82068874427,10,-7,-5,7,-3,-3,-1,1
82068874427,15,18,5,3,0,2,0,2
82068881223,0,0,0,3,0,-1,0,-1
82068881223,-1,1,0,1,-4,0,-3,-1
82068897541,-6,-2,1,-8,-5,-2,-4,1
82068897541,-5,4,6,10,4,-3,-5,3
82068899165,-14,-5,8,4,1,-3,-5,2
82068899165,-4,-9,5,-4,3,-1,-4,1
82068920011,-24,-3,1,-10,-1,-3,-2,-3
82068920011,-13,-7,-2,22,6,0,2,-4
82068921594,-3,4,-4,-10,3,1,3,-2
82068921594,-4,0,-8,-3,-1,-1,2,0
82068933720,-2,-4,-7,-2,0,0,2,6
82068933720,0,-7,-5,5,1,0,2,8
82068948728,-1,-17,-3,-5,-5,2,0,3
82068948728,-2,2,-7,-2,-5,-1,1,3
82068957486,10,-6,-3,9,-1,-2,2,6
82068957486,5,-1,-4,-8,-3,0,-1,2
82068959127,5,-1,-6,-4,-5,-2,0,-16
82068959127,0,7,-2,-2,-2,-2,1,-21
82068980207,-1,6,2,-5,-3,-1,0,-20
82068980207,-7,3,-3,8,-4,-2,-3,-23
82068981800,-1,3,-1,-7,-3,-1,3,-7
82068981800,-1,1,1,11,-2,0,-3,-11
82068993887,1,4,0,-19,-3,-1,-4,-13
82068993887,-30,-36,-7,-7,-4,-7,-9,-8
82069003582,1,4,1,6,0,-1,-6,12
82069003582,1,1,2,-1,1,0,-3,20
82069017584,25,13,1,-1,-1,-2,-5,19
82069017584,2,13,4,-11,0,-2,-2,13
82069020053,0,1,0,-3,1,-1,-2,7
82069020053,-5,-5,1,-3,1,-3,-4,5
82069040027,-5,-3,-1,4,0,-2,-1,1
82069040027,-3,2,1,6,1,-1,-1,-4
82069041640,-1,-1,-5,-6,-1,-1,2,-4
82069041640,0,7,1,2,0,-2,2,-1
82069053721,-4,0,2,14,3,-1,2,-8
82069053721,3,15,-1,-17,-6,1,2,-4
82069062662,-4,-48,-3,3,-1,-1,1,-1
82069062662,-7,-6,-5,-4,0,0,2,-4
82069077514,8,4,-1,-3,2,1,3,-2
82069077514,0,4,-2,8,-3,-2,-1,-3
82069079130,1,12,1,-1,-2,0,-2,-3
82069079130,1,-3,-3,-2,-2,-1,1,-4
82069100266,-20,-37,-8,-5,-3,-2,-3,-3
82069100266,6,3,-1,-19,-1,2,1,0
82069101750,1,7,-1,36,0,-3,-2,-1
82069101750,-4,-7,-2,7,-1,-2,1,1
82069113805,11,17,0,-1,-1,0,-1,-1
82069113805,-3,-3,1,-8,-2,-1,-3,-2
82069122775,-2,5,1,1,3,1,-1,0
82069122775,2,-20,-7,-21,-11,-1,-1,-1
82069137569,-7,2,-1,-1,-2,0,-2,-1
82069137569,3,1,-2,10,0,-2,1,-1
82069139141,0,0,0,-4,0,0,-1,-1
82069139141,7,10,1,9,0,-1,-1,0
82069160030,14,7,1,-6,-3,-2,-1,1
82069160030,-3,-8,-1,10,3,0,1,0
82069161680,-1,7,-3,-4,-4,-1,0,-1
82069161680,-1,3,1,-7,-1,-1,-1,0
82069173827,-10,-4,-1,1,-5,-2,-1,-3
82069173827,1,5,0,8,2,0,-1,-2
82069182795,1,1,0,-13,-2,-2,-2,-1
82069182795,-1,2,-2,0,-1,-1,2,0
82069197763,-4,-4,0,0,0,-2,-1,-1
82069197763,-2,-2,-1,5,-1,0,-1,-1
82069199151,-2,2,-1,-7,-2,-2,-2,-1
82069199151,-3,0,0,2,0,0,-1,-3
82069220059,-7,0,2,3,-4,-3,-2,-3
82069220059,1,10,-1,-2,0,1,0,0
82069221753,-29,-33,-2,-2,0,0,-1,-2
82069221753,-1,2,1,4,0,-1,-2,0
82069233722,0,3,4,-6,0,0,1,2
82069233722,-3,-2,-1,3,1,-1,-1,1
82069242731,-1,3,1,5,-2,1,-1,-2
82069242731,25,20,8,7,2,3,2,2
82069257554,-10,5,-1,0,-4,-1,0,-1
82069257554,-6,-23,-2,-9,-1,-1,1,-1
82069259130,9,-7,-1,-5,1,-1,1,4
82069259130,-1,15,-2,-8,-2,-2,-2,-2
82069280131,4,-5,0,24,3,-2,1,-1
82069280131,-24,9,-5,-8,-5,-3,-2,-2
82069281685,7,40,1,-6,0,-2,-2,-4
82069281685,-9,-22,-5,-4,-3,-3,-2,-1
82069293877,17,-1,-1,-3,2,2,0,0
82069293877,6,-16,-4,5,-3,-3,-3,-5
82069302792,-3,-2,-5,-7,-4,2,-1,-2
82069302792,-1,4,-2,0,-2,-1,-3,-3
82069317542,-5,5,-6,-8,-2,-2,-5,-3
82069317542,3,0,2,5,1,0,0,5
82069319132,2,5,-3,-7,-3,-1,-2,-1
82069319132,4,-8,-2,-1,-2,-1,0,0
82069339984,-12,-13,-2,0,-2,-1,0,-4
82069339984,19,6,-3,-5,1,0,1,4
82069341660,-1,-15,-3,-3,-4,0,-1,-8
82069341660,-8,-6,1,2,-2,0,-1,13
82069353721,-6,-1,1,-5,-1,-2,-3,-1
82069353721,2,5,8,8,3,0,-5,-3
82069362749,-33,-9,-8,-4,1,-1,-1,1
82069362749,6,5,2,3,2,-1,-1,-2
82069377811,-7,14,3,-6,-2,-1,-2,0
82069377811,-2,3,2,1,0,-2,1,1
82069379193,-14,-5,0,1,-1,-2,-2,-1
82069379193,4,-1,-2,-2,-1,-1,-3,-6
82069400257,-2,-14,-4,-1,1,1,2,-2
82069400257,7,19,0,-3,-2,-3,-1,4
82069401729,24,1,3,2,1,0,1,3
82069401729,-2,3,-6,-4,-1,-2,-1,-6
82069413943,0,4,-2,-3,-2,0,-1,-1
82069413943,-1,-4,-3,-4,0,0,1,-3
82069422792,9,7,0,-2,-1,-3,-2,0
82069422792,-9,-8,-1,-1,-2,0,-2,1
82069437722,-2,-6,-3,-2,-2,-3,-2,-2
82069437722,-12,-9,-5,-4,-4,0,-2,-7
82069439198,2,9,4,1,-1,0,-1,3
82069439198,-3,-17,-3,-1,-2,-2,-2,-5
82069460044,0,-1,-3,-2,0,1,1,2
82069460044,0,-2,1,0,-1,1,-1,-1
82069461665,4,3,-2,-1,0,0,0,-2
82069461665,-16,-2,-2,-2,0,-1,-3,-1
82069473956,16,-3,-2,-2,-2,-1,0,1
82069473956,2,-5,1,2,1,1,1,-1
82069482782,1,-5,-6,-4,-4,-3,-2,-2
82069482782,-9,-5,-1,0,0,-1,0,-4
82069497537,-18,-8,-3,1,-1,-3,-3,-6
82069497537,7,-8,-6,-4,-2,-1,1,1
82069499094,2,4,1,0,-1,-2,-1,-2
82069499094,-16,1,-1,-3,-2,-3,-2,4
82069520074,-3,0,2,0,0,0,-1,-2
82069520074,-2,19,1,0,0,-2,-2,-2
82069521771,2,-14,0,1,-1,0,-1,1
82069521771,5,-6,-1,0,1,-1,0,-4
82069533663,1,5,-3,-4,-2,-2,-2,0
82069533663,-8,-1,0,-2,-2,-2,-3,-2
82069542812,5,1,-3,-3,-1,0,-1,-1
82069542812,3,9,0,2,0,-2,1,-3
82069556867,2,-5,0,-2,1,-1,0,1
82069556867,-1,-7,-1,0,-1,-1,-2,-2
82069563775,-2,0,-2,2,0,1,0,0
82069563775,1,0,-2,-2,-1,0,-1,-1
82069580111,-5,2,-2,-3,-1,-1,0,2
82069580111,-3,-7,-1,-3,-3,-2,-2,-2
82069581659,-2,2,1,-1,-2,-1,-1,-1
82069581659,-1,2,-1,-3,-1,-1,0,-1
82069593973,3,-3,-2,0,0,0,-1,0
82069593973,-3,-2,-1,-2,-1,-1,0,-1
82069602711,-2,3,-2,-2,-2,-1,-1,0
82069602711,8,-25,0,-1,-2,-3,0,-3
82069617701,3,6,-5,-3,0,-1,-1,-1
82069617701,5,20,4,3,3,0,0,3
82069619173,-4,1,-4,-5,-3,-1,-2,-2
82069619173,-2,2,-2,-1,-1,0,0,-2
82069640171,5,5,0,2,-2,1,-2,0
82069640171,-3,-6,-7,-4,-3,-3,-2,-3
82069641671,-1,-1,1,2,0,-1,-1,-2
82069641671,2,9,2,1,-1,-1,0,0
82069653804,-10,-12,-1,-1,-2,-2,-2,-1
82069653804,-2,-3,-2,-2,-5,0,-1,1
82069662777,17,31,2,1,-1,-2,-3,-2
82069662777,-4,-6,-3,-3,0,0,-3,-2
82069677569,4,5,-1,-1,-1,-1,0,1
82069677569,-4,-8,1,0,-1,0,-1,-2
82069679138,-11,-3,-4,-4,0,-2,-1,-1
82069679138,2,9,4,-2,-1,0,-1,0
82069700257,-3,-3,0,-2,-2,-1,-2,-3
82069700257,-3,-1,0,-3,-2,-2,-1,-1
82069701730,-9,-14,-1,-1,-2,-3,-2,0
82069701730,-1,3,-2,0,0,-2,0,-1
82069713639,-6,-11,-1,3,1,-1,-3,-2
82069713639,1,-6,-4,0,0,-1,-3,-2
82069722750,1,-4,1,-1,-2,0,-2,-2
82069722750,18,7,0,-1,-2,-1,1,2
82069737512,10,13,0,-2,0,-1,0,-1
82069737512,-2,-4,-2,-1,0,-3,-1,-1
82069739135,1,-5,-1,-1,0,-2,-2,0
82069739135,-1,16,0,1,0,1,0,-1
82069760034,-4,-8,-5,-4,-4,0,0,-1
82069760034,7,5,-1,-1,-2,-2,-3,-2
82069761702,-7,-13,-6,-4,-3,-1,0,0
82069761702,-3,3,0,1,0,-3,-3,2
82069782697,0,10,4,-3,-1,-3,0,-3
82069782697,-6,-24,-4,-1,1,-1,-1,-2
82069784219,7,4,2,-1,0,0,-1,0
82069784219,-8,-7,-4,-1,-2,1,-1,-3
82069797763,-5,3,-1,-2,0,-2,0,-1
82069797763,7,11,1,-1,-1,0,-1,1
82069799271,-3,-3,-1,-2,-1,-2,0,-2
82069799271,-5,-9,-2,-2,0,-1,0,-3
82069820066,-3,-14,-1,0,-1,-2,-3,0
82069820066,-2,5,-5,-1,-3,-1,-1,-1
82069821698,-1,-3,-1,0,-1,0,-2,0
82069821698,-11,-13,-2,-2,-2,0,0,-1
82069842643,-5,1,-5,-2,0,-1,0,-1
82069842643,15,14,4,3,2,1,1,1
82069844164,4,3,0,2,-1,0,0,0
82069844164,-14,-4,-1,-6,-5,-3,0,-1
82069857758,19,26,0,-2,-3,-2,0,-3
82069857758,-8,-18,1,2,-1,-1,-1,-1
82069859171,0,3,-2,-3,-2,-2,-2,-4
82069859171,13,18,4,3,2,1,-1,2
82069880076,-19,-24,-9,-3,-2,-4,-2,-5
82069880076,-16,-2,0,-1,-2,-2,-2,-3
82069881671,1,-1,1,1,0,0,0,0
82069881671,-9,-9,-7,-3,-4,-1,-1,-3
82069902517,-1,-3,0,0,-1,0,1,1
82069902517,-1,-4,-4,-5,0,-3,0,-2
82069904160,-5,-10,-2,-2,0,-2,-1,-2
82069904160,1,-5,-3,-1,-1,-3,-2,-1
82069917576,-1,-8,-2,-1,-1,1,-2,-1
82069917576,4,4,0,-1,-1,-1,-2,-1
82069919116,-1,4,1,-2,-2,-1,0,1
82069919116,1,-1,1,0,-1,-1,-1,-1
82069940112,1,-1,2,-1,0,0,-2,-2
82069940112,-10,-2,-4,-1,-4,-2,1,-2
82069941659,-3,-4,0,0,-1,0,0,1
82069941659,-1,-3,-4,-1,-1,-2,0,-2
82069962463,-4,-6,1,0,-1,-1,0,0
82069962463,2,-2,-2,-1,-1,1,-1,-1
82069964064,3,-22,-1,2,-2,0,-2,-6
82069964064,-12,-3,1,-6,0,-1,-2,1
82069976904,7,9,2,1,0,0,-1,-2
82069976904,6,6,0,-2,-2,-1,-1,0
82069983824,-19,-30,-4,-4,-1,-2,0,-2
82069983824,25,7,3,2,2,2,0,0
82070000050,2,-7,-2,-1,-2,-1,-1,1
82070000050,-8,7,0,1,1,0,0,1
82070001800,-2,20,1,2,-3,-2,-1,0
82070001800,-2,-4,-3,-1,-2,-2,-1,-3
82070023265,-3,-3,-1,-4,-1,-2,-2,0
82070023265,4,-6,-3,1,2,-1,-1,1
82070024999,1,8,-3,-4,-4,-1,-1,0
82070024999,-8,-6,-2,-2,1,-1,-1,-2
82070036817,-2,2,0,0,-2,-1,0,-3
82070036817,-14,-9,-5,-6,-2,-4,-1,-2
82070043762,3,9,-3,-3,-1,-3,-2,-1
82070043762,2,-5,-2,1,-1,-1,-1,-3
82070059998,-4,-4,-3,5,0,0,-1,-2
82070059998,3,-2,0,0,1,1,0,-2
82070062591,4,3,2,-2,-2,-1,-1,0
82070062591,-1,0,-2,-3,-4,-3,-2,-1
82070082536,-2,-3,-1,-4,-1,-1,-1,-1
82070082536,-4,-1,-2,-1,-4,0,-2,-3
82070084160,2,4,2,1,-1,0,-1,1
82070084160,-3,3,0,-1,-1,-1,-1,-1
82070096840,0,1,-2,-1,0,-1,1,-3
82070096840,7,-1,-2,-1,-5,0,-2,-1
82070103647,-10,2,0,1,2,0,0,-1
82070103647,0,11,-1,0,-1,-1,-3,-2
82070119984,-15,-31,-5,-2,-2,-1,0,-2
82070119984,20,32,2,-2,-2,-1,0,1
82070121634,3,-10,0,1,0,0,0,2
82070121634,-15,-11,-2,0,-2,-2,-2,-3
82070142520,2,7,-4,-6,-2,-1,0,-1
82070142520,-4,-4,0,-4,-2,-1,-1,-1
82070144126,-2,0,-2,-2,-2,-1,-1,-1
82070144126,1,3,-2,1,-1,-1,-1,-1
82070156862,0,-1,0,0,-1,1,0,1
82070156862,-4,-9,0,1,2,0,1,-2
82070163657,-1,2,-3,0,-1,0,-1,-2
82070163657,11,-4,-1,-1,-1,0,-1,-1
82070179960,1,1,2,3,1,-2,0,0
82070179960,6,-3,-1,0,-1,-2,-2,-2
82070181707,-1,-1,-2,-1,-1,-2,-3,2
82070181707,-4,-4,-2,-2,0,-3,0,-3
82070202481,1,3,1,-1,-2,-1,-2,1
82070202481,-5,-5,-1,-1,0,-2,-1,0
82070204121,2,1,-1,0,-1,-1,0,-1
82070204121,-5,-9,-2,-2,-2,-1,-2,-2
82070216885,-1,-3,-1,-1,-2,-3,-1,-1
82070216885,-8,-5,0,-2,-1,-1,0,-2
82070223650,-1,-7,-5,-1,-2,-2,-4,-4
82070223650,0,7,0,1,-1,-1,1,0
82070240025,3,11,2,0,0,0,-2,-1
82070240025,-10,-10,-1,1,1,-1,-1,0
82070241650,7,6,-2,-2,-3,-2,0,-2
82070241650,0,-2,-1,-1,-1,-2,1,-1
82070262479,2,-4,-5,-3,-3,-1,-2,2
82070262479,-12,-3,2,0,0,-2,-1,-7
82070264105,0,0,0,-3,0,-1,0,-2
82070264105,-2,-2,-1,-2,-2,0,-2,-1
82070276156,5,-3,-2,0,-1,-2,-1,-1
82070276156,2,2,-3,0,-1,-2,-1,0
82070285180,-2,1,0,2,-1,1,-1,-2
82070285180,2,-6,-3,-3,-2,-1,-1,0
82070300036,-3,4,2,0,0,-1,-1,-1
82070300036,2,-3,-1,-1,-1,-2,-1,1
82070301729,-1,1,-5,-4,0,-2,-1,-1
82070301729,-3,-4,-1,-1,0,-1,1,-1
82070322501,-3,5,0,1,-1,-1,-2,-1
82070322501,-2,-28,-1,-2,-1,-1,-2,-1
82070324113,1,-6,-2,-2,-2,-2,-2,-2
82070324113,2,10,2,1,0,-2,-2,0
82070336163,-17,-19,-5,-3,-1,-1,0,-4
82070336163,-4,1,-4,0,-3,0,-1,-2
82070345124,14,4,3,0,-2,-1,0,2
82070345124,-3,-1,0,-1,-2,-1,0,-1
82070359961,4,5,0,0,-1,-1,-1,-1
82070359961,-6,-1,-3,-1,-1,1,-2,1
82070361591,-3,-9,1,0,1,-1,-1,-2
82070361591,-1,-4,-2,-2,0,-1,-2,1
82070382531,6,8,-1,-2,0,-2,0,-1
82070382531,-4,-9,-3,-2,-2,-1,0,1
82070384122,-3,-1,-2,-1,-1,-1,-3,0
82070384122,0,20,0,-1,-1,-1,-3,-3
82070396186,-1,-2,-4,-3,-2,-1,0,0
82070396186,2,12,1,-1,2,0,0,0
82070405180,-5,-1,-1,0,-1,0,-1,-3
82070405180,3,15,0,-1,0,-1,0,-2
82070420028,-24,-20,-4,-2,-3,-4,-3,-4
82070420028,8,5,0,0,-2,0,0,-1
82070421620,-10,3,2,-2,-2,0,-1,1
82070421620,-3,-2,-1,1,-1,-1,0,-2
82070442533,11,0,1,1,0,1,0,1
82070442533,-12,-6,-4,1,-2,-3,-4,-5
82070444143,-4,-6,-1,-2,-1,-2,-1,-2
82070444143,-2,-17,-4,-3,-1,0,-3,-1
82070456122,4,2,-1,0,-1,0,1,1
82070456122,-7,-9,-6,-4,0,-1,-2,-4
82070465171,5,7,1,2,2,-1,1,1
82070465171,-4,-9,-5,-1,-2,-2,-1,-1
82070480025,-1,1,-2,-2,-3,0,-2,0
82070480025,-6,-5,-2,0,-4,-1,0,-1
82070481632,9,-2,-1,-3,-3,0,0,-3
82070481632,-2,-3,1,0,-1,1,0,1
82070502534,0,2,0,-2,1,-1,0,-1
82070502534,6,5,-1,-2,-1,-1,1,-1
82070504124,-2,-7,-2,-2,-1,-2,-1,-2
82070504124,-7,-5,-3,-1,-1,-3,0,-3
82070516135,2,6,1,0,0,0,-1,-2
82070516135,3,-1,1,0,0,-2,-2,0
82070525200,-3,5,-2,-1,0,-1,0,2
82070525200,7,-3,-2,-2,-2,-1,-2,-2
82070539990,-8,-3,-2,-1,0,-1,-1,-3
82070539990,3,8,-1,-3,0,-2,-2,0
82070541628,1,-3,2,1,0,-2,-2,-1
82070541628,-1,-7,-2,-1,-1,-1,0,-2
82070562498,2,2,0,0,0,-1,-3,1
82070562498,3,3,-1,0,-2,-2,1,-1
82070564079,-4,0,-3,-2,-2,-1,-2,-3
82070564079,1,-1,2,2,1,0,0,0
82070576156,-2,1,0,-3,0,1,-1,-2
82070576156,-8,-2,-6,-1,-1,-1,1,-4
82070585211,8,-1,-2,1,3,-2,-3,-1
82070585211,-6,3,1,-6,-10,-2,-2,-1
82070600033,2,-1,0,1,0,-2,-1,0
82070600033,6,1,1,-1,-1,0,-2,2
82070601708,2,-3,-2,0,0,0,1,-1
82070601708,1,-3,-2,-2,0,-1,0,-7
82070622573,0,-2,-1,-3,-3,-2,-1,-1
82070622573,6,0,1,0,-1,-1,-1,1
82070624137,-9,10,0,-4,-2,0,-2,-3
82070624137,-1,-13,-1,1,2,-1,0,1
82070636218,-3,-1,-4,-2,-4,-3,-1,0
82070636218,1,4,-1,0,1,-1,0,0
82070645136,6,1,-1,-3,-4,0,-2,-1
82070645136,-16,5,-2,0,1,0,-1,0
82070660028,-2,-1,1,-1,-1,-2,-2,-4
82070660028,-23,-21,-3,-3,-2,1,-1,-3
82070661582,12,5,1,0,0,0,1,1
82070661582,9,3,0,0,-1,-1,-2,-2
82070682542,-3,-5,-1,-1,-1,-3,-1,-1
82070682542,0,8,-1,-1,-4,-2,-2,-1
82070684165,-7,-8,-2,-2,-2,-2,-1,-3
82070684165,0,0,-1,1,1,0,0,0
82070704307,7,3,-1,0,-1,0,-3,-1
82070704307,4,-3,2,-2,0,-1,-1,-1
82070705095,-7,-8,-4,-5,-1,-2,-2,-1
82070705095,-4,1,-2,2,-1,-1,-2,0
82070719802,-7,0,-3,-1,-2,-1,0,1
82070719802,2,2,1,-1,-3,-2,-1,0
82070720072,-8,6,0,0,-1,-2,-3,-1
82070720072,-4,9,1,-3,-1,-1,-1,-2
82070741855,0,-14,-1,-2,1,-1,-1,2
82070741855,-1,-1,-2,-2,-1,-2,-2,-2
82070742584,-2,-2,-2,-1,-1,-1,0,-1
82070742584,4,3,0,0,1,-2,-1,0
82070764334,-3,4,1,0,-2,0,-3,1
82070764334,18,11,2,4,1,0,0,1
82070765089,-1,-7,0,0,-1,-1,0,1
82070765089,-2,-8,-3,-2,-1,-1,0,-2
82070779330,5,4,3,-3,-3,-1,-1,-1
82070779330,1,-3,-4,-4,-2,0,-1,0
82070780106,-13,-5,-2,-2,-2,-1,-3,-4
82070780106,2,-1,2,0,0,0,1,1
