timestamp,emg1,emg2,emg3,emg4,emg5,emg6,emg7,emg8
59476878995,-2,-1,-1,-1,-1,0,-1,-2
59476878995,-1,-2,0,-1,-2,-1,0,-1
59476893897,-1,0,0,-2,-1,-1,-1,0
59476893897,0,-4,-2,-1,-2,-1,-1,2
59476895534,-1,0,-1,-3,-2,0,-2,-1
59476895534,0,-2,0,2,2,-1,-3,0
59476916382,-1,-1,-1,0,0,-2,-1,-1
59476916382,-3,-1,-2,-2,0,0,-1,0
59476918006,-2,-1,0,-2,-1,-1,0,-2
59476918006,1,-1,-1,0,-3,-3,0,0
59476930006,-1,0,-1,-2,-1,-2,0,-2
59476930006,-1,-1,-1,-1,-1,0,-2,-1
59476939040,-1,-1,1,-2,0,-2,-1,-2
59476939040,-2,-1,0,-2,-2,-1,-1,-2
59476953911,0,-3,-1,-1,-2,-2,1,-2
59476953911,-1,0,0,0,-1,-1,-2,-1
59476955549,-1,-1,-1,-1,-2,1,-3,-2
59476955549,-1,-1,0,-1,-2,0,1,-1
59476976420,-1,-1,0,0,-1,-1,-2,-1
59476976420,-1,0,-1,-2,-2,-1,1,-2
59476978120,-3,-2,-3,-1,1,-2,1,0
59476978120,-2,0,-1,-2,0,-2,-4,-2
59476990051,0,-2,-2,-3,0,-4,-2,-1
59476990051,-1,0,-2,-1,-2,-1,1,-3
59476999054,-2,-1,-1,-1,-1,-1,-2,-1
59476999054,-1,-2,-2,0,0,0,-1,-2
59477013819,-2,0,-1,-1,-1,0,-2,-2
59477013819,0,-2,0,-2,0,1,0,-2
59477015493,0,1,-1,-1,-1,-1,0,0
59477015493,0,-2,-4,-1,1,-1,0,0
59477036388,-1,-1,-2,-1,0,0,0,-1
59477036388,1,-2,-1,0,-1,-1,-1,-1
59477038037,-1,-1,-1,0,-1,-1,-2,0
59477038037,-2,-2,-2,1,0,0,-2,-1
59477058875,0,-1,-1,-1,-3,0,-1,2
59477058875,-2,-1,-2,-1,-2,-1,-1,0
59477060503,1,-2,0,-3,-1,-1,-1,-1
59477060503,0,0,-3,-1,-2,0,-2,-2
59477073931,-1,-3,1,-2,-1,1,-2,-2
59477073931,-3,-1,1,0,-1,-1,-1,-3
59477075557,-2,0,-1,0,-1,-1,-1,1
59477075557,-1,-2,-2,-1,-4,-3,-2,-3
59477096407,0,-1,-3,-2,-2,-1,0,-1
59477096407,0,0,0,-2,-1,0,-1,-1
59477098006,-1,-1,-3,-1,1,-1,-2,-1
59477098006,0,0,-1,0,0,-1,-2,-2
59477118927,-1,1,-3,0,0,-1,-2,-2
59477118927,-2,-1,-3,-2,-3,-1,-2,0
59477120527,0,-1,-1,-1,-2,0,-2,-2
59477120527,-1,0,0,-2,-2,0,-2,1
59477133942,-3,-3,-2,-1,-1,-1,-2,0
59477133942,0,-3,-2,-2,-2,-2,-1,1
59477135527,0,-2,2,-1,-1,0,0,-3
59477135527,-2,-1,-1,-2,0,-1,-2,0
59477156384,0,0,-1,-2,-1,0,0,0
59477156384,-1,-1,0,-1,0,0,-2,-2
59477158011,-1,-1,-3,-1,0,-1,-1,1
59477158011,0,0,-1,-3,-2,-3,2,-3
59477178990,-2,0,1,-2,0,-1,-1,-2
59477178990,-1,-1,-1,-2,0,-2,-2,0
59477180531,0,-2,-1,1,0,0,-2,-2
59477180531,-2,-2,-2,-1,0,0,-1,-1
59477193897,0,-2,-1,0,0,-1,-3,1
59477193897,-1,-2,-1,-3,-2,-1,-1,-2
59477195540,-1,0,1,-1,-1,-1,-3,-1
59477195540,0,-2,-2,-1,-2,-2,-1,1
59477216383,-1,-1,-1,-1,-2,-1,-2,-2
59477216383,-2,0,-1,0,-1,0,2,1
59477218007,-2,-2,-1,0,-2,-3,0,-1
59477218007,-3,0,-1,-2,-1,1,-1,-1
59477238910,0,1,-7,-3,-1,-2,-1,-1
59477238910,0,1,1,0,-1,-2,-1,1
59477240537,-2,0,-1,-2,1,0,-2,-1
59477240537,-1,-1,1,-1,-1,1,0,0
59477253265,-1,0,-1,0,-2,-3,-3,-3
59477253265,-1,-1,-2,-1,0,-2,-2,-2
59477259989,-1,0,-4,0,0,-1,0,-1
59477259989,-1,0,-2,-1,-1,-2,-1,-2
59477276400,-1,-1,2,-1,-1,0,-1,-1
59477276400,-1,-1,0,1,-2,-2,-1,-1
59477278007,0,-2,-1,-1,-2,0,-1,-1
59477278007,-1,-1,-1,1,-1,-1,-2,-2
59477298944,0,-1,0,0,-2,-3,0,-2
59477298944,-2,0,-1,-2,-1,-1,-3,-1
59477300556,-2,-1,-3,-2,-3,-1,-1,-2
59477300556,-1,-2,-1,-1,0,-1,-2,0
59477313251,-2,-1,0,0,-1,-2,0,0
59477313251,0,0,-3,-2,1,0,-2,-3
59477320045,-1,-1,0,0,0,-2,0,0
59477320045,-1,0,0,-1,1,-1,-2,-1
59477336411,-1,-2,-2,0,-3,0,1,-3
59477336411,-1,-2,-3,0,-2,-1,-1,-3
59477338033,-1,0,0,-1,-1,-1,-3,0
59477338033,-2,0,1,-3,-1,-1,0,-1
59477358879,-1,-2,1,-2,1,-2,-1,-1
59477358879,-1,-1,0,-2,-1,0,0,1
59477360512,0,-2,-4,-2,-2,-2,-1,-1
59477360512,1,-2,-2,-1,-2,-2,0,0
59477373304,-3,-1,-1,-1,0,-1,-2,0
59477373304,0,-2,-2,-1,0,0,-2,-1
59477380049,2,0,-1,-1,-1,-2,0,-2
59477380049,0,-1,-2,0,-1,-1,0,-1
59477396397,-3,-2,-1,0,0,-1,0,0
59477396397,0,-2,-1,-1,-1,-2,0,-1
59477398041,-2,-1,0,-2,-1,1,-1,-1
59477398041,-1,-1,-1,0,-1,-1,-2,0
59477418949,0,-1,-1,-1,-2,-1,-2,-2
59477418949,-1,-1,-1,-1,-1,-2,0,-3
59477420501,-2,-1,-2,0,-1,-2,-1,-1
59477420501,0,0,-1,0,-1,-1,-2,-2
59477433278,1,0,-2,0,0,-2,0,-1
59477433278,0,-2,-2,-1,-1,-1,-2,-2
59477440142,0,-3,0,-2,0,-1,-2,1
59477440142,-2,0,-3,-1,1,-1,-1,-1
59477456375,-1,-1,0,-2,0,-1,0,1
59477456375,-1,0,-2,-1,-1,-2,-2,-4
59477458006,-3,-1,1,0,-1,0,0,-1
59477458006,-3,-2,-2,-2,-3,-1,-1,0
59477478907,-1,0,-1,-1,-1,-1,-1,1
59477478907,-2,0,0,-3,-1,0,-2,1
59477480532,-1,1,-1,0,-1,-2,-1,-1
59477480532,-2,0,-1,-1,0,0,-1,-2
59477493250,-1,-1,-3,0,0,1,-1,-1
59477493250,0,-2,-1,0,-1,-2,1,0
59477500024,-2,-1,-2,-1,0,-1,-2,1
59477500024,0,-1,-1,-2,-4,-1,0,-1
59477516421,-1,-2,0,0,-1,-3,-2,-2
59477516421,-1,0,-1,-1,-1,-2,-1,2
59477518024,-1,-1,-1,-1,0,-1,0,-2
59477518024,-1,-2,-2,0,-1,-3,-1,-1
59477538956,-1,-1,-1,-3,0,-1,-2,-1
59477538956,-1,0,-1,0,-1,2,0,-1
59477540526,-2,-2,1,-1,-1,-1,1,-2
59477540526,-1,-2,1,-2,0,-2,-2,-2
59477552555,-1,0,-1,0,-1,-2,-3,-1
59477552555,-2,-1,-1,-1,-1,-1,1,-1
59477561568,0,-2,-1,-1,-1,-2,-3,-2
59477561568,0,0,0,-1,0,0,-2,-2
59477576410,-1,-2,0,0,-3,0,-1,-3
59477576410,-1,-2,-1,-1,0,-2,-1,1
59477578049,0,0,-1,0,0,-1,-3,-1
59477578049,-2,0,-2,0,-3,-2,-1,1
59477606413,-1,-1,-1,1,-1,0,0,-2
59477606413,-1,0,-1,-1,-4,-2,-2,-2
59477608027,-1,0,-3,-2,0,0,0,-1
59477608027,0,-3,0,0,-1,-2,-1,-2
59477612549,-2,0,0,-2,-3,0,0,2
59477612549,-1,-1,1,-2,0,-1,-1,-1
59477621615,-1,0,-2,-3,-2,-1,0,-3
59477621615,0,-1,-1,0,-1,-1,0,-1
59477636394,0,-1,-2,0,1,0,-1,0
59477636394,-1,1,0,-1,-1,-1,0,0
59477638032,1,0,-1,0,-1,0,-1,1
59477638032,0,-1,-1,0,-1,1,-1,-2
59477658916,-2,-1,-1,0,-1,-1,-1,-1
59477658916,-1,-1,-1,0,-2,-1,0,1
59477660509,0,-1,0,-2,-2,-1,-2,1
59477660509,-2,0,-2,-2,-1,0,0,-2
59477681400,1,-1,-1,0,1,0,-2,-2
59477681400,-1,-1,-2,0,-1,0,-1,-3
59477683094,-1,-4,-2,-2,-2,-4,-2,-1
59477683094,-3,0,1,-2,0,-1,-1,1
59477696387,-2,-1,-1,-3,-1,-1,-2,-2
59477696387,1,-1,-1,-1,-2,-2,-3,0
59477698083,-2,-1,0,1,-1,-1,0,1
59477698083,-2,0,-1,0,-2,0,-1,-1
59477718881,0,-1,-2,-2,-1,0,-1,-2
59477718881,1,0,1,0,-2,-1,-2,-3
59477720504,-1,-1,-1,-1,-1,-1,-3,-1
59477720504,-1,-2,-1,-2,-1,1,-1,1
59477732554,-2,-1,-1,0,-2,-1,-1,0
59477732554,-2,-3,-3,1,0,-1,-1,0
59477741563,-1,0,-3,0,-2,0,-2,0
59477741563,0,-2,-2,-1,-3,-2,1,-2
59477756377,-2,-1,0,-1,-1,-1,1,0
59477756377,-2,-1,0,-1,-1,0,-2,-1
59477758028,-1,-1,-2,-3,-2,-2,0,-3
59477758028,-1,-1,5,2,-1,-1,-1,0
59477778876,-2,0,0,-3,-1,-1,-1,0
59477778876,-1,0,1,-1,-2,-1,0,-1
59477780505,0,-1,-3,-3,-4,1,-1,-2
59477780505,-1,-1,-4,-1,-1,-2,-2,-3
59477792555,1,-1,-7,-1,-3,-2,0,0
59477792555,-2,-1,-3,-1,-2,0,-2,1
59477801505,-1,2,1,0,1,0,-1,-2
59477801505,-1,-2,0,1,1,-1,-1,1
59477816450,-1,1,-1,-1,0,-1,-2,1
59477816450,-2,0,-4,-2,1,-2,-1,1
59477818030,-1,-1,-1,-1,-2,0,-1,-1
59477818030,-1,1,-3,-2,-2,-1,-3,-1
59477838898,-1,-2,-1,-1,-2,-1,1,-2
59477838898,-1,0,2,1,-2,0,-2,-2
59477840525,-3,-1,0,-1,1,-3,0,0
59477840525,-1,-1,-1,1,-2,-2,0,-3
59477852569,-2,-1,-2,-1,-2,0,-3,1
59477852569,-1,-1,1,0,0,-2,-1,-2
59477861552,1,-1,1,1,-1,0,0,-3
59477861552,1,-1,-5,-3,-2,-1,-2,0
59477883986,-1,-1,0,-1,-1,-2,-2,0
59477883986,0,-1,-2,-2,-1,-1,-1,0
59477885535,0,0,0,-1,0,-1,-2,0
59477885535,-2,0,-2,0,-1,-3,-1,-2
59477898913,-3,0,0,-1,-3,-3,0,-2
59477898913,-3,-3,0,0,-1,-1,-1,-2
59477900511,-2,-1,-3,0,-2,-1,-2,0
59477900511,1,-2,0,-1,0,-1,-1,1
59477912572,2,-1,-1,-1,0,1,0,-2
59477912572,-1,0,-3,-1,-1,-3,0,1
59477921524,-1,-2,-1,-2,0,1,0,0
59477921524,-1,-3,-2,-3,-1,2,-1,0
59477936412,-2,0,1,2,0,-2,1,-1
59477936412,-1,-1,-2,-2,-1,0,-2,-1
59477938007,-2,1,-2,-1,-1,-1,-1,-1
59477938007,0,0,-2,1,0,-1,1,-1
59477966164,-1,-1,-1,-2,-2,1,-1,-1
59477966164,0,-1,0,-2,-1,-1,-2,-2
59477973216,-1,-1,-2,-1,1,-3,-4,0
59477973216,-3,-1,-1,-1,1,-2,0,-2
59477973981,1,-1,0,0,-1,-1,-1,-2
59477973981,0,-1,-1,-1,0,0,0,0
59477981560,0,-3,-1,-1,-3,0,-1,-1
59477981560,-2,-2,-1,-2,-1,-1,-2,0
59477996401,-1,-1,0,-1,-3,-1,-1,-1
59477996401,-1,0,0,-1,-1,-1,-1,-2
59477998036,-1,1,0,-2,0,-2,0,0
59477998036,-1,-2,-1,-1,-3,-2,-1,-1
59478018856,-2,-3,-2,-2,-2,-1,-1,-1
59478018856,-1,-1,-2,0,0,0,1,-2
59478020454,-1,0,-2,-1,-1,-1,-1,-1
59478020454,-1,-1,-1,-1,-2,0,-2,-1
59478041389,-1,0,-2,-1,-2,-2,-2,-1
59478041389,1,-2,-1,-3,-2,0,-2,-2
59478042980,1,-1,0,-1,0,-1,1,-1
59478042980,0,-1,-1,-1,-1,-1,0,1
59478056430,0,-3,1,-3,-2,-1,-1,-1
59478056430,-2,-1,-1,1,-3,0,-2,0
59478058064,-2,0,-2,-3,-2,-2,-3,-2
59478058064,0,0,-3,-1,0,-2,-1,-2
59478086370,-1,-2,-2,0,1,0,-2,1
59478086370,0,-1,0,-1,-2,1,-1,-1
59478087972,1,-1,0,0,0,-1,-1,-1
59478087972,-1,0,0,-1,-1,-1,0,-2
59478101386,-1,0,-1,-1,-1,-1,-3,-2
59478101386,1,-1,1,-3,0,-2,-1,0
59478103031,-1,-3,0,-2,-1,0,0,-2
59478103031,-2,0,-2,-1,-2,-1,1,1
59478116407,-2,-1,0,-1,0,1,1,-2
59478116407,-3,-1,-2,0,0,-3,-2,-1
59478118082,-1,1,0,0,-2,-1,0,-1
59478118082,-1,-2,-1,-1,1,-1,-1,-2
59478138883,1,1,-2,1,-3,-2,-1,0
59478138883,-2,-2,-4,-1,0,2,-2,-1
59478140509,-4,-3,-2,0,-1,1,0,-3
59478140509,0,-1,-3,-1,-3,-1,-2,-2
59478161874,-1,0,-3,-2,1,0,-3,0
59478161874,-1,-1,-1,0,0,-2,0,-3
59478163470,-3,0,0,-1,-1,-2,-2,1
59478163470,-2,-2,-1,-3,-2,-1,-2,-1
59478176406,-2,-1,-2,-1,1,-3,-2,-3
59478176406,-1,-1,-1,-2,-1,-2,0,1
59478178033,-1,-2,0,-2,-2,-2,-1,0
59478178033,-1,-1,-2,0,-1,-1,1,-1
59478198884,-1,-1,0,-3,-1,-1,-4,1
59478198884,-1,-1,-1,-1,-2,-1,-1,-2
59478200503,1,-2,-2,1,0,0,-1,-1
59478200503,-2,-2,0,-2,-2,-1,-2,-2
59478221404,1,0,-1,0,0,0,0,-3
59478221404,-1,-2,0,-4,-1,-1,0,-3
59478223039,-1,0,-2,-1,-3,-2,-1,-1
59478223039,-2,-1,0,0,-3,1,0,-1
59478235092,0,1,-1,0,-1,0,0,0
59478235092,-2,-4,-2,-1,-1,-1,-1,-1
59478244049,-1,1,0,-3,0,-2,-2,-1
59478244049,-2,-2,-3,-1,-1,0,-1,-1
59478258942,-1,-1,-1,-1,0,-1,-1,-2
59478258942,-1,1,0,-2,-2,0,-3,-2
59478260505,-1,-1,-3,-1,-2,-1,1,0
59478260505,1,-1,1,0,0,1,-1,0
59478280466,-1,-1,-2,-2,-1,-1,0,0
59478280466,-2,0,-3,-1,-4,-2,-1,-1
59478289038,-2,-2,-3,-2,-1,0,-1,-2
59478289038,0,1,0,-1,0,-2,-1,1
59478295727,-3,-3,1,0,0,-2,-2,-1
59478295727,1,1,0,0,0,-1,0,1
59478302573,0,-1,0,-2,-1,2,-3,-1
59478302573,-2,0,-2,-3,-1,-2,-1,3
59478318941,-2,-1,-2,-1,-1,-1,-2,-2
59478318941,0,-1,-1,0,-1,-2,0,0
59478320538,0,0,-2,0,-2,-1,0,-1
59478320538,2,1,0,-1,0,-2,-1,-2
59478341417,0,0,0,-3,1,0,-1,0
59478341417,-3,-2,-3,-2,-1,-1,-2,0
59478342999,-2,-2,0,-1,-1,-1,-1,-1
59478342999,1,0,-1,0,-1,0,-1,-3
59478355712,0,-2,-2,-2,-2,-1,1,-2
59478355712,0,-1,0,0,-1,-2,-1,-2
59478362573,2,-1,1,-1,0,0,0,0
59478362573,-2,-2,-2,-1,-1,-2,0,-4
59478378874,-1,-2,-1,-2,-1,-3,-3,-3
59478378874,-4,0,0,-1,-1,0,-1,1
59478380476,-3,-1,-2,-1,-1,-2,0,-4
59478380476,-1,-2,-2,-2,-1,-2,-2,0
59478401419,-2,-2,-2,0,-2,0,-2,0
59478401419,0,-3,0,-3,0,0,-2,-2
59478403011,8,6,-2,3,0,0,0,1
59478403011,-17,-20,0,2,-1,0,0,-3
59478415722,4,-1,-4,-3,-2,-1,0,-1
59478415722,-4,-6,-1,-2,-1,-1,-2,-2
59478422502,0,2,0,-2,0,1,-4,0
59478422502,4,3,-1,2,-1,-1,-1,-2
59478439352,-2,-1,14,1,-2,1,0,3
59478439352,-9,-1,0,0,0,0,0,0
59478440964,-1,-4,-1,-3,-3,-3,-3,-4
59478440964,-1,1,-1,-4,-2,-3,-2,-1
59478461411,-3,2,-4,5,-2,-1,-1,-2
59478461411,5,3,-2,-3,-2,1,-1,1
59478463027,-6,-3,0,1,0,-1,0,1
59478463027,1,3,-5,4,-3,-1,2,-1
59478475764,0,-2,-5,-18,-6,-6,-1,-1
59478475764,2,1,-1,0,-1,2,1,-3
59478482522,-1,-3,-3,7,5,1,0,-3
59478482522,0,1,0,-17,-9,-10,-4,1
59478498940,-5,0,-2,9,0,5,-2,-4
59478498940,0,-2,-2,4,1,-8,1,-1
59478500509,-2,1,0,-5,-5,3,0,-2
59478500509,1,2,-2,-5,1,-1,0,1
59478521378,0,-1,-1,1,2,0,-1,3
59478521378,4,5,-1,-5,-2,3,-3,-3
59478522980,-7,-15,-2,7,-1,-8,-4,-3
59478522980,0,-2,-7,-49,-8,-3,-2,-8
59478535039,-3,-1,0,6,1,0,2,-3
59478535039,0,-1,-3,6,4,4,-1,-6
59478544069,-10,1,-1,-18,-2,2,-1,-1
59478544069,-3,1,3,33,-2,-10,-4,-3
59478558911,1,-3,-2,11,0,8,5,-1
59478558911,-5,0,-1,-12,-1,0,-4,1
59478560531,1,1,-3,2,-1,1,-3,-4
59478560531,-3,-1,1,2,2,-3,0,-2
59478581380,3,3,-2,-10,0,-2,-1,3
59478581380,-9,-2,1,10,-3,-13,2,1
59478583005,1,-1,-2,-16,-5,-8,-4,-1
59478583005,-2,1,-1,6,6,18,4,-10
59478595063,-11,-5,-3,1,-3,0,0,-15
59478595063,-1,-1,0,-6,5,9,-2,0
59478604003,-3,-2,1,20,2,-15,0,-4
59478604003,-4,-11,-4,-7,-12,4,3,4
59478618921,0,2,0,-8,-1,-13,-10,-7
59478618921,-3,-3,-6,-9,-10,7,-3,-3
59478620610,-2,0,3,16,-7,-10,5,4
59478620610,8,3,-3,9,21,11,-2,7
59478641422,-2,0,-2,-20,-7,1,3,4
59478641422,1,-2,-1,7,7,-1,-2,-6
59478643011,7,1,-4,-18,-4,2,-6,7
59478643011,-1,0,2,11,-6,-14,-1,-2
59478655056,1,1,2,30,6,15,10,4
59478655056,2,2,-2,-17,-8,-15,-7,-9
59478664091,-1,0,2,-7,-3,13,1,3
59478664091,-1,-1,1,20,4,-5,-5,-10
59478678873,-1,-3,-2,-23,2,-7,-3,-6
59478678873,-1,-3,-1,17,-6,-19,-5,2
59478680503,-1,11,-2,-9,-5,-2,-3,-10
59478680503,1,-5,-6,0,-11,11,-7,9
59478701366,0,1,2,-27,8,-6,5,7
59478701366,2,-1,0,14,-1,14,3,2
59478703051,3,0,-2,-32,6,19,1,3
59478703051,-2,6,8,13,-3,-12,0,-2
59478715005,-12,-1,-6,-12,-17,-16,-11,-8
59478715005,2,-6,-3,-20,4,14,3,4
59478724013,5,2,2,11,-3,-25,-4,7
59478724013,2,-1,1,-2,3,-4,4,-3
59478738908,0,-3,-5,-1,7,40,-4,-10
59478738908,-3,-2,2,-1,-1,-35,-7,0
59478740504,-1,-4,-5,35,-4,36,-9,-15
59478740504,-2,1,-2,-47,-3,-23,30,20
59478761414,6,3,7,35,-11,-22,-5,-3
59478761414,6,3,2,-1,13,26,-5,-36
59478763033,4,0,1,-4,7,1,4,24
59478763033,-3,0,-4,-17,-11,6,-14,-12
59478775027,-3,-6,-9,21,-3,-40,-5,12
59478775027,-3,2,7,6,-7,1,3,-4
59478784075,-2,2,-1,19,2,-1,-1,-12
59478784075,-3,0,-1,-5,2,20,-8,-10
59478798257,4,-3,-3,-13,-3,-11,2,2
59478798257,-6,-5,-6,8,-22,-74,-21,6
59478805017,-8,-3,-10,-8,29,70,32,-8
59478805017,5,0,6,12,5,3,-3,9
59478821406,6,2,0,-27,-17,8,-9,-4
59478821406,10,5,1,13,-14,-32,-4,32
59478823030,-8,-9,-9,-11,4,41,7,-6
59478823030,-5,0,1,-5,-22,-28,-19,-41
59478835054,6,-1,4,44,21,21,16,19
59478835054,1,1,1,-12,4,14,1,11
59478844028,-10,-4,1,-14,-21,-33,-1,-3
59478844028,-13,-20,-9,26,8,12,-3,-10
59478858183,-4,1,2,-39,-6,-7,-22,-24
59478858183,-8,-3,-2,7,10,9,11,-15
59478865123,1,-3,0,-42,-6,-10,-12,-5
59478865123,0,5,-3,7,2,-10,0,9
59478881384,-4,-3,-1,-9,-12,-27,7,3
59478881384,-5,-5,-8,7,15,40,6,3
59478882988,3,1,4,22,-4,-67,-36,-3
59478882988,1,0,0,-31,4,31,27,8
59478895028,0,4,5,8,16,19,-2,-7
59478895028,2,-2,-3,-4,-17,31,4,1
59478910011,1,0,3,-19,-5,-63,-1,4
59478910011,-4,0,-5,29,-7,-8,-8,18
59478918254,-16,-22,-5,-16,-4,0,-8,-5
59478918254,1,0,-4,11,15,25,13,9
59478925098,-1,-1,0,6,2,6,-7,-3
59478925098,5,3,6,12,7,-11,-1,-4
59478941436,1,-1,0,6,-2,8,7,6
59478941436,1,4,3,2,-13,-22,-2,8
59478943026,-12,-8,-8,0,0,20,10,-7
59478943026,4,2,-1,-37,2,-1,-9,-4
59478963893,-1,4,-1,39,9,4,1,14
59478963893,-17,-2,-2,-52,-16,-10,-15,-78
59478965497,5,1,5,37,11,-1,11,17
59478965497,2,3,-1,-20,-8,4,3,7
59478978224,-11,-18,-9,-3,1,11,-5,-1
59478978224,2,-3,6,20,2,-36,-2,-4
59478985066,2,0,-4,-42,-7,29,6,9
59478985066,-1,-1,0,-1,7,-4,-9,-2
59479001399,5,6,-4,47,6,-4,8,-3
59479001399,-3,-10,-4,-13,-6,14,-4,13
59479003929,-5,0,4,-17,-4,-14,-13,-37
59479003929,-1,-2,-3,48,-7,-9,0,21
59479023931,-4,2,-6,6,8,3,-2,-10
59479023931,5,0,2,-47,-8,8,8,29
59479025517,-2,-1,0,11,-8,-12,-5,-12
59479025517,1,-3,-5,-22,-1,7,0,-10
59479038223,2,5,3,-47,0,-10,-3,0
59479038223,2,-2,-5,20,-10,2,-3,12
59479045068,-1,4,3,30,16,9,5,-21
59479045068,-2,0,-2,8,5,1,2,5
59479076376,3,1,5,-12,-5,-8,-1,14
59479076376,3,0,-18,56,24,0,-5,18
59479077984,4,2,22,-65,-7,-6,4,9
59479077984,-5,-5,-5,5,-4,-7,-6,-13
59479083923,-1,5,-1,-51,-16,8,2,0
59479083923,0,3,3,15,7,10,5,-7
59479085519,-5,-5,-12,49,-6,-7,-7,5
59479085519,-2,-3,-7,-29,1,-4,-3,1
59479098247,4,0,1,32,18,3,-4,1
59479098247,-2,0,4,-22,-21,-2,5,-5
59479105204,0,-2,-4,2,-3,1,0,5
59479105204,-3,-2,5,20,7,-4,-2,-5
59479121417,1,0,-12,-23,-9,1,-5,-9
59479121417,-6,-3,0,-17,5,-2,1,4
59479123003,3,-7,2,16,1,-8,-1,9
59479123003,-1,3,-3,-53,-12,11,0,19
59479143850,-3,-1,6,82,12,-3,2,-7
59479143850,1,0,-1,-81,-15,-6,-4,8
59479145495,0,2,2,-9,-5,5,4,5
59479145495,-1,2,-1,8,5,5,2,-5
59479157542,3,2,3,-17,-16,-10,-6,5
59479157542,-2,2,6,-5,11,1,-3,-3
59479166605,-3,-2,-6,10,-5,0,-6,-3
59479166605,3,2,3,1,1,-1,-3,-4
59479181410,2,2,-1,-23,-5,0,2,1
59479181410,-2,2,1,-9,-3,3,-5,-9
59479183023,1,-1,-6,-19,-6,-4,-2,5
59479183023,0,0,3,20,-1,-1,-6,-2
59479203878,-2,0,2,1,-5,0,-3,-1
59479203878,-4,-4,9,30,6,0,-2,-2
59479211490,2,6,3,-40,-2,3,0,4
59479211490,1,1,1,26,0,2,0,-1
59479217516,1,1,1,27,6,5,-2,-2
59479217516,2,6,7,23,-3,-2,-7,-6
59479226481,-1,0,-6,-39,-3,-6,-6,-4
59479226481,4,1,7,-4,-10,-7,-13,-8
59479241390,3,3,5,-17,6,2,5,3
59479241390,-2,0,-5,30,6,2,-5,-4
59479242966,-1,-1,7,52,0,0,-5,-3
59479242966,3,-2,-4,-52,-1,-2,-1,9
59479263936,-10,-2,2,-19,2,-2,-3,-7
59479263936,8,4,10,-14,-1,2,1,4
59479265533,3,8,-13,68,7,0,-4,-3
59479265533,-6,-9,15,-22,-4,1,4,-2
59479277535,-4,-1,-2,30,-2,-5,-8,-4
59479277535,-1,-1,1,32,6,-5,1,-1
59479286504,2,0,-2,-27,2,1,2,1
59479286504,-1,5,-5,15,0,1,0,-7
59479301346,4,-4,2,-49,-9,-2,-3,2
59479301346,-5,-3,-2,-24,1,1,3,-4
59479303075,0,-2,5,2,-4,-1,-2,7
59479303075,-2,0,2,32,6,-2,-2,-4
59479323984,2,-2,-4,-50,-8,-2,1,2
59479323984,-2,1,-4,-26,-2,0,-3,-8
59479325536,-2,-2,2,-12,2,0,-1,-3
59479325536,-2,-6,-3,23,-3,0,-4,-2
59479337497,0,3,0,-8,-11,-6,-3,-3
59479337497,-5,-6,-5,0,-5,0,-1,-3
59479346557,-2,-2,5,-7,7,-1,0,1
59479346557,1,4,1,16,-14,-5,-5,-1
59479361416,6,10,-12,30,5,2,-2,-4
59479361416,-6,-4,-4,-13,5,0,0,4
59479363008,-5,-4,2,-10,-9,-2,-1,-3
59479363008,6,1,-3,0,7,-1,-3,2
59479383913,-3,2,-10,3,-9,-2,-4,-2
59479383913,0,-1,-7,-6,3,6,4,0
59479385454,-1,1,-3,30,0,-5,-4,-1
59479385454,0,-3,0,6,-5,-3,2,-3
59479422731,5,-8,21,58,13,3,3,1
59479422731,-2,-3,-7,-44,-14,-11,-9,2
59479424362,-5,2,-11,7,-2,1,-5,-5
59479424362,-6,-11,-13,-13,7,6,7,0
59479425128,1,3,38,21,-5,-5,-3,-4
59479425128,-1,0,-7,-17,-2,-1,-1,46
59479429008,11,7,0,-1,-4,-6,-9,-12
59479429008,-8,14,5,-42,-5,3,1,6
59479443933,-9,-15,8,-8,2,10,7,-13
59479443933,2,8,31,34,9,2,-6,-36
59479445529,15,-9,18,9,1,0,13,96
59479445529,-13,-3,-15,-46,1,0,-10,-15
59479457521,-8,2,-11,22,5,-8,-13,28
59479457521,-10,-6,1,-24,-2,4,-6,-75
59479466580,-22,1,-53,-14,0,8,3,-7
59479466580,-17,7,59,24,-3,-5,-5,-12
59479481409,43,3,-14,-60,-4,0,17,47
59479481409,-77,-34,6,54,5,-13,-28,-30
59479482972,12,6,-21,-47,-18,-12,-10,-6
59479482972,-28,-6,-35,-13,-1,4,-4,-34
59479503872,-38,-22,-17,-13,-3,6,12,-49
59479503872,10,-1,-31,25,-6,-22,24,18
59479505417,-9,-5,0,25,2,-5,3,-52
59479505417,30,-12,-33,-67,-19,-10,5,23
59479526414,16,-23,9,-8,-3,3,7,16
59479526414,-6,8,-43,-63,-21,3,5,10
59479528026,-37,-18,98,81,26,3,-5,-7
59479528026,28,12,33,39,-6,-11,-7,-7
59479541372,-45,10,-50,-9,5,10,-39,-72
59479541372,15,-2,9,-4,10,-53,0,44
59479542970,23,7,-5,-49,-6,40,9,-21
59479542970,16,-4,-7,63,1,-2,-10,59
59479563945,-13,-3,-3,49,9,24,22,0
59479563945,-13,-1,-6,3,-7,0,10,6
59479565582,-10,-5,-9,12,12,9,-19,3
59479565582,23,0,-20,-30,-5,-43,0,56
59479577559,-1,-2,19,-26,1,10,10,9
59479577559,21,13,-61,59,-8,15,-11,0
59479586538,21,-12,56,8,-6,-10,14,3
59479586538,-42,2,12,43,8,5,12,-16
59479601474,15,8,-39,-12,-37,-117,-24,8
59479601474,13,1,61,-5,25,112,5,-28
59479603043,11,-3,-24,-44,10,7,2,14
59479603043,-2,0,89,28,-3,-15,-10,-27
59479623978,-11,-7,-47,-23,4,3,4,-15
59479623978,-5,-5,30,14,-19,-21,-2,-16
59479625578,-8,-6,-28,8,1,-9,-4,3
59479625578,-3,-3,-92,28,15,15,-2,-2
59479637584,14,7,60,-3,-8,0,0,14
59479637584,22,-5,9,1,-1,-11,-6,8
59479646639,7,26,-10,21,6,8,1,-13
59479646639,-40,-10,-50,-67,-7,-4,0,-40
59479661029,12,4,31,31,0,13,-4,-3
59479661029,-11,-1,-17,31,23,0,-1,3
59479675286,-25,-2,-9,-12,-31,-26,-8,-1
59479675286,24,8,27,17,8,12,6,-12
59479685423,-3,0,-22,-5,2,9,-5,3
59479685423,14,8,46,12,1,-5,1,3
59479686993,-8,-6,-23,-8,-2,-9,5,7
59479686993,23,2,-12,-30,-9,6,-2,3
59479697884,-9,-1,6,-6,7,10,-5,-6
59479697884,16,4,-21,7,-3,-17,-1,25
59479706569,-4,-2,-1,-9,-8,-2,-3,-9
59479706569,2,0,0,22,6,10,1,-2
59479720526,-19,5,13,-5,2,-4,-8,3
59479720526,-10,0,24,-3,-6,-12,-2,-15
59479729119,3,-8,-26,3,3,2,3,2
59479729119,0,-8,4,13,1,4,3,2
59479744163,-13,-2,-13,33,8,8,3,10
59479744163,17,0,-14,-12,-6,-5,-8,2
59479745532,-8,1,0,-1,0,3,0,3
59479745532,-2,0,-6,-6,1,-1,1,2
59479757851,5,-1,-3,4,-6,-1,-2,0
59479757851,-17,-6,-4,-1,-1,0,0,-47
59479766583,13,1,5,8,-6,-16,-2,11
59479766583,-6,1,14,30,7,18,1,-4
59479780980,6,-7,-1,-51,-8,-16,-1,-1
59479780980,-1,2,-1,-14,2,11,3,9
59479787613,-3,1,7,48,3,-3,-2,-8
59479787613,-9,-6,-2,-10,-6,-1,2,1
59479811698,12,2,4,1,-1,3,-4,4
59479811698,1,0,-10,-11,-1,-5,1,8
59479813082,-6,-4,-2,-22,-4,-3,-3,-10
59479813082,-10,-1,4,0,4,0,1,8
59479826460,16,7,4,-15,-7,10,3,1
59479826460,-1,-1,-3,-7,2,-9,-2,4
59479828061,9,3,0,-24,0,-1,-2,-5
59479828061,-2,-4,0,-17,-8,2,-1,-5
59479841011,-7,-4,-3,13,6,-1,-1,-4
59479841011,-2,-2,-1,15,-4,2,-1,3
59479847622,-11,-4,4,-14,1,-1,3,22
59479847622,6,-4,-3,17,1,-6,-4,-1
59479864209,6,1,-1,9,0,0,1,-3
59479864209,5,-1,-2,-3,1,1,0,7
59479865525,-7,-2,3,-12,2,0,0,-5
59479865525,9,1,4,24,-1,-4,-5,-14
59479877542,-5,2,0,11,-3,-1,-3,-3
59479877542,-3,-2,-3,-43,-6,-2,-2,3
59479886597,8,2,7,11,4,4,1,-1
59479886597,-3,-2,-4,-49,-8,1,-1,0
59479900796,-3,-2,0,-7,-2,-3,-1,0
59479900796,-9,-1,-1,23,2,-4,-1,2
59479907598,-2,-2,-10,-27,-10,-4,-3,-8
59479907598,8,4,3,7,2,2,1,4
59479923955,0,-2,3,9,3,7,-1,2
59479923955,0,2,2,-16,-4,-2,-1,4
59479925543,-8,-5,-1,8,0,-9,-4,-3
59479925543,-2,-1,-2,-20,-3,-5,0,1
59479953928,2,0,-1,5,-1,-2,-2,1
59479953928,3,0,-5,-15,3,8,2,1
59479955566,5,1,0,21,-1,3,-1,-1
59479955566,-1,0,1,9,1,-5,-1,-1
59479961428,8,-1,-9,5,-6,-8,-4,-1
59479961428,1,0,1,-5,-1,-2,1,3
59479963013,2,0,2,0,-1,0,-2,-3
59479963013,6,2,0,4,3,2,4,1
59479983959,-11,-2,-1,29,4,7,0,-1
59479983959,3,-4,-6,-9,-5,-14,-7,-1
59479985578,4,2,-3,-6,-3,0,-1,-3
59479985578,-5,-3,0,-1,1,-6,-1,1
59480013871,-4,-2,2,-19,6,10,1,-2
59480013871,0,-2,-1,24,-6,-9,-6,1
59480015468,-1,-3,-2,0,-2,-5,-1,-1
59480015468,-2,0,0,-2,-1,-5,-1,-1
59480021608,1,-3,-2,-10,-7,2,-1,-1
59480021608,-4,-1,1,3,-2,3,8,1
59480029124,1,0,1,-11,-2,-1,-6,-4
59480029124,0,0,-1,7,1,3,0,0
59480051390,4,-1,-1,-10,-9,-7,1,-3
59480051390,-1,-2,0,-8,1,1,-4,-1
59480053083,-4,-2,-5,12,0,0,1,-2
59480053083,4,4,2,-7,4,5,2,2
59480066452,-3,-2,-2,-1,-2,-3,-2,-1
59480066452,-3,-1,-3,-8,-1,0,-2,-1
59480068096,-1,-3,1,-12,-6,-3,0,-4
59480068096,-3,-3,-1,20,3,-2,-2,0
59480080072,1,0,-3,-22,-1,0,-1,1
59480080072,-3,-1,-3,22,0,0,-3,-3
59480089071,2,-1,0,-3,4,-3,1,0
59480089071,-3,-3,-3,-2,-3,0,-2,-3
59480103923,-2,-2,-4,-2,-6,-2,-2,-1
59480103923,-1,-2,-3,-12,5,-20,-3,-1
59480105543,-1,-3,-4,21,0,13,-2,-1
59480105543,-1,0,-1,-5,1,2,2,-1
59480126634,0,1,2,-4,-4,-4,1,0
59480126634,0,1,-1,-3,1,6,3,-2
59480128139,0,-1,-2,-11,-4,-7,-3,-4
59480128139,-3,-4,-2,-9,-3,-5,-5,0
59480140338,-2,-3,-2,1,4,-2,-2,-1
59480140338,-2,1,2,10,-8,0,-4,-1
59480156590,-9,-1,0,13,6,-1,-2,2
59480156590,3,1,0,-19,-9,3,0,0
59480163955,-4,0,3,13,7,-5,-1,-2
59480163955,-2,-3,-1,-40,-7,3,0,-1
59480165604,11,0,-1,8,-4,-2,-5,-1
59480165604,-2,1,1,23,11,1,1,0
59480186629,2,0,5,-7,-3,-2,0,0
59480186629,-1,-2,-5,0,1,5,1,0
59480188007,-3,0,-2,-16,-3,-1,-2,0
59480188007,-2,-1,0,-6,-1,-4,1,-1
59480200153,0,-4,-6,11,-6,-3,-1,-3
59480200153,0,1,4,7,5,3,1,0
59480209124,0,2,0,-12,0,3,-1,0
59480209124,0,-4,-5,11,0,-1,-3,-2
59480224158,-5,-3,-1,5,4,-1,-4,-2
59480224158,11,0,-4,-13,-12,-1,-3,-3
59480225605,-2,-1,-5,-21,-5,-1,3,0
59480225605,-3,-1,-5,-12,-1,-3,-2,-1
59480254112,3,-1,13,15,11,4,1,2
59480254112,-4,-4,-9,3,0,-1,0,-1
59480255584,1,-1,2,-11,-2,-1,4,0
59480255584,-3,1,-5,0,-6,-1,-3,-1
59480260283,-5,-2,-6,-8,0,0,-1,1
59480260283,-1,3,-15,14,-1,-4,-3,-2
59480269086,1,-2,30,-11,0,-2,2,0
59480269086,-5,-7,7,11,-3,-3,-2,-2
59480284209,3,0,-7,-26,-8,0,0,-1
59480284209,-3,-1,2,23,2,3,-2,-1
59480285559,-2,0,-22,-16,-1,-3,0,1
59480285559,-8,-4,0,-11,-4,-1,0,-2
59480306630,10,3,9,1,0,1,0,1
59480306630,-3,-4,5,19,2,-1,-1,-3
59480308085,1,-3,-5,-19,6,0,1,0
59480308085,12,4,-9,5,-28,-3,-7,-2
59480320323,-3,-2,13,5,12,-1,2,1
59480320323,-6,-1,0,3,4,-1,2,-1
59480329087,1,0,-10,5,-3,-2,0,-2
59480329087,-7,-5,-8,-1,6,-5,0,-4
59480343929,-6,-9,1,1,-12,-7,3,-5
59480343929,-5,-4,-5,-18,-9,-4,4,-2
59480345547,-7,-6,-8,12,-11,-8,-4,-3
59480345547,1,-5,8,-8,3,2,2,-1
59480366657,-1,2,-10,7,-5,-2,0,0
59480366657,5,3,12,-13,7,2,-10,1
59480368111,1,2,-1,-1,-1,4,-3,-1
59480368111,5,5,9,14,1,2,-6,3
59480380073,5,6,9,-18,-4,5,-9,0
59480380073,0,0,4,15,-3,-10,-8,3
59480389122,5,6,8,3,8,1,-3,3
59480389122,1,-6,4,-1,-3,12,-7,-1
59480404108,0,3,3,14,4,-4,-3,-4
59480404108,6,0,-4,-38,-9,3,-3,-2
59480405625,-2,0,2,17,5,-6,2,0
59480405625,-5,1,2,14,8,0,2,0
59480426649,-2,-3,-10,-9,-4,7,1,0
59480426649,-17,-1,-2,-2,-2,-21,-1,-3
59480428119,-1,-3,-1,0,-7,3,3,-4
59480428119,-1,-1,-6,-7,4,-1,1,2
59480440165,-3,1,-7,-2,-1,1,-2,-2
59480440165,2,0,-2,-11,-5,-5,0,0
59480456572,-4,-5,-1,0,-3,5,-1,0
59480456572,-2,1,-4,-10,1,2,6,-4
59480464190,-7,-5,-6,2,-4,-6,-9,-3
59480464190,0,-3,0,-2,-3,4,7,5
59480465536,-3,-2,-6,12,-2,-3,-4,-7
59480465536,-2,-2,-6,-6,-3,-6,-4,-1
59480485771,3,0,-4,-2,1,-1,5,1
59480485771,-1,0,-2,3,3,6,-1,-3
59480486516,-3,-1,3,-2,-4,-6,-8,-8
59480486516,4,0,-3,-11,-5,0,6,14
59480516675,-1,0,-4,0,-1,-3,0,-2
59480516675,-1,-2,-2,8,-2,1,-3,-3
59480517222,-3,-3,-4,2,3,0,0,2
59480517222,-1,-1,0,6,2,-4,-7,-5
59480523223,-1,1,1,-16,-7,1,1,1
59480523223,1,-4,-1,3,0,2,-2,1
59480523987,0,-1,-2,1,-5,-4,-2,-4
59480523987,-3,-1,-6,1,0,-3,2,-5
59480545724,-1,1,-1,-3,-4,-4,1,0
59480545724,-1,-2,-1,1,2,3,-1,-4
59480546510,-1,-5,-4,4,0,-1,2,1
59480546510,-1,-1,-1,-11,-5,-6,-4,-3
59480568227,0,-1,-1,2,3,1,-3,-1
59480568227,1,0,3,-2,-1,0,-5,-2
59480568989,-1,1,0,-1,1,1,2,2
59480568989,0,0,-1,0,1,0,-1,-1
59480583436,0,-1,2,-1,-3,-4,-5,-3
59480583436,0,-1,-2,4,2,0,-4,0
59480584081,1,1,2,-3,1,2,2,2
59480584081,0,0,4,-1,1,-2,-2,1
59480605969,1,-2,4,4,-4,-2,-1,-1
59480605969,1,1,3,-1,4,10,2,-1
59480606600,1,1,4,-4,-6,-10,-9,-3
59480606600,1,0,3,0,1,-3,0,-1
59480628486,-2,-2,-3,-7,0,0,-1,-2
59480628486,2,2,2,14,1,4,-2,-1
59480629068,1,1,1,-9,0,-1,-4,-1
59480629068,0,-2,1,-3,-6,-10,-6,-3
59480651651,-2,-2,-1,5,2,0,2,2
59480651651,0,-2,1,-1,1,1,5,0
59480652249,0,1,5,1,-2,-3,-3,0
59480652249,-2,0,-4,4,4,5,-5,-2
59480665580,1,1,-1,1,-2,-2,-4,0
59480665580,-2,-2,-3,-1,-4,-1,1,0
59480673328,-3,-3,-6,1,-2,-8,-1,-3
59480673328,-6,-5,-7,2,-3,2,8,0
59480688259,-9,-6,-12,1,1,-6,4,-3
59480688259,-8,-7,-16,-6,-5,-11,4,-3
59480689011,-11,-11,-16,-8,-3,-11,5,-3
59480689011,-9,-7,-15,9,-3,-4,5,-6
59480703213,-10,-9,-18,-5,-2,-2,5,-4
59480703213,-9,-8,-18,-9,-5,-2,7,-4
59480703956,-9,-6,-12,-1,-7,-8,3,-3
59480703956,-4,-1,-5,-8,-1,8,-4,-2
59480733886,0,1,2,-2,2,6,-9,-1
59480733886,8,3,7,-1,-2,-11,-9,0
59480734655,9,5,11,-1,-1,9,-7,1
59480734655,8,4,9,-12,-7,-3,-8,-1
59480748454,7,2,7,-3,3,1,-4,1
59480748454,3,2,7,0,0,13,-7,-2
59480749059,5,1,6,-1,1,3,-3,0
59480749059,3,1,2,-1,-2,-1,2,-3
59480763448,2,0,3,0,-4,-3,-9,-3
59480763448,1,-1,0,-1,1,-11,0,-1
59480764009,1,0,0,5,3,5,0,1
59480764009,0,-1,0,0,2,7,0,2
59480785813,-1,1,1,-3,-1,2,4,2
59480785813,-3,-1,-2,0,0,-1,-1,0
59480786530,-2,-2,-3,-2,-4,3,-1,-2
59480786530,-4,-3,0,-10,-4,-13,-5,-1
59480808308,-2,0,-2,5,2,-3,1,1
59480808308,-1,2,4,0,3,12,2,-1
59480808989,-2,-1,-1,-2,-1,-6,-1,-1
59480808989,1,-1,-1,-1,-4,-1,-4,-3
59480823456,-2,-4,-4,-1,0,5,1,-1
59480823456,2,1,1,-1,-1,-12,-2,3
59480824026,1,0,1,0,0,8,1,-3
59480824026,0,0,2,1,0,1,3,-1
59480845778,0,2,1,-2,-3,-4,-1,-4
59480845778,-3,-2,1,-5,-2,3,-3,-2
59480846558,-3,0,-4,0,-1,-3,-7,0
59480846558,0,0,-3,1,4,-2,-2,1
59480868230,1,-1,2,0,-2,4,2,0
59480868230,-4,-2,-3,-5,-4,-1,1,-4
59480868971,-1,0,0,3,-2,-3,2,2
59480868971,0,-1,0,-3,0,0,-3,-2
59480883323,-1,-2,-4,-2,-1,-3,-2,-1
59480883323,1,-1,-4,0,-1,-10,0,2
59480884039,0,-1,-1,1,4,14,-1,0
59480884039,-2,0,-1,-5,-3,-2,0,-3
59480905751,-2,0,-2,-4,-4,-5,-2,-3
59480905751,-2,-1,-3,-3,-2,-4,-2,-3
59480906525,-3,-1,-2,0,1,-2,0,0
59480906525,-1,0,-1,1,2,2,0,-1
59480928252,-1,-2,-1,-1,-1,0,0,0
59480928252,-2,-3,-4,-3,-3,1,-1,0
59480935773,-3,-1,-1,-4,-4,-5,-3,-1
59480935773,0,-1,-1,1,-1,-7,-2,0
59480943451,-3,0,-2,-1,1,1,-1,-1
59480943451,-2,0,-1,-1,3,5,0,0
59480944030,2,0,0,0,1,-2,0,0
59480944030,0,0,0,-1,-1,-3,-1,0
59480965809,-2,-2,-4,-2,-6,-5,-2,0
59480965809,-2,-1,1,1,-3,0,-3,-3
59480966537,-1,-2,-2,-7,-2,1,0,0
59480966537,-1,-1,-1,-2,-2,-3,-2,-2
59480988225,-1,-1,0,-1,1,0,-1,-1
59480988225,-1,-1,1,1,1,2,3,-1
59480989009,1,-1,0,-2,-1,-4,-1,-2
59480989009,-2,-2,-1,2,0,1,-3,0
59481003203,0,-1,0,-5,-2,-3,-3,-3
59481003203,-2,-3,-4,-3,-3,-1,-3,0
59481003942,0,0,1,-1,-1,-3,-1,1
59481003942,1,0,-1,-1,0,-1,2,1
59481025638,-1,1,1,2,0,1,0,2
59481025638,2,-1,-1,-1,-2,-2,-2,-3
59481026493,-3,-2,-5,0,-1,-1,-2,-3
59481026493,-1,-3,-2,-1,-1,-1,-2,-2
59481048247,-1,0,-2,-2,1,-3,0,-2
59481048247,0,0,0,-10,1,1,-1,2
59481049050,-8,-3,-1,8,-2,-1,0,-27
59481049050,-1,0,0,16,2,0,-3,0
59481064744,0,0,0,-9,1,-1,0,5
59481064744,0,1,3,31,4,0,-3,1
59481065551,3,1,-2,-26,-6,-1,0,4
59481065551,-11,-1,0,-11,-5,-1,-2,-4
59481085535,-3,-2,-1,4,-4,-3,-5,-7
59481085535,-3,1,0,-9,-1,-1,-1,-3
59481093468,5,7,1,3,1,-1,1,5
59481093468,0,-3,-3,1,1,-1,-1,-1
59481108454,-6,-9,-21,-10,-2,-1,1,1
59481108454,-8,-6,-2,-3,-3,-1,-1,0
59481109069,1,10,4,7,-2,-3,-5,0
59481109069,4,-1,-3,-8,-3,1,0,1
59481123499,-9,-14,5,5,0,-2,-2,-3
59481123499,-5,7,-12,-7,-4,-3,-1,-21
59481124068,-8,-6,0,2,3,1,5,-5
59481124068,-2,-1,-3,0,-2,-1,2,1
59481146059,4,2,0,0,-7,-3,-2,8
59481146059,4,-2,-2,-2,-2,-1,-1,-9
59481146556,-3,-6,-1,-3,-2,-2,-5,2
59481146556,2,1,-1,-1,-2,-1,-2,11
59481168234,1,5,2,1,0,1,-2,-5
59481168234,7,-4,2,-3,1,0,2,15
59481169001,9,1,-4,2,-1,-2,-2,4
59481169001,-2,-4,3,1,0,-1,1,-5
59481183489,21,0,-3,1,-1,-2,0,11
59481183489,4,10,3,-13,-4,-2,1,17
59481184064,-11,-13,-7,1,-1,-1,0,0
59481184064,4,-1,7,14,-1,-3,-1,-1
59481205792,-2,2,5,-2,-1,-2,-3,-11
59481205792,0,-4,-11,-4,-2,-2,-4,-5
59481206517,-3,-1,-3,0,-5,-1,-3,-16
59481206517,3,4,1,-2,-2,-2,-2,9
59481228300,1,-1,5,9,3,2,0,4
59481228300,-6,-4,1,-11,0,-1,1,-8
59481229058,-5,0,4,6,0,-1,0,28
59481229058,-3,-3,-4,4,0,1,0,-26
59481243323,-1,2,-1,-1,-3,0,-2,-4
59481243323,-8,-3,1,-4,1,-1,-1,-2
59481244097,5,-4,-3,7,-2,-2,0,7
59481244097,-6,0,-2,-5,-1,-1,0,11
59481274149,-5,-1,0,-1,-3,-4,0,-7
59481274149,4,5,1,6,-1,-3,1,0
59481274752,-2,-9,1,-7,0,0,-1,-14
59481274752,-7,-2,-2,-3,-2,0,-2,5
59481288458,0,4,3,-1,0,-1,-3,-10
59481288458,-4,-1,-1,5,-1,-1,-4,-17
59481289040,2,2,-1,-6,-1,-1,-2,-4
59481289040,1,0,-2,-4,-2,-2,-3,-6
59481303221,-13,-1,1,-3,1,-1,0,-1
59481303221,5,-4,3,4,-1,-1,-1,13
59481304016,-8,9,2,-2,-2,-2,-4,-8
59481304016,-13,-10,-3,-8,1,-1,-1,-5
59481325775,1,8,2,0,-3,1,2,6
59481325775,-2,-6,4,5,3,2,2,0
59481326633,0,-2,17,1,0,-2,0,2
59481326633,4,2,1,-4,-4,-2,-2,-1
59481348514,1,-4,-6,-4,-1,1,-3,0
59481348514,-8,-5,-3,0,-3,-1,-3,-2
59481349089,13,4,-4,-3,0,-2,2,3
59481349089,3,2,0,-7,-1,-1,0,-6
59481364795,0,-6,-2,1,0,-1,1,10
59481364795,-2,1,0,2,-1,-2,-2,6
59481365536,-4,-2,-5,8,1,1,-1,-1
59481365536,4,-3,-4,-18,2,-3,-2,0
59481385729,2,3,-10,-3,-9,-3,-4,-2
59481385729,-6,-6,1,56,3,1,1,-2
59481386495,8,0,-10,-78,-16,0,2,0
59481386495,-7,1,3,29,10,2,1,2
59481408148,2,15,3,0,0,0,0,-3
59481408148,2,2,2,2,0,-2,-1,-2
59481408951,2,-1,-3,25,6,-1,0,3
59481408951,0,1,-3,-7,-6,-1,-2,-4
59481423430,-4,-7,-1,-4,0,-1,-2,13
59481423430,-2,-1,-2,-9,-1,-1,-4,-1
59481424048,-24,-1,-2,8,0,0,-2,1
59481424048,3,3,-2,-3,-3,-1,-2,-8
59481445901,2,-3,1,3,2,-2,0,-2
59481445901,1,-2,-3,-16,0,-1,0,-1
59481446551,-1,-4,-2,-1,-1,-1,-2,-4
59481446551,-1,-1,-4,1,-4,-2,-1,6
59481468447,-4,-5,-1,0,-1,-1,2,-10
59481468447,0,-2,-3,-9,-3,-2,-1,-5
59481469011,2,1,-2,-3,0,-3,-2,-5
59481469011,-1,-3,-2,9,-1,1,-1,0
59481482662,-2,-4,-1,2,3,-1,0,-15
59481482662,9,10,0,-20,-5,-2,-1,1
59481490983,1,1,0,19,5,1,1,3
59481490983,-3,-1,-1,-5,-2,-2,1,1
59481505734,-1,-3,-1,5,1,-1,-2,-3
59481505734,8,0,0,-6,0,-2,-1,4
59481506496,3,-4,0,13,-2,-1,-2,-6
59481506496,0,-1,-2,-4,-1,-2,-1,14
59481528405,-3,1,-1,-8,0,-1,-1,-9
59481528405,4,-5,-5,0,-2,-1,-2,9
59481529051,-10,0,-2,-1,-4,-3,-4,-42
59481529051,2,2,2,-3,-2,-2,0,5
59481542650,11,4,-4,3,-1,-1,-2,0
59481542650,-1,-12,3,-11,-2,-1,-2,3
59481550946,3,3,-2,3,-4,-3,-1,-1
59481550946,-5,-1,-4,-7,-3,0,-3,-5
59481565898,-3,-1,0,-6,-1,-1,-1,-6
59481565898,-8,0,-2,-1,2,-2,0,-7
59481566561,1,0,0,-3,0,1,1,10
59481566561,2,-4,-2,-4,-2,-1,0,-8
59481588486,1,-3,0,8,-1,-2,-1,6
59481588486,-4,0,-1,-6,-4,-2,-2,-6
59481589067,-6,-6,-2,-1,1,-1,-1,10
59481589067,7,3,1,4,-4,0,-1,-3
59481602567,-6,-5,-1,-6,1,1,0,-2
59481602567,-14,-14,-4,-4,-3,0,-2,5
59481610791,4,0,-1,-8,2,-1,0,0
59481610791,-1,-2,-2,-2,-1,-2,-4,-4
59481626014,-5,-2,0,1,-2,-3,-1,-5
59481626014,0,2,-1,2,-2,1,1,-5
59481626582,1,-1,-3,-4,-2,-1,-1,9
59481626582,-4,-2,-4,-3,-1,-1,-2,-3
59481648263,-9,-3,-3,-2,-2,-3,-1,-12
59481648263,11,8,3,5,2,0,-1,-1
59481649029,-2,-3,-3,-2,1,-1,1,2
59481649029,5,2,0,2,-1,-2,0,-4
59481662877,-3,-4,-2,-9,-3,0,0,3
59481662877,4,1,-2,-1,-3,-1,0,-5
59481670983,-11,-18,0,2,-2,-1,-2,-2
59481670983,-1,-4,-2,0,1,0,-2,1
59481685963,3,0,-3,-1,-1,-2,-1,7
59481685963,-4,4,-3,-6,-2,-3,-4,-8
59481686571,0,3,-1,1,-1,-1,-1,3
59481686571,-13,-8,-3,-1,-1,-3,-1,-24
59481708839,3,0,-1,-5,-2,-1,-1,0
59481708839,1,-5,-2,3,0,0,-1,-1
59481709679,10,11,2,-1,-2,-1,2,1
59481709679,-3,-2,0,-1,0,1,-1,5
59481722758,7,3,0,-3,-1,-1,-1,6
59481722758,-2,-4,-3,1,-4,-1,-1,-13
59481731065,1,0,-1,-1,-2,-1,-3,3
59481731065,1,0,1,-3,-1,-1,0,4
59481745785,-9,-3,-2,0,0,-1,-3,-2
59481745785,-3,-1,0,-1,0,0,2,5
59481746467,-1,-3,0,-2,0,-1,-1,-4
59481746467,0,1,-3,-1,-2,-1,0,0
59481768949,2,0,-1,0,0,-1,0,-5
59481768949,-6,-16,-1,-3,-3,-1,-4,4
59481769726,-3,4,0,1,0,1,-1,-11
59481769726,-1,-2,0,-2,0,0,0,-1
59481782593,-15,-2,-2,-1,-1,-1,0,-8
59481782593,5,5,-1,-1,1,-2,0,3
59481790753,-2,-4,1,-1,0,-2,1,1
59481790753,1,-3,-1,1,-1,-2,-3,-1
59481805753,-4,-3,0,-1,0,0,0,11
59481805753,8,-1,-1,-5,-4,-4,-2,-2
59481806541,1,0,-2,-2,0,-1,-2,1
59481806541,6,4,1,-1,-2,-3,0,-2
59481828292,6,0,-1,0,0,1,0,-1
59481828292,-6,0,-2,1,-1,-1,0,-1
59481829106,4,-2,-2,-1,-1,0,0,6
59481829106,-3,3,-1,-1,-1,0,-1,-2
59481851434,-5,-20,-1,0,-3,-4,-5,-6
59481851434,-5,3,0,-1,-1,-1,0,-3
59481852162,3,6,-1,-1,-1,-1,-2,-4
59481852162,-5,-3,-2,-2,0,0,-1,2
59481865736,0,2,-2,0,-1,0,-2,-1
59481865736,-1,3,1,1,-2,2,0,-1
59481866525,-2,0,-1,-3,-1,-2,-1,1
59481866525,-2,-3,-2,-1,-1,-1,-2,-1
59481896458,2,2,0,-2,1,-3,1,2
59481896458,-15,-4,-2,0,1,-2,-2,-2
59481897215,-3,-2,-3,0,-2,0,-3,-1
59481897215,-3,0,-1,1,0,0,-1,-2
59481911428,1,-1,-1,-3,-4,-1,0,-5
59481911428,2,1,-1,-2,0,-2,0,0
59481912187,-6,-6,-3,-2,0,0,-1,1
59481912187,6,0,2,-1,-2,-2,0,5
59481925793,5,3,-3,1,-1,-1,-3,4
59481925793,-1,2,2,-3,0,0,-2,-3
59481926549,-1,1,0,0,-1,-1,-1,1
59481926549,-2,-5,-3,-2,-2,0,-1,2
59481948942,0,3,2,-1,-1,-1,0,0
59481948942,3,-1,-2,1,2,-1,0,-4
59481949750,-1,-3,-2,2,-1,0,-1,-5
59481949750,6,4,-1,-1,-1,-1,1,3
59481971444,-1,-3,1,-1,0,-1,-1,-2
59481971444,13,9,1,2,-2,-1,0,4
59481972189,0,-2,-2,-2,-2,-1,-3,0
59481972189,-4,-5,-1,-1,-2,-1,-2,-6
59481985750,3,4,-1,-2,-2,0,-2,1
59481985750,-4,-4,-2,-1,0,-1,0,0
59481986546,-1,0,-1,-3,-1,-1,1,2
59481986546,2,5,0,-1,1,-2,-1,0
59482008889,-3,-5,1,-2,-1,-1,0,-2
59482008889,-1,-3,-2,-4,-2,-2,-4,1
59482009634,0,0,1,1,-2,-2,-1,-1
59482009634,-1,-1,0,0,0,1,0,-3
59482031431,-2,1,-2,-1,-1,-1,-3,0
59482031431,-3,-4,0,0,-1,0,-1,-1
59482032185,-1,-5,-4,-1,-2,-3,-2,-4
59482032185,-4,-4,-1,-1,-1,0,-2,-3
59482045776,-3,-2,-3,-1,-3,0,-3,-2
59482045776,-1,-1,-1,0,-1,-1,0,-1
59482046473,-3,-2,-2,0,1,0,-1,-4
59482046473,-2,0,0,-1,1,-1,0,-1
59482068964,-4,-4,-1,0,-1,0,-1,-1
59482068964,0,0,-1,0,-1,-1,-3,-2
59482069750,-1,0,-2,0,-4,-2,0,2
59482069750,-2,-22,-4,-3,-2,-2,-2,0
59482098989,5,6,3,1,0,1,2,0
59482098989,-7,-4,1,-2,-1,0,0,-1
59482099717,-5,1,2,2,-1,-1,-2,-1
59482099717,4,4,-2,0,-2,0,0,1
59482105715,-5,-1,-2,-1,1,-2,-1,-1
59482105715,10,-3,-3,-1,0,1,-3,-8
59482106529,-8,-1,0,-1,1,-1,-1,-10
59482106529,-1,1,-2,-1,-1,-1,-1,-1
59482129166,-5,-3,-1,1,-1,0,1,-3
59482129166,-6,0,1,-2,-1,-2,-1,0
59482129775,5,-9,-3,-2,-1,-1,-1,2
59482129775,7,17,2,4,1,0,0,0
59482151535,-2,-12,-3,-3,-2,-1,-2,-1
59482151535,-4,-2,-3,-1,-2,-1,0,2
59482152175,2,-1,-1,-3,-1,-1,0,-1
59482152175,-3,0,-3,-3,-1,-2,-2,0
59482165842,1,3,0,-3,-1,-5,-1,1
59482165842,0,0,-3,2,-2,0,-1,1
59482166597,-1,-2,0,-2,-1,1,-2,3
59482166597,-4,-3,0,-1,-2,2,-1,-4
59482189096,-3,2,1,-1,1,0,0,-2
59482189096,0,-2,2,-2,-3,-1,-1,0
59482189724,-2,1,-1,-1,-1,-3,-1,-2
59482189724,-2,-6,-2,-1,-2,-1,0,2
59482211647,-3,-1,0,1,-1,-1,-2,-2
59482211647,11,1,-1,1,-2,-3,3,11
59482212188,1,-1,-1,-3,-2,-1,-2,4
59482212188,-5,4,1,-2,-1,-1,-1,-4
59482225668,-1,0,-3,-2,-4,-2,-1,1
59482225668,0,5,0,1,0,-2,-2,0
59482226540,-1,-11,-1,0,1,-2,-2,2
59482226540,1,-5,-3,-3,-2,-1,-2,1
59482249033,10,6,-1,1,0,0,1,0
59482249033,-5,1,-1,-1,0,0,0,-3
59482249720,-2,3,-2,-2,-2,-1,-1,-2
59482249720,-5,-3,-2,1,-2,-2,-2,-1
59482271713,-13,-4,0,0,-1,-2,-1,-15
59482271713,-4,-6,-2,-4,-3,-2,-2,-1
59482272253,8,4,-2,0,-2,0,1,5
59482272253,4,0,0,-2,-1,0,0,0
59482285897,0,0,-1,1,-1,-1,1,6
59482285897,-5,-3,-1,0,-1,0,1,-3
59482286505,0,4,-1,-1,-2,0,-1,-4
59482286505,-3,3,0,-1,-1,-2,-2,6
59482309025,2,0,-3,-1,-2,-2,-3,-2
59482309025,-2,-3,-3,-1,-1,-2,-2,-4
59482309763,-1,0,0,-1,-2,-2,-2,-1
59482309763,0,4,1,0,0,0,-1,-2
59482331427,-3,-4,0,-2,-1,0,-1,-1
59482331427,-2,0,-2,0,1,0,1,0
59482332157,-5,0,-2,-1,-2,0,-2,-12
59482332157,-2,-5,-1,-1,0,-3,-3,-11
59482345289,1,-2,-2,-2,-2,-1,0,2
59482345289,-4,0,-2,-1,-2,-1,0,-2
59482353467,-1,7,0,-1,-3,-2,2,1
59482353467,-4,-4,0,-3,-1,-1,1,-4
59482369008,-5,-2,-2,-3,-1,-1,-2,3
59482369008,-2,3,-1,-1,-1,-2,-2,-8
59482369720,-1,3,2,-1,1,-2,-1,0
59482369720,1,2,-2,0,0,-2,-1,3
59482391632,-1,0,-1,0,-2,-1,-1,0
59482391632,-4,-3,-1,-2,1,0,-4,-6
59482392211,1,-4,-3,0,-3,0,-3,2
59482392211,-3,-1,-1,-2,0,-2,1,-4
59482405957,-2,-3,-1,-1,-2,-2,0,6
59482405957,2,-2,-2,-1,-2,0,0,-3
59482406623,0,-4,0,-1,1,0,0,8
59482406623,2,-2,-1,-3,-1,-1,-3,-10
59482429057,3,0,1,-3,0,-2,-2,-1
59482429057,10,13,3,-1,-1,-1,1,2
59482429711,-9,-11,-1,-2,-2,0,-1,2
59482429711,-1,2,-3,0,-1,-1,-2,-3
59482458917,2,0,-1,-2,-1,-1,0,-3
59482458917,-2,0,-2,0,-2,1,-2,0
59482459746,-1,-1,-2,1,0,-1,-1,-3
59482459746,-13,-3,0,-1,-1,-1,-2,-10
59482465375,-1,-1,-1,-1,-1,-1,-3,-1
59482465375,-3,-8,-2,-2,0,0,1,3
59482473377,-4,1,-1,-1,-1,-1,-2,-9
59482473377,2,-5,0,1,-5,-1,-3,6
59482488950,-3,2,-3,-1,-2,0,0,-3
59482488950,-3,-6,1,-3,-1,-2,-3,-1
59482489695,0,0,-2,-1,-2,-1,1,4
59482489695,1,0,0,-1,-1,-2,-1,2
59482511380,-3,-3,-1,-2,0,0,1,-3
59482511380,-2,-1,-2,-2,0,0,-1,1
59482511978,0,0,-1,-1,0,-2,-3,-2
59482511978,0,-4,-2,0,-1,1,1,5
59482525095,-4,-11,-2,-1,-3,0,-3,-5
59482525095,2,-5,-2,0,-2,-3,-1,-1
59482533434,21,5,0,0,1,0,2,14
59482533434,-12,-4,-1,-2,-2,1,-2,-13
59482549067,7,5,-1,0,0,-1,-2,1
59482549067,-2,0,0,-3,0,-1,-1,-2
59482549774,-1,-4,-1,0,-1,-1,-3,-2
59482549774,5,1,0,-2,-1,0,1,2
59482571589,0,2,-2,1,-2,-1,-1,1
59482571589,-3,-2,0,1,1,-1,-2,-1
59482572193,-5,2,-1,-3,-1,-2,-1,-5
59482572193,0,-2,-2,0,0,0,-2,6
59482585047,-3,2,2,-2,-2,-1,0,-4
59482585047,-7,-23,-3,-1,-2,1,2,3
59482593466,-6,-3,-1,0,-2,-1,-1,-5
59482593466,-1,4,-3,-2,1,-1,-2,-2
59482609166,3,0,0,-1,0,-3,-2,1
59482609166,0,4,-2,-2,-3,-2,0,6
59482609712,-3,-3,-1,-1,-1,-1,-1,-4
59482609712,0,-7,-2,0,-2,-4,1,9
59482631479,2,2,2,1,-1,0,-3,-4
59482631479,-6,-1,-2,-1,-2,-4,-4,-4
59482632245,-1,3,0,-1,-1,0,1,-1
59482632245,2,0,0,-3,-1,-1,0,-1
59482645122,-2,-1,-3,0,0,0,-1,-2
59482645122,1,9,-3,0,1,0,-2,-1
59482654023,-2,-7,0,-3,-2,-1,-1,-3
59482654023,1,4,-1,-1,-1,-2,-2,-3
59482668875,3,-3,0,0,0,-1,0,2
59482668875,2,5,-1,-1,-2,1,0,-5
59482670570,-1,-1,-1,-1,-2,-2,0,-6
59482670570,-3,-2,0,0,-1,0,-1,7
59482691654,-14,-4,0,0,1,1,-4,-12
59482691654,2,0,-1,0,-1,-3,-1,4
59482693039,0,-2,-3,-1,-1,-1,0,-6
59482693039,-7,-2,2,-3,-2,-3,0,2
59482705309,2,1,1,-1,1,-1,-2,2
59482705309,-5,-3,-2,1,0,0,0,-4
59482714038,2,1,-1,2,0,0,-2,2
59482714038,1,-1,-2,-1,-2,0,-2,-4
59482729046,-1,-1,-4,-2,-3,-2,1,-3
59482729046,-1,-1,0,-4,-2,-1,-1,-2
59482730496,-3,-2,-1,-2,-1,0,-1,1
59482730496,3,2,-2,-1,-1,-1,-1,-1
59482751638,-4,3,0,1,-1,1,0,-5
59482751638,3,-5,-1,-2,-4,0,-1,12
59482753104,-2,-2,-4,-2,-2,-2,-1,-7
59482753104,-3,-2,1,-1,-1,0,1,-1
59482773945,9,-1,-2,-1,-2,-1,-2,4
59482773945,1,13,2,1,0,-1,-1,-10
59482775466,-2,-2,-2,-1,-1,-3,-1,5
59482775466,3,-2,-2,0,0,-1,-3,-2
59482790079,-2,-3,-2,-2,-2,-4,1,1
59482790079,-2,-4,0,-1,-1,-2,-1,0
59482802598,-4,1,0,-1,0,1,-1,0
59482802598,8,-1,-2,-1,0,-1,0,-2
59482811384,4,12,0,-3,-1,-1,-1,2
59482811384,-4,-6,-1,-4,-2,0,-1,-2
59482812974,-1,2,0,-1,-1,-1,-1,-1
59482812974,-5,-2,-2,0,0,-2,-1,-2
59482834005,0,-1,-3,0,-1,0,-2,0
59482834005,-1,-3,-1,-1,-1,-1,-2,-2
59482835492,0,-2,-1,-1,-1,0,-2,-2
59482835492,-2,-1,1,-2,-2,-1,-1,1
59482848475,1,-2,0,-2,-1,-1,-1,1
59482848475,-2,-3,-2,0,2,-1,-1,-3
59482855237,-2,-1,0,-3,-2,-1,-3,0
59482855237,-2,1,-1,-3,-1,-1,-1,-3
59482870554,-7,-3,-1,-1,-2,-1,0,0
59482870554,2,-1,-3,-1,-2,-2,-3,1
59482879003,3,4,0,0,0,-1,-1,-3
59482879003,-2,-2,0,1,-1,-1,-2,-3
59482893931,-6,-5,0,-1,-1,-2,-2,1
59482893931,0,2,-1,-3,0,-2,-1,-2
59482895467,3,7,-2,0,-1,-2,-2,-1
59482895467,-3,0,-1,0,-2,0,-1,0
59482909124,6,0,1,1,-1,0,-1,-1
59482909124,-3,-1,0,1,-2,-1,0,5
59482910545,-2,-2,0,-4,-1,0,0,-5
59482910545,5,1,0,-1,-3,-1,-3,-1
59482931561,-4,-3,-1,-2,1,1,-1,1
59482931561,1,2,-2,1,0,0,0,-1
59482933166,-3,-4,0,-1,-2,-2,-3,2
59482933166,-6,-3,-1,-2,2,-1,0,-3
59482954041,-3,-5,-2,0,-1,-1,-1,-2
59482954041,0,0,1,-2,-1,-2,-1,-2
59482955480,1,-5,-2,-1,-1,-1,0,1
59482955480,2,-1,-2,0,-1,-3,-2,-3
59482968296,2,10,0,-3,0,-1,2,0
59482968296,0,0,0,-2,-1,1,0,-4
59482975312,-1,-2,-2,0,-1,-1,1,-1
59482975312,2,-2,0,-2,-1,-3,-2,2
59482991566,-1,5,-1,-2,0,-1,-1,-1
59482991566,-5,-5,-3,0,-3,-1,-2,-3
59482993012,-5,-5,-1,-2,0,0,-1,-2
59482993012,2,3,-3,1,0,0,0,-2
59483014518,1,-6,-5,-1,-2,-1,-3,-4
59483014518,-3,-2,-1,-1,0,-2,-1,-1
59483016206,-1,-1,-1,1,0,-1,-1,-2
59483016206,-5,-2,0,0,-1,-1,0,-2
59483028203,-4,-6,-1,-1,0,-1,-1,0
59483028203,-3,-1,-2,0,1,-3,-1,-1
59483035107,2,-2,-1,0,-1,-1,1,1
59483035107,0,-3,-2,1,0,-1,-1,-9
59483051464,2,8,1,0,-4,-2,0,-2
59483051464,0,0,2,0,-2,-1,-1,1
59483053111,-2,-2,0,-2,0,-3,0,0
59483053111,-2,-2,-3,-2,-3,-1,-1,2
59483073921,-3,-3,-3,-3,0,-1,-2,0
59483073921,0,-1,-2,1,-1,0,-1,-3
59483075506,-1,0,-2,0,-1,-1,-2,-2
59483075506,0,2,-1,0,-1,-2,-1,1
59483088202,-3,-7,-2,1,-2,-1,0,-2
59483088202,0,-2,-2,-3,-3,0,-3,-1
59483095055,-2,-4,-1,-3,-2,0,-2,-2
59483095055,0,-3,-1,-1,-2,-1,-1,-1
59483111587,-5,-1,0,0,1,0,1,-1
59483111587,-2,-3,-2,-2,-2,-1,1,1
59483112991,-4,0,-2,-1,0,-1,-1,0
59483112991,4,1,-2,-1,-2,-1,-1,1
59483133894,-3,-4,-4,-3,-1,0,-2,0
59483133894,0,-3,0,-1,-1,0,0,-1
59483135472,-1,1,-2,0,-3,-3,-2,0
59483135472,0,8,2,-1,-1,-1,0,0
59483148255,5,-8,0,-2,0,-1,-3,-2
59483148255,-1,1,-2,-3,-1,0,-3,-1
59483155124,0,-2,-3,-1,-1,1,-1,-2
59483155124,2,0,-1,-2,-2,0,-2,1
59483171534,-3,0,0,0,-3,-1,0,-2
59483171534,-3,-1,-1,-2,0,-1,1,-1
59483173018,3,1,1,0,-1,-1,0,0
59483173018,-6,-4,-3,-1,-2,2,-1,-3
59483193910,-2,-2,-1,-2,-3,-1,-2,-1
59483193910,-4,-5,0,-3,-1,-2,-2,0
59483195680,-2,0,-1,-1,-1,0,-1,0
59483195680,-2,-5,-1,-3,0,-4,1,3
59483209097,0,-2,-2,-3,0,-1,-2,-11
59483209097,0,1,-1,0,0,-2,1,-1
59483215186,-1,-1,-2,-2,0,-1,0,0
59483215186,2,-6,0,-1,0,-2,-2,0
59483231455,4,6,0,2,-1,-1,-1,2
59483231455,-6,-16,-3,1,-1,-1,-1,-2
59483233101,-3,1,2,-1,1,-1,-1,-1
59483233101,-1,-2,0,0,0,-2,1,0
59483254183,-3,-5,-1,-1,-2,-1,0,-1
59483254183,2,4,-1,-1,0,1,-2,-2
59483255556,-1,-2,-3,0,-2,0,-1,1
59483255556,-4,0,-2,-3,-4,-2,-3,-3
59483267542,-2,-1,0,-1,-2,-2,0,1
59483267542,-1,6,1,0,-1,-2,-1,-2
59483276542,-1,-5,-1,-2,-2,-1,0,-2
59483276542,-4,-2,-1,-1,-1,-1,-2,-1
59483291450,-2,-2,-1,-2,0,-2,0,1
59483291450,2,2,-3,-3,1,-1,-2,1
59483292984,-1,-1,-1,-1,0,-1,-1,0
59483292984,-7,-4,-3,-3,0,-2,-3,-2
59483314177,-6,-22,-1,-2,0,2,-4,-1
59483314177,-3,0,-2,-1,-2,-1,-1,-3
59483315539,3,2,-1,-2,-2,-2,-1,-1
59483315539,-1,-1,1,-1,0,-1,-1,0
59483327763,0,1,-3,0,-1,-2,-1,1
59483327763,-1,-1,0,-2,-1,-1,-2,-3
59483336571,1,-2,-1,-2,0,-1,-1,-2
59483336571,2,-1,-2,-2,-1,1,0,-1
59483351560,1,5,-2,-1,-3,-1,-2,0
59483351560,1,-3,0,0,-2,-1,1,-2
59483353042,-1,1,1,-2,-3,-2,-4,-2
59483353042,1,0,0,-2,-2,0,-1,-3
59483373921,-1,4,-1,-1,0,-2,-3,0
59483373921,-1,-3,0,0,-2,1,-3,-2
59483375487,-2,-1,-2,-2,0,-1,-2,-1
59483375487,0,-1,-2,0,1,0,-1,1
59483387509,0,-2,-1,-2,0,-2,-1,0
59483387509,-1,2,-2,-2,-2,-3,-1,-1
59483396524,-1,-2,-2,0,-1,-1,0,-2
59483396524,-4,-17,-1,-2,1,-1,-2,-2
59483411359,-1,3,-1,-1,-1,-1,-1,-2
59483411359,1,0,-1,0,-1,0,-2,-1
59483412977,-4,-3,0,-1,-2,-2,-1,0
59483412977,4,5,-2,0,-1,-2,-1,-1
59483433952,1,-2,-3,-2,-2,-1,0,-1
59483433952,-2,-2,-2,-1,-1,-1,-1,-2
59483435481,2,1,-1,-1,0,0,-1,-2
59483435481,-1,0,-2,-1,-3,-1,-1,-1
59483447717,-4,-2,-2,-1,1,0,-1,0
59483447717,-1,2,-4,-3,-1,-1,0,0
59483456633,-3,-3,-1,-1,-1,-2,0,-1
59483456633,-1,2,2,-2,-2,-2,0,-1
59483471577,-2,-2,-2,-2,0,1,-3,6
59483471577,-5,-1,-2,-3,-1,-2,-1,-9
59483473049,0,2,1,0,0,-1,2,-1
59483473049,-1,0,0,-2,0,-1,-2,-2
59483494132,-1,0,2,0,-4,-1,-1,-2
59483494132,-3,-4,-1,-2,0,-4,-3,2
59483495512,1,1,-2,0,0,0,-1,0
59483495512,-1,1,0,0,-1,0,1,-1
59483507808,1,2,-2,0,0,-3,-2,-4
59483507808,6,1,-1,0,0,-2,0,0
59483516568,-2,-3,-2,-2,-1,-1,-2,-1
59483516568,0,0,-3,-1,-2,-1,-1,2
59483531656,0,-2,-2,-1,0,-2,-3,-3
59483531656,0,-1,-1,-1,0,0,-1,3
59483533074,-1,-2,-2,-2,-1,-1,-4,0
59483533074,2,2,1,-1,-3,0,-1,-1
59483554137,0,-1,-1,-3,1,0,-1,-3
59483554137,-1,0,1,0,0,0,-1,-1
59483555549,2,-2,0,-1,-2,1,-1,0
59483555549,-1,-2,-2,0,-1,0,-2,-2
59483567830,2,3,0,0,-2,0,0,0
59483567830,-8,-14,0,0,1,-2,-1,2
59483576582,-2,0,0,-1,-1,0,-2,-2
59483576582,0,0,-1,-2,0,-4,0,-2
59483591575,-1,0,0,-2,-2,0,-2,1
59483591575,-2,0,-6,-2,-1,0,-2,-4
59483593044,-3,-1,0,-2,-1,-1,0,-3
59483593044,-3,-5,-1,1,-1,-1,0,-4
59483614084,-6,-3,-1,-3,0,-1,-1,0
59483614084,2,1,0,-2,-1,0,-2,1
59483615578,0,-3,-3,-1,-2,0,-1,6
59483615578,1,1,0,1,-1,0,-1,0
59483627545,-3,-3,-1,0,-1,-1,0,-1
59483627545,-3,4,-2,-2,-1,-1,-3,-2
59483636567,0,0,0,0,0,0,-1,1
59483636567,-1,1,-1,-1,-1,0,0,-1
59483651437,0,-1,-2,1,-2,-1,0,-2
59483651437,2,1,-1,-1,-1,1,-1,0
59483652956,-1,-1,0,-2,-1,-1,-2,-4
59483652956,-4,-3,2,-3,-2,-1,-1,-2
59483673967,-1,0,0,-1,-1,-4,-1,-2
59483673967,4,5,0,-3,-1,0,-1,1
59483675467,-3,-3,-3,-2,-2,-2,-2,-1
59483675467,-2,0,-3,0,0,-2,-2,-1
