timestamp,emg1,emg2,emg3,emg4,emg5,emg6,emg7,emg8
83230941267,-2,-6,-2,-1,-2,-2,-2,0
83230941267,1,-1,-2,-1,2,0,-3,-2
83230942933,-2,-7,1,2,-1,-1,-2,0
83230942933,0,0,0,0,0,-1,-2,0
83230955637,2,2,-2,-2,-2,-2,0,1
83230955637,1,-3,-3,-1,-2,-1,0,-1
83230962400,-1,-3,-3,4,0,0,-2,-2
83230962400,0,2,0,-2,-1,0,-2,3
83230978759,0,1,0,-1,0,-1,-1,-1
83230978759,-2,-1,-1,-1,-3,-1,0,-5
83230980441,-1,-5,-2,-4,-2,-2,-2,0
83230980441,2,2,-2,-1,-1,-1,-1,-2
83231001297,0,-2,-3,-1,-1,1,0,1
83231001297,-1,-1,-1,1,-2,-1,-2,-1
83231002945,-1,-2,-1,-9,-4,-1,-1,-1
83231002945,-2,0,-1,6,-2,-2,0,-2
83231015576,-2,-3,-2,-12,-1,-1,-3,0
83231015576,0,-1,-1,5,0,0,0,2
83231022421,-1,-1,-1,-5,1,1,1,1
83231022421,-8,-1,-1,-1,-1,-1,-3,-7
83231038760,-3,-2,2,6,0,-2,-1,-2
83231038760,0,-1,-4,3,-3,-1,-1,-2
83231040443,-3,-1,-2,-14,-1,-2,-1,-2
83231040443,-1,10,-2,-2,-3,1,0,-2
83231061244,-2,0,-2,-2,-1,-5,-3,1
83231061244,-2,-3,1,-3,1,-2,-3,-1
83231062876,1,-3,-1,7,1,0,-1,-3
83231062876,2,1,-1,-12,2,-1,1,2
83231074939,-1,-1,-1,0,-2,0,0,0
83231074939,1,-1,-2,-6,-5,-2,-1,1
83231083923,-1,1,-1,4,-2,-3,-2,-3
83231083923,-1,-3,-1,2,-1,0,-1,2
83231098754,-1,-1,1,5,1,-2,0,2
83231098754,-6,-3,-1,-8,3,-1,-1,-3
83231100322,3,-1,-1,0,-2,1,-1,3
83231100322,0,-5,-4,1,-4,-2,-3,-6
83231121285,2,-2,-4,-1,-1,-11,2,-3
83231121285,-12,-10,-2,-2,1,8,0,0
83231122874,-8,0,2,5,-1,-4,-2,2
83231122874,0,-2,-1,0,2,0,-2,-7
83231134966,-6,-13,-3,-7,-2,16,9,-3
83231134966,2,1,0,-2,-3,-14,-9,0
83231143915,2,-2,2,2,1,-3,-3,-6
83231143915,0,-7,-2,4,0,-2,-2,4
83231158797,-3,4,-2,-1,-2,-3,-1,-3
83231158797,5,7,0,-3,0,17,3,-3
83231160380,1,-4,-2,4,-2,-23,-4,2
83231160380,0,6,3,4,3,4,-1,1
83231181302,1,0,-4,-16,-8,-5,-4,-3
83231181302,-1,-2,-2,1,-2,4,4,-4
83231182902,-1,0,0,2,0,6,-1,8
83231182902,0,-3,-1,-1,0,1,1,5
83231194904,1,0,0,5,-1,-15,-6,-2
83231194904,-6,-26,-2,1,-3,7,-1,3
83231203997,0,-3,-3,-2,1,2,1,9
83231203997,-4,-2,-3,0,1,-9,-3,-10
83231218770,-4,2,2,-5,-1,4,-4,9
83231218770,9,10,0,1,-1,-10,2,-12
83231220407,10,4,-4,0,-4,11,-1,7
83231220407,-1,-7,-4,-2,-3,-1,11,9
83231241295,-8,-5,0,6,3,-1,-6,-7
83231241295,10,10,5,1,3,-7,-9,14
83231242910,-6,-5,-1,-2,1,1,-7,-9
83231242910,8,3,-1,-5,-6,3,17,-5
83231254896,3,1,1,-1,-3,1,-1,6
83231254896,-10,-14,-7,-4,1,21,7,-3
83231263950,5,-3,-3,-4,-3,-29,-5,19
83231263950,1,6,2,3,-1,-9,-13,-15
83231278781,0,-2,0,5,5,11,0,0
83231278781,-3,3,-2,-3,-5,-10,4,-10
83231280416,-8,0,-1,2,0,10,1,7
83231280416,-14,-4,0,-6,-1,-1,-5,-2
83231301268,7,3,-1,-1,2,5,0,0
83231301268,1,2,0,3,-2,-14,-13,-6
83231302842,-10,-1,2,-7,-12,-12,12,-13
83231302842,1,-12,-1,0,4,16,1,-8
83231314932,-6,-8,-1,3,3,15,-3,1
83231314932,-2,11,-3,-8,-12,-61,-17,-34
83231323927,1,-21,-1,-1,1,-7,4,48
83231323927,0,4,1,1,2,14,-5,6
83231338136,8,-12,-1,-2,-4,20,-4,-2
83231338136,0,-1,-3,6,6,10,13,0
83231344928,-4,8,2,-1,-4,-3,-6,-25
83231344928,-8,0,-5,-10,-6,4,-2,-42
83231361364,34,11,3,4,2,-10,14,19
83231361364,-17,1,6,-1,-10,7,0,6
83231362898,5,1,-6,-5,-3,-22,1,-23
83231362898,-23,-16,0,4,2,1,-14,20
83231374916,2,5,1,-1,6,-3,-9,-22
83231374916,1,-2,-1,0,-2,-18,-2,13
83231383912,5,6,-4,-1,-3,23,-2,-19
83231383912,1,-22,2,0,4,-3,16,16
83231398109,6,8,-4,3,0,-7,12,12
83231398109,8,-7,1,-1,4,11,-24,-6
83231404899,-12,-5,0,-5,-9,0,24,15
83231404899,31,24,2,2,2,8,-9,-46
83231421268,-32,-16,-6,-6,-18,-74,-15,65
83231421268,12,3,1,3,18,58,25,-13
83231422887,-9,9,2,5,17,37,12,-9
83231422887,-8,-3,-3,-3,-3,-18,-5,0
83231435017,-15,5,-4,3,-2,-3,-8,-33
83231435017,12,-27,-14,-21,-24,-37,-23,-2
83231443937,-1,0,6,5,1,10,4,-2
83231443937,12,-1,-9,1,3,20,9,28
83231458111,-11,-5,-3,-3,-3,-11,7,-12
83231458111,14,12,2,-3,-13,32,6,8
83231464913,7,-4,-4,1,13,-48,-18,-14
83231464913,6,-2,-2,-7,-9,-10,-28,3
83231481272,-22,-6,-9,-7,0,2,2,-50
83231481272,9,3,15,13,18,33,33,72
83231482858,-6,-5,-7,-11,-15,6,-11,-17
83231482858,23,13,1,-2,-10,-31,-12,11
83231494890,-7,-1,-2,0,-8,0,29,-9
83231494890,6,14,0,-2,4,2,-1,-19
83231511435,-11,-1,-5,-6,0,41,-18,-10
83231511435,2,-4,3,15,26,-24,4,30
83231518135,10,-3,5,4,-6,21,-6,5
83231518135,-28,-3,4,6,-1,-46,0,-10
83231524985,3,-6,-12,-9,-14,-3,6,5
83231524985,-22,-1,-9,-14,-15,-5,-6,-23
83231541299,7,3,-3,4,-3,10,-8,-1
83231541299,-12,5,5,33,9,-9,-5,-6
83231542907,7,-1,-1,-28,-1,8,1,4
83231542907,5,2,3,1,-6,10,4,-1
83231563755,-7,-2,-16,-34,-16,-23,-10,-3
83231563755,-13,-6,-6,19,2,-4,-34,-6
83231565385,3,-1,5,1,-1,6,18,4
83231565385,-5,1,-3,1,1,10,16,5
83231578089,8,-3,9,0,9,-8,-20,7
83231578089,-37,-1,-3,-19,-18,-18,-2,-19
83231584947,-2,-7,-6,10,12,6,0,-3
83231584947,2,-13,-5,6,-14,5,-10,-23
83231601247,1,4,-4,-5,8,-18,13,26
83231601247,17,3,-7,-20,-7,12,6,8
83231602914,-6,3,5,25,8,-11,-6,-7
83231602914,-9,-2,7,-15,-7,-5,-2,3
83231623785,2,3,2,7,-1,5,-23,-41
83231623785,-1,3,-7,10,10,-3,14,11
83231625385,24,6,0,-2,-5,7,-4,6
83231625385,4,4,-3,-5,5,-2,2,3
83231638107,-3,1,7,1,-1,7,-7,-10
83231638107,0,-22,1,-9,-7,-22,-8,6
83231644925,-13,-6,-10,6,-17,12,13,-1
83231644925,-32,8,6,-6,4,-5,-7,-4
83231661256,1,0,2,2,-3,13,2,2
83231661256,-8,-8,8,19,12,1,-6,-13
83231662851,13,-8,-5,-19,-18,-3,9,8
83231662851,11,-6,4,8,16,-14,4,16
83231683818,-4,-6,-1,-2,-8,28,4,41
83231683818,-6,1,-9,-16,5,0,-19,-11
83231685379,-1,1,8,-6,-12,-17,1,2
83231685379,-15,2,-1,-1,10,6,10,38
83231697447,0,12,11,12,4,13,3,-29
83231697447,-7,-3,-3,-7,-5,-8,2,-21
83231706404,10,5,-2,8,16,0,-16,49
83231706404,5,5,-12,17,-1,-13,-1,-17
83231721249,-1,-22,-27,-5,-1,1,6,8
83231721249,0,0,-28,-9,-3,29,-2,-24
83231722873,-31,-30,-18,-3,-6,-16,7,-33
83231722873,39,6,-6,8,1,-11,6,66
83231743764,-7,4,12,14,16,8,-5,9
83231743764,6,10,5,-19,-54,19,-3,17
83231745402,-32,2,3,-47,-2,-34,-2,-14
83231745402,13,-11,-2,-5,-7,16,7,-2
83231757414,-6,-3,-4,-4,-1,-17,3,-45
83231757414,-8,-1,3,20,29,-3,3,-21
83231766392,20,19,15,-12,-8,0,-1,55
83231766392,-19,-9,9,34,8,-7,-24,-100
83231781269,17,0,15,1,1,4,20,27
83231781269,-19,6,11,-8,8,1,3,-30
83231782893,26,12,12,6,-13,-9,-5,-2
83231782893,-20,1,12,-20,-12,4,-9,-39
83231803717,38,-24,10,6,-6,-26,-34,24
83231803717,31,14,27,-7,0,-6,7,10
83231805346,-6,-8,18,29,24,30,3,1
83231805346,3,12,21,-14,-6,0,15,-16
83231817411,-15,-7,4,-12,-7,3,-1,4
83231817411,-68,3,4,14,-14,-7,-9,-23
83231826422,62,-2,-47,27,0,-27,-17,28
83231826422,19,-5,-65,-33,-11,4,-12,-20
83231841289,-18,7,-44,0,10,38,59,-10
83231841289,8,-11,-21,-18,-8,-31,-12,6
83231842924,-51,1,12,8,0,5,-2,-12
83231842924,36,-5,-1,5,-15,3,-6,-8
83231863760,22,-13,-3,0,11,-4,-14,49
83231863760,-61,0,11,-20,9,14,-50,-63
83231865390,25,12,15,8,-4,1,53,-17
83231865390,-13,6,15,-15,-6,-23,-18,31
83231877432,-28,11,26,8,7,22,35,-40
83231877432,36,7,8,9,8,-3,2,-18
83231886346,6,-9,8,3,2,-2,19,17
83231886346,-80,-19,-4,-19,-10,-7,-13,-117
83231901293,5,2,2,20,-9,-17,-22,17
83231901293,4,-4,-6,21,10,11,5,-19
83231902911,-40,11,-8,-37,-9,-35,-37,-38
83231902911,5,-2,8,11,5,24,21,22
83231923786,34,21,0,-4,1,-17,-51,-12
83231923786,11,-3,-27,-8,3,19,35,25
83231925377,-6,0,-10,20,4,-10,-48,-25
83231925377,18,-5,3,8,13,14,16,50
83231938834,-4,14,-6,-32,-21,-13,-39,-18
83231938834,-9,-17,-2,3,4,-12,1,-34
83231946526,9,-4,1,3,5,16,7,-12
83231946526,27,9,5,19,9,-5,1,13
83231961257,-86,0,-3,-11,-3,-10,-46,-120
83231961257,64,-20,-10,-10,-8,-10,55,97
83231962819,20,-2,-1,-1,0,-7,17,-17
83231962819,-1,-24,-6,-8,8,46,13,32
83231983781,8,12,8,4,3,-6,50,47
83231983781,66,-12,-4,-10,-11,-5,-19,-51
83231985412,-29,15,5,-3,-1,2,-15,25
83231985412,-103,-10,0,-6,-14,-38,-75,-61
83231997411,34,3,-1,-2,-2,16,48,86
83231997411,-7,3,-3,10,5,-13,-36,3
83232006422,32,15,1,-19,-7,15,16,76
83232006422,72,-5,-11,-9,-7,-5,1,83
83232021299,-47,0,-3,3,-3,-7,-20,-41
83232021299,-21,-7,0,-6,-4,-9,-23,-2
83232022902,-82,-6,9,4,1,7,-42,-112
83232022902,-28,6,6,-2,-7,1,55,-21
83232043737,27,-1,3,-8,-2,4,27,86
83232043737,12,-7,0,2,4,13,13,7
83232045349,15,1,-3,-11,-8,-1,-37,-120
83232045349,-15,14,4,7,1,-9,-30,17
83232057432,-55,-5,0,-8,-15,-18,60,58
83232057432,19,12,2,-1,5,6,-27,95
83232066406,-13,-11,-5,2,6,6,5,-62
83232066406,100,15,-9,1,-4,0,32,49
83232081305,28,-6,-17,5,-3,8,-19,0
83232081305,16,0,-16,-4,-3,-2,42,22
83232082906,-21,-12,-13,9,6,-5,19,-32
83232082906,-19,5,-12,2,0,-4,-31,17
83232103762,8,-8,-15,14,6,-1,15,-59
83232103762,4,12,-14,5,-3,-6,-15,9
83232105388,15,-7,-14,10,17,12,42,26
83232105388,34,-9,-11,8,9,-9,37,48
83232117440,51,-13,-11,-2,4,9,-12,5
83232117440,-33,6,15,7,3,-8,-34,-47
83232126455,61,-31,2,0,-5,7,11,70
83232126455,-1,6,17,13,10,-23,61,52
83232141263,-31,-6,21,12,30,23,-16,-108
83232141263,-41,-1,32,-3,2,-4,-64,-25
83232142863,80,-11,16,5,6,10,12,74
83232142863,-31,-6,-4,-6,0,9,-3,-125
83232163784,35,2,-15,-12,-14,-21,-31,42
83232163784,7,-10,-23,-7,-4,0,50,-68
83232165391,-101,24,-1,-2,1,11,39,43
83232165391,23,-9,-9,-2,-5,-4,-37,6
83232177383,-31,-3,-7,-1,-2,1,24,37
83232177383,25,5,1,6,-10,-10,7,-57
83232186468,24,8,-2,-4,-9,-17,-55,98
83232186468,-7,-1,-16,-14,3,6,46,-22
83232200617,-36,4,-33,-3,3,18,-23,-84
83232200617,3,4,-60,5,2,5,44,-42
83232207388,29,13,-34,-6,-7,-10,-16,-20
83232207388,-86,6,-6,-5,-8,-12,-111,-128
83232223782,65,5,-10,-4,-10,-21,-49,-59
83232223782,-62,-13,-6,-10,-5,-6,-59,-104
83232225382,-51,-3,32,-1,-1,7,-10,-119
83232225382,47,9,38,0,-4,-11,-3,82
83232237437,19,-2,17,-5,-5,2,41,5
83232237437,7,-9,5,-3,-2,4,-9,89
83232246396,-26,-5,-1,-8,-5,0,-40,-92
83232246396,6,-17,4,-12,-10,1,19,74
83232260646,-48,-15,28,7,8,-19,-28,-36
83232260646,81,10,22,-1,0,14,45,127
83232267446,-9,-4,27,-7,1,-3,-13,-33
83232267446,0,-2,13,-1,-6,6,-42,-22
83232283789,-3,-3,-8,-7,-13,-4,6,12
83232283789,-23,2,-10,-1,-1,7,13,-54
83232285419,-3,9,-33,0,13,8,25,72
83232285419,7,-11,-25,1,-4,-1,2,-20
83232297424,-32,-11,-18,-7,-3,4,43,-94
83232297424,-27,5,12,-10,-13,-17,15,-10
83232306454,-11,-10,12,3,0,10,-19,-49
83232306454,70,11,21,6,2,1,27,23
83232320609,1,11,15,4,16,-13,-37,-5
83232320609,11,5,22,4,-1,14,12,67
83232327443,22,7,0,0,-5,-2,34,11
83232327443,-32,-5,4,-8,-7,-16,-34,-40
83232343764,27,-9,16,-2,-3,9,0,0
83232343764,-8,0,5,-3,-2,-13,-1,-69
83232345401,-9,-5,10,8,12,16,-4,-41
83232345401,-13,-3,-6,-1,-2,9,10,-15
83232357414,-9,6,11,0,-3,-3,-16,0
83232357414,-8,-3,2,-4,-4,-13,-6,10
83232366383,2,-3,2,-2,-12,-23,6,-23
83232366383,0,6,0,2,7,23,24,9
83232380585,8,-25,-4,-7,-3,5,-3,5
83232380585,-14,-5,2,2,7,-13,3,-23
83232387451,-7,-11,-20,-10,-5,-2,-6,-21
83232387451,-15,-4,-6,-4,-12,-38,-11,-30
83232403793,-2,4,-6,4,6,27,-13,1
83232403793,-22,-8,-5,-7,4,23,19,33
83232405404,14,-9,4,4,3,2,-5,10
83232405404,-31,-20,-11,2,0,-10,6,-22
83232426315,8,24,-4,-1,-12,-9,-10,27
83232426315,-3,-4,0,-3,-3,-26,-18,-16
83232427893,5,3,-8,9,7,22,25,14
83232427893,2,5,4,4,2,13,3,-18
83232440587,-1,-2,6,-20,-12,-8,-3,-18
83232440587,4,0,0,2,2,11,-6,-12
83232447420,-2,-11,-5,-29,-10,-10,-14,-8
83232447420,-6,6,4,41,20,-9,-9,-8
83232463742,14,-3,-12,-46,-21,-3,8,-1
83232463742,-9,6,-1,16,9,19,6,-62
83232465343,19,-16,-14,-17,-12,-42,-25,-17
83232465343,-10,6,-4,5,-7,25,9,-3
83232486309,4,0,-2,23,13,-2,6,-2
83232486309,0,-5,-1,-24,-6,12,3,-7
83232487853,-23,-7,-5,13,1,4,-8,-58
83232487853,-5,10,-14,-33,-7,-10,-7,-1
83232500434,-7,-3,-2,22,-7,-19,-8,-4
83232500434,10,-1,0,11,5,19,9,20
83232508915,-4,22,3,23,6,-7,2,4
83232508915,-7,4,2,-1,-2,2,-3,-12
83232523752,-19,-1,3,11,0,-4,3,6
83232523752,5,4,-2,-1,-2,-10,-17,-14
83232525390,3,7,3,5,1,-5,3,31
83232525390,-10,-6,-2,-30,-4,19,12,-7
83232546294,-1,-2,0,3,7,-6,-3,19
83232546294,-6,-2,7,6,1,-20,0,19
83232547942,-12,7,-1,-21,-5,5,-8,-65
83232547942,24,0,10,28,3,-1,9,38
83232559944,-8,-6,1,14,-2,2,5,-14
83232559944,-4,1,0,29,4,-4,-4,7
83232568886,5,3,5,-41,-9,-8,4,13
83232568886,-8,-7,-4,-39,5,12,5,-24
83232583759,2,8,-1,-9,14,-2,-3,-6
83232583759,17,7,-3,-2,-10,0,10,47
83232585422,12,-9,-1,8,6,6,1,21
83232585422,5,-6,-11,-8,-8,-14,-3,-10
83232606270,6,-1,-14,13,2,24,4,2
83232606270,-5,-4,-7,-27,1,-22,-14,-19
83232607854,-2,4,-8,6,-5,-1,-3,5
83232607854,-12,15,-4,4,4,2,-4,-9
83232619912,17,-9,4,8,0,5,3,-9
83232619912,-27,-27,-15,-25,-15,-1,-15,-17
83232628950,6,0,-4,0,0,1,4,22
83232628950,21,-2,-4,15,-13,-7,-10,-1
83232643809,-17,4,3,17,-3,-5,-6,0
83232643809,5,12,-4,-81,-8,-3,3,-4
83232645373,1,1,0,21,5,-8,5,33
83232645373,29,5,18,-1,5,17,-2,-7
83232666265,9,-3,-14,23,-6,-4,-1,-19
83232666265,-7,-2,-3,-9,-5,-4,-1,26
83232667850,15,8,6,12,-4,-6,-2,45
83232667850,-13,-1,21,28,13,2,4,-4
83232679933,-16,-2,-18,-16,-3,-5,0,-1
83232679933,-6,-3,5,39,4,10,0,-21
83232688911,-10,-6,-13,-1,4,-4,-5,-14
83232688911,-12,0,0,8,8,-6,1,5
83232703783,-5,-5,-5,-21,-24,-8,-5,4
83232703783,28,-3,-8,7,-14,-5,-2,4
83232705405,-19,11,-6,18,-7,2,-3,-4
83232705405,-9,1,-12,-19,-10,-9,-1,-18
83232726295,11,5,4,5,10,0,2,2
83232726295,7,-6,14,85,21,8,-2,-6
83232727904,-1,-4,-8,-5,-12,1,-1,-7
83232727904,-26,1,7,56,6,-3,6,-5
83232739961,-25,8,26,62,-2,-4,-10,-5
83232739961,0,4,-9,-98,-12,4,3,5
83232748924,-2,-2,-2,22,7,-9,-7,-6
83232748924,-23,-18,-33,-59,-6,0,-3,-2
83232763781,3,9,0,-26,0,1,3,4
83232763781,11,1,11,35,11,-2,-6,-7
83232765357,7,-17,5,-21,-5,4,0,-16
83232765357,-2,5,-3,-20,-9,-4,-6,-8
83232786288,0,-2,-4,7,16,11,12,5
83232786288,-41,0,-13,-20,-3,-4,0,48
83232787872,7,-1,-11,-12,-4,-3,0,-1
83232787872,7,-11,-17,5,-12,-9,-4,-9
83232799975,-5,18,-3,0,-7,-5,-6,2
83232799975,-6,1,-3,28,2,-19,-9,-15
83232808917,9,7,10,-42,5,15,9,2
83232808917,1,0,2,21,1,3,1,11
83232823762,4,-5,9,-41,-10,-5,-9,-25
83232823762,-1,-25,-2,-17,-5,-1,3,-9
83232825380,-3,2,-6,19,0,5,-3,-8
83232825380,7,4,5,-17,-3,4,6,-3
83232846290,-2,-21,3,9,10,3,5,-5
83232846290,-2,0,0,-8,-12,14,-1,-24
83232847906,-25,-14,-9,-17,-2,-31,-10,-27
83232847906,2,-1,3,-2,2,8,6,12
83232859922,11,7,3,38,-5,1,1,22
83232859922,-9,-7,1,-41,-4,-15,-3,-27
83232868951,-7,0,3,-9,1,18,-7,-15
83232868951,22,4,2,-16,-14,-25,-17,12
83232883784,-29,-17,-11,-23,-1,3,7,-2
83232883784,3,9,5,47,13,11,3,-46
83232885391,-34,-9,-1,-58,-1,6,7,30
83232885391,25,14,-16,-7,2,6,2,1
83232906234,-1,-15,0,-25,-16,-24,-25,42
83232906234,-2,2,-21,14,6,12,4,23
83232907830,-28,-2,11,27,-7,-24,-28,-48
83232907830,-2,-20,0,16,10,-4,13,60
83232919927,10,3,-3,-24,-4,6,2,-90
83232919927,5,-12,10,13,-3,-23,6,41
83232928899,16,-18,-24,2,-1,21,-3,-7
83232928899,-1,-8,1,-2,-6,-8,16,36
83232943780,4,-1,4,6,20,5,4,-34
83232943780,15,-2,0,-4,-2,19,2,-64
83232945414,-78,-6,-10,20,1,-7,-26,-82
83232945414,48,12,13,4,-6,31,20,25
83232966227,-13,-33,-30,-18,-4,-33,-16,-43
83232966227,9,3,1,5,-8,-6,9,15
83232967821,-5,2,-12,9,14,-7,-6,-55
83232967821,-1,-4,-10,3,-1,12,-18,-71
83232979950,25,18,32,18,9,12,49,91
83232979950,-13,3,-14,-22,-14,-2,-36,-18
83232988884,12,-19,-7,14,-11,-42,37,16
83232988884,-31,-3,-4,4,-7,4,-6,0
83233003772,-8,6,6,0,22,25,-8,-11
83233003772,24,13,-9,-5,-8,0,-22,14
83233005385,-2,-6,24,9,4,21,29,81
83233005385,-7,0,2,5,11,-21,-21,-28
83233026276,-25,1,22,-4,-12,-17,-16,-85
83233026276,-25,-16,-5,3,8,1,-8,-16
83233027886,-23,11,5,-3,0,17,18,-58
83233027886,-20,20,13,13,9,-19,-42,-39
83233039911,-8,-5,1,8,-3,-7,30,-37
83233039911,-26,-6,-22,-29,-16,-1,60,24
83233048986,91,5,6,4,-8,-2,-16,72
83233048986,-27,-15,-9,-12,-1,7,26,-2
83233063756,-15,10,-10,-8,8,6,-6,75
83233063756,-17,-1,27,7,-4,-17,-11,-49
83233065335,-16,-17,12,-3,-23,-1,-45,-32
83233065335,-14,1,-3,-8,14,-4,19,-76
83233086226,33,26,-9,-10,-14,-18,-46,2
83233086226,31,11,6,9,33,26,25,-2
83233087872,7,-13,10,18,6,14,-27,26
83233087872,11,-20,-6,-8,-21,-15,-38,-57
83233099946,-75,-7,11,-5,-14,-7,2,-42
83233099946,-27,-11,2,-7,-18,-5,1,-3
83233108934,27,28,21,1,11,-12,-4,26
83233108934,9,1,8,7,12,-4,-6,-23
83233123785,-56,-15,-3,8,-17,-4,-52,-112
83233123785,66,-14,-3,-9,-21,-9,-15,106
83233125392,-12,9,3,2,28,10,36,-25
83233125392,-30,8,5,4,4,37,16,29
83233146221,78,5,-22,-12,0,1,20,66
83233146221,48,15,-10,-6,-18,-23,-71,-112
83233147858,2,20,2,3,-20,1,58,-7
83233147858,10,3,-22,9,22,-12,-19,-12
83233159935,11,-8,48,-11,-1,22,6,35
83233159935,-76,-14,41,10,-4,-27,-87,-48
83233168952,81,5,34,-30,-42,-29,-1,-69
83233168952,18,0,66,4,10,5,-7,87
83233183794,36,22,47,-1,-4,9,78,75
83233183794,-9,-2,71,19,48,30,24,15
83233189938,-86,-15,44,-3,-11,8,-50,-92
83233189938,10,-31,44,-14,-52,-33,-71,32
83233206267,39,-6,-2,19,48,15,18,24
83233206267,-9,13,-3,-7,2,22,24,9
83233207875,-59,-5,-34,-2,4,-8,-44,-27
83233207875,72,3,-8,-16,-35,4,52,22
83233219947,90,10,-112,2,1,-11,41,67
83233219947,-69,11,-121,-4,-19,-47,7,-66
83233228901,-5,4,-70,19,42,8,-39,26
83233228901,-45,7,-75,-10,5,18,8,-108
83233243108,-86,-9,-81,-4,-11,10,29,-101
83233243108,10,0,-114,13,15,12,49,58
83233257402,-26,22,-128,-11,-25,-45,-81,-22
83233257402,14,-7,-55,4,21,23,13,-52
83233266228,-86,-29,40,-12,-20,-26,-102,-110
83233266228,95,28,86,21,20,34,69,65
83233267861,42,-15,51,-4,1,9,40,28
83233267861,-75,-21,101,8,2,-11,-20,-49
83233279938,-101,-15,46,-24,-24,-10,-16,0
83233279938,-53,-24,85,2,-9,-26,-89,-6
83233288893,-14,0,1,-12,1,-11,-46,-54
83233288893,81,24,65,33,33,48,101,127
83233303097,127,30,53,-17,-10,-4,-54,78
83233303097,26,4,2,-6,-17,-18,-27,-50
83233309941,6,-32,-14,-14,-14,24,26,-6
83233309941,-113,-4,-30,-11,-16,-44,-53,-84
83233326352,54,-19,-32,0,8,-11,48,11
83233326352,30,12,23,9,20,54,58,-6
83233327910,34,0,19,8,10,10,32,17
83233327910,-3,-8,-36,-9,-7,7,24,-38
83233339930,-32,-5,35,17,19,11,-23,-60
83233339930,-19,-17,-19,-18,-22,-13,1,22
83233348935,-2,19,50,14,-5,-11,35,21
83233348935,53,-8,22,-15,-23,-36,-66,-41
83233363107,-21,21,3,15,24,44,95,62
83233363107,12,6,-19,6,9,-9,-9,3
83233369903,-20,-14,-1,-3,-2,6,-17,19
83233369903,-25,-3,-31,-1,-7,-17,-26,3
83233386251,-23,-4,23,0,-9,-7,-41,-21
83233386251,3,16,52,-2,2,14,30,-26
83233387839,41,17,20,9,7,-1,49,84
83233387839,-23,-1,9,-12,-2,5,43,27
83233399921,4,8,25,-1,-10,-10,-31,-11
83233399921,-7,-1,18,4,9,3,16,-7
83233408882,-15,-6,10,2,7,-2,-1,-12
83233408882,12,-1,-11,-8,-7,-10,-25,-25
83233423088,-11,-3,8,2,2,1,38,19
83233423088,-28,-6,-19,2,2,-8,-13,-18
83233429937,10,-1,-27,-8,-3,3,12,36
83233429937,-3,4,-23,1,-1,-8,-10,22
83233446086,18,-1,-10,-3,-4,-1,-7,19
83233446086,-35,-9,-21,-6,0,3,-7,-2
83233452443,-28,3,-9,-1,-13,-25,5,-16
83233452443,-10,-1,3,5,21,51,37,45
83233468771,-15,-12,-35,-1,-2,-15,-36,-13
83233468771,-51,-6,-7,-3,-13,11,-5,-41
83233470393,-10,-14,0,5,10,-20,13,5
83233470393,-12,-1,-10,4,0,0,-2,-9
83233482379,13,1,-3,-8,-8,-2,-2,16
83233482379,-14,-4,-6,-5,-1,7,-8,1
83233491413,24,6,0,-1,-3,6,-8,1
83233491413,-28,-5,-5,8,-1,-12,6,-4
83233506253,-12,-13,-3,-4,-1,2,-13,-37
83233506253,-15,-1,-22,-10,-5,-14,0,33
83233507873,-6,6,-12,4,6,14,-3,0
83233507873,29,5,-27,-3,-4,-14,-9,-7
83233528741,-17,0,-9,-1,-2,1,-13,-21
83233528741,38,-4,-8,-4,-13,-22,-13,-5
83233530360,23,1,21,2,14,25,-2,-1
83233530360,-19,15,-27,0,4,7,0,-58
83233542389,-17,-3,-2,1,-5,-6,8,-1
83233542389,14,-1,-14,-3,2,14,-6,-14
83233551405,19,-9,-15,0,-8,-27,2,58
83233551405,38,1,24,3,1,20,0,42
83233566256,18,-2,-5,-2,-6,-11,10,-2
83233566256,1,3,8,7,16,-4,-22,-16
83233567858,9,15,-16,-5,0,22,9,-14
83233567858,28,-1,13,-6,-13,-11,28,11
83233588804,7,4,12,0,6,-3,-12,14
83233588804,12,-4,3,-4,-6,17,-8,35
83233590356,-36,-16,-26,-5,-8,-28,-44,-119
83233590356,1,4,-18,4,2,-16,-16,-59
83233602469,-7,0,-4,-6,-6,7,-6,-36
83233602469,-15,-12,3,4,0,-7,17,-28
83233611386,-4,11,31,-1,0,3,14,17
83233611386,-24,-3,-5,-3,-5,11,-3,0
83233626310,-36,3,0,-5,-4,-27,-25,-7
83233626310,-14,7,20,2,-3,8,4,9
83233627931,-7,-6,-76,-3,-6,-13,-2,1
83233627931,-6,-8,-22,-3,-7,-8,-12,20
83233648740,8,4,93,-3,6,11,15,21
83233648740,-24,-7,127,-3,-1,-1,11,-2
83233650394,14,8,127,-3,1,22,2,27
83233650394,4,3,15,-7,-4,-9,-1,12
83233662496,-4,-6,-102,0,-8,5,-18,-17
83233662496,7,-8,-128,-4,-5,-27,-15,-4
83233671402,2,-8,-128,0,5,15,20,22
83233671402,-9,1,-111,-1,-4,1,-5,-2
83233686234,19,0,-128,4,8,14,-9,5
83233686234,7,1,-128,1,-4,-4,14,8
83233687845,-8,0,-97,0,-3,2,8,3
83233687845,1,10,-86,1,0,-11,4,9
83233708841,-1,-5,-125,-1,-3,3,-2,-8
83233708841,20,-7,-74,2,1,-14,3,17
83233710371,0,-1,-26,3,-2,-14,-9,-7
83233710371,2,-8,2,-1,7,27,1,14
83233722419,5,-2,46,2,-1,-20,6,34
83233722419,24,2,82,-4,-4,-8,-2,2
83233731400,10,7,82,-3,-7,24,9,-12
83233731400,47,4,83,0,0,-40,-4,51
83233746278,-28,-7,15,3,9,21,9,40
83233746278,24,-1,23,2,2,1,1,36
83233747856,-9,-4,45,-7,-7,-6,-4,1
83233747856,-6,10,62,1,3,9,7,-16
83233768785,15,-7,64,4,-8,-12,-10,-24
83233768785,-39,-4,99,0,-2,4,-1,-24
83233770406,14,1,83,-11,-1,-9,0,22
83233770406,-14,-9,93,-2,-1,0,-6,-16
83233782421,-8,4,78,13,-1,-6,-2,-21
83233782421,-6,3,56,5,-5,5,-8,-7
83233798920,-7,-8,-55,0,-5,-9,-2,-15
83233798920,-12,-9,-67,2,1,10,1,-10
83233806012,-5,-2,24,-29,-11,-17,-5,-17
83233806012,9,4,-57,-38,-9,1,-4,-1
83233812398,3,0,-36,-40,0,-8,3,-2
83233812398,-22,-2,-14,-9,-2,1,-3,-19
83233828774,8,2,-36,33,6,11,4,21
83233828774,-5,2,-33,-12,-2,-7,-5,-16
83233830358,-4,-18,-19,33,2,6,-3,-6
83233830358,-10,-5,-9,-10,1,-16,-3,-2
83233851291,-1,1,-7,-6,3,6,3,-10
83233851291,1,3,-6,-6,0,-3,-4,-7
83233852911,-7,-5,3,19,6,11,-1,-2
83233852911,1,-3,12,15,-1,5,-1,3
83233866295,-1,-8,-11,1,3,-3,-2,-9
83233866295,-5,-3,-1,-17,-7,-12,1,-5
83233867879,0,6,11,-2,-3,-1,-5,0
83233867879,-3,-1,4,1,-2,-1,0,-3
83233888740,-4,0,2,-1,0,-2,-1,-7
83233888740,-1,2,-8,20,5,4,0,-4
83233890359,-6,3,9,-32,-5,-1,-1,-6
83233890359,-3,-6,3,-7,-2,-7,-2,2
83233902408,-2,2,-8,-5,-1,-1,1,-4
83233902408,2,-1,-3,15,3,4,1,1
83233911389,0,0,2,10,0,-4,-3,-2
83233911389,-4,-1,1,-6,-1,-3,0,-6
83233926296,-1,-2,-2,5,-2,2,-1,4
83233926296,0,-2,-5,13,0,0,-1,-1
83233927897,-1,-14,1,-12,-2,-5,-3,-4
83233927897,-3,2,-1,0,-3,2,-1,-2
83233948784,-1,1,-2,-7,-2,0,-3,-8
83233948784,-2,-5,-3,-3,-1,-1,-4,-2
83233950390,-3,8,1,1,2,-1,-2,-1
83233950390,-1,-2,4,1,2,3,2,3
83233962446,-1,-5,-3,-8,-6,-5,0,-5
83233962446,-2,2,-3,2,2,-1,0,-2
83233971391,-1,4,2,9,0,-1,0,-1
83233971391,-4,-2,-1,2,-1,-4,-4,-2
83233987011,2,-1,-2,-7,-4,-4,-1,0
83233987011,0,1,1,4,-1,0,-1,0
83233992478,-3,-2,0,5,2,1,0,-1
83233992478,-2,-4,-1,-3,-2,-2,-2,0
83234008709,-3,-1,-2,-5,-1,-2,-2,-2
83234008709,-1,-1,-1,-1,0,0,-1,-1
83234010332,-2,-2,1,2,-1,-2,-1,-1
83234010332,-2,-1,1,-4,-2,-2,-2,0
83234022460,-1,-2,-3,0,-1,2,-1,-3
83234022460,-1,-2,-2,3,-2,-3,-2,-3
83234031396,-3,4,2,-1,-1,-2,-3,-3
83234031396,-2,-5,-4,-4,-2,-1,-2,-1
83234046230,-1,2,-1,0,-1,0,-2,-2
83234046230,0,-2,0,-1,-2,-2,-2,-1
83234047859,-3,0,-2,-4,1,1,0,-1
83234047859,-1,1,3,0,-2,-1,1,0
83234068790,-2,-2,-1,-3,-2,-4,-1,-3
83234068790,0,-1,1,2,-1,-1,1,1
83234070385,1,0,-1,0,-2,-2,-1,-1
83234070385,0,-2,-1,5,2,1,-1,-2
83234082393,-3,-2,-2,-6,-1,0,-1,-1
83234082393,-1,0,-2,-2,-1,-4,-1,-2
83234091360,-2,-3,0,5,-1,-2,1,-2
83234091360,0,-1,-3,-2,-2,-1,-2,1
83234105613,-1,-1,-2,-2,-1,-1,-1,-3
83234105613,-3,-3,-2,-4,1,-1,-2,-2
83234112434,0,2,2,-1,-3,-1,0,0
83234112434,0,-1,-3,-2,-2,-1,-2,1
83234128724,-3,1,1,1,-2,-2,-2,-4
83234128724,3,2,-4,-6,-3,0,-2,-2
83234130360,-11,-2,-4,-20,-4,-2,-1,5
83234130360,-4,3,12,5,0,0,0,-3
83234142420,1,-3,16,10,-4,-4,-1,-1
83234142420,-1,0,-13,-8,0,0,0,4
83234151441,-4,-3,1,5,1,0,-2,-7
83234151441,4,12,-19,-11,-6,-6,-2,2
83234173760,-2,-9,2,12,4,2,0,-3
83234173760,-1,-5,24,20,0,-1,0,-4
83234175360,8,-8,-9,0,5,3,1,-2
83234175360,19,11,5,-1,-4,-2,-1,1
83234188755,-15,-1,-11,-3,3,0,-2,-11
83234188755,0,-3,2,1,1,1,0,-1
83234190397,0,1,1,5,2,-1,0,-2
83234190397,4,-9,-1,2,1,-1,-1,-4
83234202412,-9,-4,-24,-22,-7,-2,-1,6
83234202412,-3,-4,1,2,2,2,-1,-11
83234211338,-1,-20,-1,2,-1,-1,-1,0
83234211338,-1,5,0,-4,-3,-2,-2,-3
83234225689,1,1,-3,-5,-3,0,0,4
83234225689,1,-4,-10,-3,1,-1,-1,7
83234232429,2,5,0,2,-5,-3,-2,1
83234232429,-9,-10,0,0,-1,0,0,-6
83234248794,2,-2,2,-1,1,-2,-1,0
83234248794,0,7,-31,-21,-6,-3,-4,-2
83234250432,-7,-4,5,5,5,1,-1,0
83234250432,-3,-6,2,1,-2,-1,-1,1
83234262387,3,2,3,0,2,3,0,-1
83234262387,1,4,5,-1,-4,-6,-1,-1
83234271423,1,4,-6,-5,-4,-3,-1,1
83234271423,-11,-4,0,3,2,-1,-1,-7
83234285607,8,-1,-3,-3,0,-3,1,13
83234285607,1,1,2,0,0,-1,-2,3
83234292385,-1,-3,2,7,1,2,-1,-5
83234292385,-13,-2,4,3,3,1,-1,3
83234308747,2,1,2,-1,-1,-2,-1,-2
83234308747,-8,1,1,-1,-1,-1,-1,-7
83234310354,-2,4,-1,-1,2,-1,1,7
83234310354,8,-3,-2,-10,-4,-1,-1,3
83234322429,-3,-2,-2,0,-1,-2,-2,-6
83234322429,-6,-6,1,3,1,0,1,1
83234331387,-7,7,-6,-7,-5,-2,-2,-7
83234331387,-3,-5,-3,2,2,1,1,-1
83234346283,-1,-1,5,4,0,0,-1,-3
83234346283,1,0,4,3,0,-1,-2,-2
83234347868,-1,-6,2,-5,-5,-1,-1,-3
83234347868,-1,0,1,-5,5,3,-1,1
83234368720,-2,-1,0,13,-2,-4,-2,-3
83234368720,-4,-6,-8,-13,-8,-1,-1,-1
83234370337,4,5,1,3,0,-3,-2,-1
83234370337,2,-3,-7,-3,-3,-2,-6,-4
83234391255,-8,-5,-5,-15,-9,-2,-2,-12
83234391255,0,-1,0,3,0,-1,0,1
83234392900,0,1,-6,-5,2,0,0,-2
83234392900,-24,-34,-1,2,-2,-2,-2,-5
83234405611,-5,-3,0,-5,2,1,1,-4
83234405611,5,-9,-6,-6,-4,-3,-2,15
83234413052,-15,-8,-4,-5,-3,-2,-4,-14
83234413052,18,11,1,-1,1,-1,2,-3
83234428097,-1,-2,0,2,2,1,0,2
83234428097,-5,-5,1,4,0,1,0,13
83234428886,7,8,2,-7,-4,-5,-3,7
83234428886,3,0,-3,2,2,1,-2,-2
83234450572,-4,1,-21,-8,0,1,-2,-5
83234450572,3,5,6,2,-1,-2,-3,-10
83234451357,-2,0,4,3,1,-2,1,0
83234451357,-1,2,-1,-3,-5,-2,-2,0
83234481319,7,-1,4,-1,-2,-3,-3,2
83234481319,-7,-4,2,4,3,0,0,-7
83234482043,4,-3,-3,-2,-4,-2,-1,2
83234482043,-7,-1,-4,-4,0,2,2,0
83234488026,0,1,5,2,1,1,-1,4
83234488026,3,2,1,0,-1,-1,0,0
83234488813,-2,-1,-1,0,-2,0,-2,-4
83234488813,2,8,-1,-1,-3,-2,-1,0
83234510549,8,-3,-5,-6,-1,-2,-1,2
83234510549,-2,-1,5,-2,-1,-2,1,-5
83234511389,-10,-2,0,-1,-2,-1,-1,1
83234511389,-2,1,2,1,0,-3,-2,-1
83234525558,1,0,-4,0,-1,-3,-2,7
83234525558,-4,0,-6,-1,-1,0,-1,-7
83234526359,3,-1,1,-3,-1,1,2,5
83234526359,1,0,-1,1,-1,-1,-2,-2
83234548052,-4,1,3,-2,-1,-3,-1,-2
83234548052,-1,0,0,1,3,1,1,-4
83234548844,2,0,1,0,0,-1,-1,1
83234548844,-3,-3,-3,1,-2,0,0,1
83234570597,4,2,1,-5,-1,-1,-1,-2
83234570597,-4,-2,-2,0,1,1,0,0
83234571338,2,-1,-4,1,-1,-1,-2,-3
83234571338,-1,4,0,-2,-1,1,1,1
83234585671,-2,-21,-2,2,1,0,0,0
83234585671,-1,-1,0,-1,-3,-3,-2,-1
83234586387,-9,-4,-3,1,-2,-2,-1,-4
83234586387,-2,2,-2,-6,-1,-1,-2,-1
83234608050,-2,4,1,0,-2,-2,-2,-3
83234608050,1,0,0,-1,-1,-1,0,2
83234608848,1,-2,-2,0,-2,-1,-2,-3
83234608848,-1,-3,-1,0,-1,0,-1,-1
83234630553,6,1,2,0,-1,0,0,-3
83234630553,-8,-3,-1,-2,-1,-1,0,2
83234631354,4,5,1,1,1,0,0,-1
83234631354,0,-2,-3,-2,-1,-4,-1,-5
83234645584,3,3,0,0,-2,-3,-1,5
83234645584,1,-1,0,0,-3,-2,-2,-3
83234646376,-5,-5,-3,-1,4,1,0,-1
83234646376,1,1,-6,-2,0,0,1,-1
83234668062,-4,-2,6,5,-2,-1,-3,-2
83234668062,-1,3,0,2,-3,-1,-3,-4
83234668876,1,-4,-2,-10,-1,-2,0,1
83234668876,0,13,1,-1,-1,-2,0,-2
83234690597,-4,-3,-5,-3,-1,-1,0,2
83234690597,-7,-5,-3,-1,-2,-1,0,2
83234691363,5,4,2,1,0,0,-1,-4
83234691363,0,4,1,1,0,-1,0,0
83234705584,-1,9,-1,-4,-2,-2,0,-1
83234705584,-2,-3,4,-3,0,-1,-2,-3
83234706361,-3,-6,-6,3,-2,-1,-1,0
83234706361,0,-6,-2,-6,-4,-2,-1,1
83234728088,2,6,0,5,1,0,-1,1
83234728088,2,-4,-5,-4,-1,0,0,-1
83234728875,7,4,1,-1,-2,-1,-3,-4
83234728875,-4,-5,1,-2,-2,0,-1,5
83234750564,-6,-5,-6,-2,-1,-1,-1,-4
83234750564,8,4,-1,0,-1,-2,-1,-2
83234751395,-10,-6,-1,-1,-3,-2,-2,-4
83234751395,-2,-5,1,2,-1,-2,-2,-1
83234764892,-5,-1,1,-4,-2,0,-1,-4
83234764892,7,-1,-2,0,2,0,-1,3
83234773071,-6,1,-1,-1,-1,-2,-1,-3
83234773071,-1,-6,0,-3,2,-1,-1,-2
83234788061,-7,-23,-3,-3,-1,-3,-3,0
83234788061,-3,0,-3,-1,-2,-1,-1,-4
83234788887,1,1,4,-1,-2,0,-1,-1
83234788887,0,-3,-4,1,1,0,-1,-1
83234810551,4,5,1,-1,-1,-1,0,-2
83234810551,-1,0,-4,-1,-1,0,0,-2
83234811332,1,-6,-1,-2,-1,-2,-1,2
83234811332,-3,0,0,0,-1,-1,1,0
83234825562,-3,1,2,2,1,0,-3,-1
83234825562,4,-4,-2,-3,-2,-1,0,0
83234826356,-3,8,1,1,0,-1,1,1
83234826356,-2,-2,-1,1,-1,-1,-1,-2
83234848078,3,1,-3,-4,-1,0,0,-2
83234848078,0,0,-2,-2,1,-1,1,-1
83234848851,6,-5,-1,1,1,0,0,-5
83234848851,5,-2,1,-2,-3,-2,0,2
83234870536,-9,0,-4,1,-1,0,1,-1
83234870536,-7,1,-1,-3,-3,-2,-2,-3
83234871312,-1,-6,-4,-3,-3,0,-1,2
83234871312,3,1,-2,1,-1,0,-2,-3
83234885549,-1,2,0,-3,-3,-2,-1,-4
83234885549,-1,-1,0,-2,-1,-1,0,-2
83234886345,-4,3,0,0,0,0,-1,1
83234886345,-6,-3,-1,-2,-3,-2,-3,-2
83234908065,2,1,0,-2,-1,-1,-1,2
83234908065,-4,-2,1,0,1,-2,-1,-3
83234908832,2,-1,-1,-2,-1,1,0,-1
83234908832,-2,-1,0,-1,-2,-3,-2,-3
83234930757,-1,0,-4,-1,0,-1,0,-2
83234930757,0,-1,1,1,-1,0,-3,-2
83234931376,1,-1,-3,-2,-2,-1,-1,-2
83234931376,-2,1,-2,-2,0,0,-2,0
83234945154,-4,2,1,-1,-1,-1,-3,-2
83234945154,1,-2,-3,-2,-2,-2,-4,1
83234953220,-1,0,2,2,1,-1,-1,-1
83234953220,-2,-2,-2,-2,-1,-2,-2,-5
83234968143,0,0,0,1,-2,-1,-1,-1
83234968143,-8,-5,-2,-3,-1,-1,-1,-1
83234968893,19,11,1,-1,0,-1,-2,-2
83234968893,0,-1,-3,-2,-2,-1,0,0
83234990867,0,-1,2,3,-1,0,-2,0
83234990867,-13,-4,1,-6,-5,-4,-3,-4
83234991483,0,4,-1,-1,0,-1,-1,-2
83234991483,-7,-6,0,-3,-1,-1,-3,-1
83235004961,0,-1,-4,-2,1,0,-1,-1
83235004961,4,7,-2,1,-1,1,0,0
83235013160,-6,-5,-2,-2,-3,-2,-3,-1
83235013160,-1,1,0,-1,0,-2,-1,0
83235028064,-4,-7,-3,-1,-1,-3,-1,-2
83235028064,1,2,0,0,0,-2,-2,-2
83235028811,-5,-4,-4,-1,-2,-1,-1,1
83235028811,0,-1,0,0,0,-2,1,-2
83235050544,1,6,1,0,-2,-1,-2,0
83235050544,2,-3,-3,1,0,-2,-1,2
83235051343,-3,-4,-2,-2,-1,0,0,-1
83235051343,0,-4,-4,-1,-2,-1,-2,0
83235064941,-1,-1,-1,-1,-1,1,-1,-2
83235064941,1,-1,-3,-4,-1,0,0,-2
83235073155,-5,-7,-2,1,2,1,-1,-2
83235073155,-1,0,-1,0,-2,-2,1,0
83235088299,-1,-1,-1,-2,-2,0,0,-1
83235088299,0,-3,0,-1,0,-1,-1,1
83235088904,1,3,-1,-3,-2,-3,-1,0
83235088904,0,-1,-1,2,0,0,-2,-3
