timestamp,emg1,emg2,emg3,emg4,emg5,emg6,emg7,emg8
83603862104,4,4,1,-1,0,-2,0,7
83603862104,-2,1,-1,-2,-1,-1,-1,3
83603862963,0,-19,-5,-4,-1,-2,-2,-13
83603862963,-7,13,3,1,1,-1,-1,4
83603884587,2,0,0,-1,-1,0,-1,1
83603884587,-2,-5,0,-1,-2,-1,-3,1
83603885377,2,0,0,-1,-1,-1,0,0
83603885377,-3,-9,-5,-1,-2,-1,-2,-4
83603898955,-13,-5,-2,0,0,-1,0,-5
83603898955,10,-11,-5,-10,-3,-2,-1,21
83603899721,-10,-1,-1,-1,0,1,0,-2
83603899721,-9,-12,-2,1,-1,-1,-2,-5
83603922108,3,6,3,-1,-1,1,-1,3
83603922108,-3,-1,0,2,0,-1,0,-7
83603922878,0,3,3,2,-2,0,-1,2
83603922878,-4,-1,-6,-4,-2,-1,0,-1
83603944578,8,-1,0,-4,-2,-2,-1,0
83603944578,-4,7,0,0,0,-1,-1,-2
83603945383,3,-3,-1,2,0,-1,0,-2
83603945383,-3,4,0,1,0,-1,0,5
83603958942,0,-10,-4,-4,-2,1,-1,-6
83603958942,-4,-3,1,2,0,-1,1,0
83603959719,-3,-3,-4,2,0,-1,-2,-6
83603959719,1,1,-2,-1,-2,-2,-4,4
83603982125,-1,7,5,3,0,-1,-1,-3
83603982125,-14,-29,-9,-10,-2,0,-3,-23
83603982856,11,1,1,6,0,-1,-1,13
83603982856,-2,-3,-1,-6,-1,0,1,-4
83604004605,-2,1,-1,2,-1,-1,0,1
83604004605,1,9,-1,-2,-2,0,-1,1
83604005360,-3,2,5,0,0,-3,-1,-1
83604005360,-8,3,0,-3,-1,-2,-2,-2
83604018860,-1,22,0,-1,-1,-2,-2,1
83604018860,6,-2,0,-1,-1,-1,0,2
83604019697,-1,2,-4,-5,-2,-1,-2,0
83604019697,3,3,1,2,0,-2,-1,1
83604042098,10,0,-4,-6,-2,-1,0,1
83604042098,-26,-9,-4,-1,-2,-2,-1,-8
83604042883,-3,-3,-5,-1,-2,-2,-2,-19
83604042883,7,-11,2,2,-1,0,-3,-1
83604064620,-13,0,-3,-4,0,0,-2,-2
83604064620,9,-28,-1,4,-1,-2,0,5
83604065338,-2,5,0,-3,0,-1,-2,7
83604065338,6,-5,0,0,-2,0,0,-4
83604078918,-6,-7,-3,-3,-2,-2,-2,-4
83604078918,0,14,-2,6,-2,0,-2,2
83604079754,-1,6,-2,-6,-2,0,0,-2
83604079754,-9,-3,-1,2,-2,-2,-1,5
83604102104,3,-4,-1,-6,-1,-2,-1,11
83604102104,6,11,1,0,0,0,-3,-9
83604102931,0,-7,-3,-2,-3,0,0,6
83604102931,0,4,-1,-1,-2,-1,-2,-9
83604124582,-2,-4,0,-1,-2,0,-3,-18
83604124582,-10,8,-1,-10,-2,-1,1,-1
83604125387,-1,-3,-2,5,-1,1,1,-1
83604125387,-5,-3,4,0,1,-1,0,-7
83604138930,8,9,0,-2,-4,-3,-2,7
83604138930,8,-6,1,-1,0,-1,-3,0
83604139689,-16,1,-4,-5,-3,0,-3,-2
83604139689,-9,-7,-5,-3,-1,-2,-2,-2
83604162044,-9,-9,-3,2,0,-2,-3,5
83604162044,-5,0,1,2,0,-1,-1,-4
83604162864,2,-7,-3,-6,-2,-2,0,11
83604162864,4,8,0,2,-1,0,-2,-3
83604184568,-10,3,-2,-1,0,-2,0,-6
83604184568,-23,-12,-8,-2,-3,-3,-2,-17
83604185354,17,17,7,6,2,-1,-1,-4
83604185354,-1,1,-4,-7,0,1,1,-1
83604198979,1,-2,0,3,-1,-2,-2,-4
83604198979,0,7,2,1,0,-1,0,4
83604199714,-1,-1,-1,0,0,-2,-1,0
83604199714,-5,-5,-1,0,-1,-1,-1,-10
83604222122,5,-6,-1,-3,-1,0,0,5
83604222122,-3,5,-2,-1,1,0,0,-3
83604222955,7,-6,-4,-2,-2,-2,-3,-4
83604222955,6,23,-1,-1,0,-3,-1,3
83604244625,-1,-1,1,3,-2,-1,1,1
83604244625,7,5,1,0,-2,1,-1,3
83604245387,-8,-6,-1,-2,-1,-1,0,-6
83604245387,0,1,0,1,-1,-2,-1,1
83604258944,2,0,-3,0,-2,-1,0,1
83604258944,-2,-2,-1,-3,0,-2,-2,-16
83604259732,-6,-7,-1,0,-3,-2,-1,4
83604259732,1,-2,-2,0,-3,-2,-1,0
83604282141,-2,-3,-2,-2,-1,0,-1,-1
83604282141,14,0,0,0,0,-1,2,8
83604282834,-8,2,-7,-9,-1,-1,-1,-9
83604282834,10,1,3,2,-2,0,1,14
83604304646,-23,-4,-2,-3,-2,-1,-1,0
83604304646,10,9,5,8,0,-1,-1,3
83604305414,6,3,1,0,-1,0,0,-1
83604305414,0,-8,-6,-9,-2,0,-2,-3
83604318916,5,2,-1,8,2,0,1,-2
83604318916,-2,-2,-4,-5,-3,-2,-1,7
83604319706,-3,10,0,0,-1,-1,1,2
83604319706,-6,-20,-3,-2,-2,-2,-2,-18
83604342149,5,-5,0,-4,-3,-3,-3,1
83604342149,-4,8,0,0,-2,1,-1,-9
83604342958,-1,-6,-3,-1,-1,0,-2,0
83604342958,-10,-3,-2,-1,-3,-3,-4,0
83604364585,4,0,-3,-1,0,0,0,-2
83604364585,-3,-5,0,1,1,-1,-1,2
83604365361,-5,-2,7,-3,-1,0,-2,1
83604365361,3,-4,0,20,0,0,0,2
83604378901,-12,-1,1,-4,0,-3,0,0
83604378901,3,-1,-6,-11,-1,-1,-3,4
83604379711,-1,-7,-5,6,2,-1,0,0
83604379711,-3,-1,11,6,1,-1,-1,0
83604402186,7,2,1,13,3,0,0,-3
83604402186,2,-3,-11,-1,-5,-5,1,2
83604402864,2,-7,-5,7,2,-1,-3,1
83604402864,-9,-1,11,21,-2,-1,1,-2
83604424581,-2,5,1,-48,-11,-1,-4,-2
83604424581,-3,-4,-5,-4,-1,-1,-4,1
83604425405,1,1,1,16,3,-2,1,-3
83604425405,12,2,-5,-1,-2,-2,1,7
83604438950,8,-2,0,10,5,2,-1,-1
83604438950,-7,0,6,4,7,7,3,3
83604439715,-4,-5,-4,-17,-16,-4,0,-5
83604439715,4,2,5,9,0,-3,-5,-6
83604462094,-11,2,-11,-18,-5,-12,-3,-2
83604462094,11,-11,4,14,10,0,2,-1
83604462849,5,-4,2,35,17,2,-5,-12
83604462849,-10,-4,1,-46,-9,10,9,0
83604484609,41,-1,-3,13,-2,-1,11,8
83604484609,-91,-12,-12,-39,6,-8,-20,-31
83604485391,7,0,1,-9,-10,-8,2,-1
83604485391,27,8,4,17,16,-3,-8,-2
83604498902,25,7,0,0,4,24,11,17
83604498902,51,-10,12,-3,-22,-14,-1,14
83604499726,-70,-10,-16,0,-9,-4,-1,-19
83604499726,-13,0,0,-20,-2,-8,-3,-4
83604522317,2,-1,13,14,7,-2,6,9
83604522317,24,5,-6,21,4,-4,-4,14
83604522918,6,2,7,-8,5,5,-3,-10
83604522918,11,-3,6,16,-13,-7,16,19
83604552267,-24,-5,-16,10,-12,3,-8,-18
83604552267,9,10,13,-3,7,16,11,14
83604553750,-1,-3,-3,-54,-2,-8,3,5
83604553750,-1,-10,-14,37,12,1,-12,9
83604558480,-7,-7,3,-37,0,-9,-4,-6
83604558480,-13,1,-12,-35,-30,-12,0,2
83604567376,7,0,-1,2,-3,-11,4,2
83604567376,-23,-1,-18,-23,-1,12,-5,-40
83604580790,67,14,2,-13,3,-23,-11,5
83604580790,-89,-4,7,34,10,1,8,-42
83604589762,14,-8,16,19,9,46,-7,63
83604589762,47,5,-21,-25,-2,-26,13,55
83604604683,-36,-26,-1,9,-20,7,-14,-34
83604604683,7,5,-9,-14,-6,-19,-20,-13
83604606236,19,3,-3,4,-2,-2,25,-10
83604606236,-37,1,3,-20,1,0,-4,-60
83604618387,30,5,-4,20,8,37,1,23
83604618387,47,0,0,2,4,22,-7,14
83604627249,10,3,-3,-19,-19,-46,-19,-7
83604627249,-3,-4,1,-1,-15,38,-4,1
83604640733,-52,-8,-5,29,-12,-102,-35,-19
83604640733,12,-1,4,-4,-4,48,18,-42
83604649715,-16,5,0,6,14,29,12,13
83604649715,-23,-1,1,6,20,-11,-10,-17
83604664873,15,-5,0,-6,-32,18,18,80
83604664873,19,1,-5,6,3,-22,-29,-52
83604666271,-22,-6,-6,-7,9,14,14,39
83604666271,25,2,4,-13,-27,-22,-25,-16
83604678339,-54,-15,-10,-3,15,53,45,9
83604678339,33,17,-3,-2,3,34,-1,-21
83604687303,6,-27,-12,-9,-19,-89,-31,-30
83604687303,-6,-4,-1,7,-13,-57,-5,6
83604709730,-3,1,3,-25,-13,1,-10,-29
83604709730,-1,7,9,21,8,30,16,-7
83604711235,12,15,8,16,25,60,0,-12
83604711235,-51,-27,-2,-1,-8,52,-12,12
83604724617,13,-1,-2,1,14,-30,30,5
83604724617,19,3,2,6,15,-31,10,40
83604726219,7,0,-4,-8,-4,-20,-13,-12
83604726219,16,10,5,4,-3,0,0,0
83604756134,-7,6,-5,-14,8,24,-21,-15
83604756134,-28,-10,-7,-25,-27,-30,24,42
83604757708,30,-14,-4,29,5,-16,-13,-6
83604757708,15,16,8,5,34,60,7,20
83604761543,-8,-15,1,-10,-33,-46,-24,18
83604761543,7,2,10,73,61,-35,-8,13
83604768215,-36,-18,-6,-44,-32,18,0,-33
83604768215,-6,0,-3,-7,-22,-24,14,42
83604784538,-5,11,7,-8,9,23,-6,-38
83604784538,19,-2,-3,-25,-13,13,6,35
83604786330,7,12,7,42,25,1,2,-18
83604786330,17,-1,-6,-13,-10,0,2,8
83604798436,52,-1,-8,5,10,1,0,19
83604798436,-57,-14,-9,-19,-16,-41,-10,0
83604807285,8,6,-2,2,11,33,-5,-4
83604807285,-1,-4,-8,-22,-5,4,8,0
83604821618,7,6,-5,20,-7,-36,-8,-10
83604821618,10,2,-2,-8,-12,24,-4,-2
83604828477,-20,4,-3,-13,-16,-10,-1,6
83604828477,9,4,2,-37,13,-9,-6,-8
83604844773,-26,-9,3,57,26,15,-4,-55
83604844773,-11,-2,-1,15,-2,10,7,16
83604846268,-34,-5,-1,-5,-14,-18,-14,-47
83604846268,32,26,1,-9,9,-3,1,-21
83604858477,-31,3,2,-17,-14,21,3,-11
83604858477,-28,-29,4,3,-8,-10,-11,-29
83604867297,17,10,1,-14,-8,-10,-11,-20
83604867297,16,-2,-3,19,4,1,24,29
83604881673,-1,-4,6,22,5,-4,-11,7
83604881673,34,23,-8,-19,0,-1,11,16
83604888479,4,-2,3,-3,2,5,12,1
83604888479,-42,-13,-8,-14,-3,-2,-9,-37
83604904563,42,9,-3,29,10,-3,-7,-1
83604904563,-74,-15,-12,-49,-25,-7,-8,-15
83604906184,15,24,7,-2,-4,5,-1,8
83604906184,4,-2,-2,-8,-4,-12,-10,-36
83604927254,1,-3,-15,-9,7,5,9,27
83604927254,24,-2,8,0,6,2,-10,-5
83604928817,-5,6,-1,10,-16,1,3,13
83604928817,-29,-12,3,-2,-11,-9,-12,-69
83604941764,4,3,-8,15,5,1,6,23
83604941764,2,-4,-2,-8,-2,4,-1,-19
83604948332,3,-8,-2,-3,16,-1,8,102
83604948332,0,2,-3,-6,-15,-4,-6,-16
83604964593,-13,-15,-9,-79,-18,-2,-6,-33
83604964593,6,1,3,45,8,-2,5,21
83604966186,31,10,3,1,1,-1,-1,-50
83604966186,-14,-5,-4,21,8,5,-7,15
83604987112,70,14,0,-30,1,2,11,15
83604987112,-83,-2,11,-18,-9,-3,1,-13
83604988785,-1,-27,-8,-11,-5,-2,1,-20
83604988785,25,-3,-9,21,2,-5,1,13
83605001501,-14,-7,-2,10,23,3,-1,22
83605001501,33,3,14,16,-15,-4,-6,-49
83605008277,7,11,-9,-7,0,-2,-5,1
83605008277,0,-2,5,14,13,-2,12,24
83605026037,-24,-1,11,35,-14,-3,-3,-14
83605026037,27,0,-11,-1,21,3,1,11
83605027733,-23,-11,-10,-17,-20,-5,-5,-12
83605027733,1,-2,3,-10,-3,-4,1,8
83605047197,-12,2,-4,19,7,1,2,-5
83605047197,-9,3,-1,-15,7,-2,-15,-41
83605048797,0,0,-11,-4,2,3,4,1
83605048797,31,0,6,-6,0,0,9,20
83605060789,-14,-4,5,1,7,1,-2,-21
83605060789,-21,24,-9,14,-11,-4,-11,-13
83605069760,7,-10,2,-5,9,-2,6,57
83605069760,-24,-26,-8,-11,-5,-4,-4,7
83605084568,-11,11,24,-32,-7,-1,-4,23
83605084568,59,-2,-5,30,-28,-7,1,28
83605086191,-48,-5,8,23,26,0,-4,-21
83605086191,-9,5,2,45,0,-1,-1,-2
83605107252,15,6,-2,-59,-17,-2,2,28
83605107252,-16,-5,-7,-11,0,0,6,-17
83605108798,6,-8,10,8,-3,-2,-9,-80
83605108798,56,4,0,18,16,2,10,53
83605120915,-59,-41,-8,8,-7,0,-5,-44
83605120915,72,23,-4,-8,6,3,14,127
83605129774,-69,5,-3,-23,-22,-6,-19,-100
83605129774,-3,-11,11,-5,-5,1,15,42
83605144614,50,9,-22,11,6,1,-10,-29
83605144614,-44,-24,-12,-30,5,3,8,33
83605146184,53,2,1,12,1,-3,-1,24
83605146184,18,-2,0,-4,4,0,-6,-22
83605167143,23,45,-21,-17,-19,-5,5,92
83605167143,-64,-67,23,-1,-2,-13,-32,-26
83605168738,20,-19,-16,8,7,10,27,94
83605168738,-31,8,9,-25,-12,-3,-15,-68
83605181030,9,-13,10,25,10,-2,7,6
83605181030,24,-1,-13,7,0,3,-16,-128
83605189890,53,14,-14,-28,-8,-1,37,116
83605189890,-45,-2,1,4,-27,-11,-17,-50
83605204854,-72,-60,-9,4,18,3,-10,-23
83605204854,63,36,35,-8,10,2,4,33
83605206267,-67,-19,-37,32,-6,1,-17,-76
83605206267,81,23,-12,-30,-3,3,8,20
83605227331,75,15,10,-17,8,-12,-6,-10
83605227331,-106,-11,-14,-28,-45,-4,-11,-55
83605228769,77,-8,-4,12,8,-24,-2,31
83605228769,6,14,18,17,23,23,4,-21
83605240894,-52,13,13,24,-6,-7,1,-23
83605240894,84,-14,-13,0,19,10,9,49
83605249829,-67,16,1,-30,-31,-22,-12,-53
83605249829,-24,-19,-3,10,-19,-18,3,9
83605272173,1,-14,-1,35,13,4,5,-15
83605272173,31,35,10,23,-13,11,-7,41
83605273751,-14,3,12,-64,10,-6,31,22
83605273751,53,58,-1,-8,-37,32,-1,12
83605288618,-94,-24,3,30,46,-7,-42,-39
83605288618,13,-7,-27,-24,-47,-24,14,-16
83605290212,36,-2,16,68,19,26,-36,-13
83605290212,-24,16,-9,1,19,-19,23,-3
83605301009,27,15,-16,-84,-12,-24,7,-16
83605301009,1,28,-5,37,-1,-2,-8,1
83605309762,-3,6,16,-41,-13,7,3,-3
83605309762,7,-22,1,19,24,14,-6,2
83605324586,-32,-2,0,57,-14,14,-1,-21
83605324586,59,-8,-17,-70,4,-17,11,10
83605326197,-24,42,14,-3,-6,2,6,-5
83605326197,-13,-19,-11,19,-11,-4,-10,16
83605347314,38,6,8,-25,-3,-4,-2,-12
83605347314,13,-3,3,9,26,16,20,10
83605348803,-38,-8,0,12,-6,12,-7,-14
83605348803,-47,-21,-5,-19,-1,-3,-7,-22
83605360958,16,15,13,53,3,-14,8,8
83605360958,-3,5,4,13,3,8,0,-3
83605369807,27,-5,-3,-17,0,7,4,-3
83605369807,7,-1,-2,-17,10,-9,0,1
83605384682,25,-3,3,-53,-38,23,9,12
83605384682,-30,-26,-2,112,57,-19,-20,-16
83605386246,37,-4,1,-77,-37,-12,7,8
83605386246,-24,-15,-10,-29,-8,-4,-7,-7
83605407264,40,-6,3,-8,-11,-19,-4,9
83605407264,-57,8,2,-19,6,10,8,-11
83605408804,6,-19,1,32,9,7,-4,-8
83605408804,48,1,3,14,28,6,0,5
83605420874,-91,-1,-12,-17,-29,3,-2,-20
83605420874,15,-1,-2,-36,1,-3,-10,-5
83605429838,23,-3,-8,43,-3,-11,13,35
83605429838,-11,0,1,-19,21,6,-1,-12
83605444351,28,3,0,47,6,-3,-3,4
83605444351,-8,-4,5,0,9,-3,-13,-5
83605450694,1,7,-6,-29,-13,-3,-6,-12
83605450694,-1,-9,-1,2,-3,-6,3,8
83605467176,5,-2,-1,-42,-2,14,9,8
83605467176,0,-10,-4,16,-6,1,1,-6
83605468741,-5,2,7,2,13,-8,-14,-14
83605468741,-12,-9,-6,28,-7,-4,-1,8
83605481011,-6,3,-3,-24,20,4,0,-14
83605481011,14,9,-2,-3,-17,-3,4,0
83605489822,-17,-3,-2,4,7,4,-6,-4
83605489822,-3,1,0,3,-2,-8,-8,0
83605504563,38,18,-8,-32,-6,2,7,12
83605504563,-59,-16,4,-12,-10,2,4,13
83605506160,1,-1,1,21,13,2,3,2
83605506160,13,9,0,-12,-9,-3,-1,-7
83605527179,17,12,-1,23,12,2,-4,-4
83605527179,10,0,1,0,1,-4,0,7
83605528815,0,-1,-2,9,-15,1,-2,-1
83605528815,-13,-10,-3,-5,-4,-5,-5,-10
83605540718,8,-2,1,-11,4,0,1,3
83605540718,-2,-1,0,30,2,-3,-3,-10
83605549741,0,-7,0,7,19,0,-3,-4
83605549741,6,2,-5,-52,-28,0,1,1
83605564626,-13,-12,0,17,-13,-1,1,12
83605564626,-6,-3,2,9,-12,-4,-5,-13
83605566205,17,-26,-5,-2,3,0,0,-4
83605566205,-24,-7,-5,-27,-8,-6,-14,-3
83605587170,-14,0,0,20,14,5,22,36
83605587170,11,-7,0,-26,-25,-1,-2,0
83605588684,-9,4,3,8,29,1,-7,-3
83605588684,44,0,-3,23,-16,-3,1,2
83605600714,-62,-16,-5,-39,-28,-4,-12,-26
83605600714,20,-8,-5,8,28,3,6,8
83605609764,5,16,3,11,-1,-1,1,6
83605609764,-3,-1,-3,32,-3,-2,2,-5
83605623945,15,-5,8,39,35,-1,-4,-7
83605623945,-6,-4,-2,-22,-4,2,2,8
83605630708,-44,-4,-3,-20,-13,-3,-3,-20
83605630708,-28,2,5,23,20,3,3,2
83605647102,19,-5,-3,-22,-29,-4,-1,1
83605647102,22,6,-1,-20,-11,-2,-4,0
83605648782,-14,7,-1,22,4,-3,-5,-2
83605648782,-12,-7,0,-4,9,2,-1,-8
83605660824,0,0,-1,-12,-12,-1,-4,-1
83605660824,-5,-3,-3,11,15,3,-6,-22
83605669739,32,3,0,-6,-13,-3,3,1
83605669739,-3,-12,0,7,22,4,8,18
83605683907,-1,-21,-5,-21,-29,1,-5,-33
83605683907,9,10,1,-27,-11,3,12,-3
83605690740,-12,-3,0,10,4,-2,1,-19
83605690740,6,7,1,20,16,-2,0,16
83605707313,15,3,0,-4,3,-2,-6,-4
83605707313,-6,4,-3,-28,-8,2,6,31
83605708797,14,2,-1,53,17,-1,-13,-37
83605708797,12,3,-6,-58,-25,-2,9,45
83605720984,-1,5,0,20,6,-3,-1,3
83605720984,-8,2,4,-13,5,0,-2,-24
83605729832,63,8,-10,-8,-13,0,-7,25
83605729832,-64,-8,17,26,-6,-6,-6,-78
83605744202,44,9,-6,-19,-5,0,4,59
83605744202,2,1,-3,7,12,1,5,-2
83605750968,15,-23,0,-28,5,3,2,13
83605750968,-79,6,-4,-11,-33,-10,-18,-15
83605767159,-11,-11,0,42,10,-1,-8,-23
83605767159,-14,1,-3,-3,-5,-5,-1,-13
83605768735,14,4,-7,-10,-3,-2,-4,27
83605768735,17,21,-1,-29,2,-1,1,11
83605789934,3,5,8,33,-6,-5,-4,9
83605789934,46,-6,-9,4,-7,-2,-9,14
83605791244,-23,1,6,9,2,2,-6,-37
83605791244,-42,-1,-10,-31,-2,3,11,-63
83605803961,1,-4,2,-33,-8,-2,9,77
83605803961,18,-2,-4,6,-9,0,10,11
83605810716,-84,-30,2,-9,-3,1,-2,-29
83605810716,47,-11,-10,57,16,-8,-4,4
83605827102,41,17,2,-81,2,12,4,21
83605827102,-76,-17,10,11,-28,-9,-30,-57
83605828711,27,-4,-4,-15,2,0,27,54
83605828711,-7,6,-13,-5,-9,-1,-6,-18
83605849717,44,7,16,45,-2,-5,1,-9
83605849717,28,-35,5,-33,-1,-6,-4,20
83605851259,-61,17,-6,-3,-6,-8,-17,-62
83605851259,-35,-37,-3,8,1,12,-25,-64
83605864130,15,27,-15,-5,1,-19,12,3
83605864130,-1,10,-13,-37,-11,3,-8,-90
83605870940,29,-4,5,26,16,0,-12,27
83605870940,54,-7,7,-14,-2,-5,32,82
83605887140,7,34,-6,5,-2,8,-7,-49
83605887140,89,12,9,-24,-6,-1,17,12
83605888754,-24,15,-15,2,5,-12,-8,-10
83605888754,-68,-18,24,-16,-22,8,-10,-9
83605909679,-30,-25,6,39,18,3,-15,-46
83605909679,0,8,-15,-14,5,-2,6,32
83605911235,87,21,8,21,5,6,2,17
83605911235,-32,-4,-6,-29,-14,-12,-8,23
83605924196,-100,-7,-14,-17,1,-1,0,-9
83605924196,-20,-6,2,52,15,-2,-7,-1
83605930843,22,3,-5,-29,-6,2,13,41
83605930843,33,12,-13,22,35,3,1,-1
83605947086,-67,-13,-1,-57,-38,6,-8,-29
83605947086,-3,6,35,45,-15,-5,8,46
83605948718,56,6,5,93,20,-1,4,23
83605948718,7,2,-4,-77,-15,-10,-6,-7
83605969841,29,16,-9,18,43,4,-3,-39
83605969841,31,-4,-8,27,-11,0,0,5
83605971290,-83,-10,12,-36,21,5,-7,-25
83605971290,43,3,-8,-26,-33,-3,6,-1
83605983471,5,-13,19,33,-9,-4,10,35
83605983471,-16,8,11,-17,1,-3,-5,5
83605992289,32,-2,-22,0,-19,-1,0,-7
83605992289,19,-3,3,34,17,4,-5,29
83606007083,6,-10,-18,6,12,-10,-6,-15
83606007083,-16,5,-17,-36,-23,1,-12,-6
83606008700,42,12,-6,-17,2,12,-6,-17
83606008700,-18,6,-8,-69,-22,-4,-12,15
83606029851,33,-9,13,47,-7,-5,10,6
83606029851,-77,-13,10,17,18,-7,4,-20
83606031235,-1,-22,15,-15,-9,-6,13,46
83606031235,23,3,12,37,-1,0,10,44
83606043498,-3,-5,13,2,5,-3,-11,-10
83606043498,-8,-5,-5,1,26,9,29,-5
83606052260,-11,-3,4,-37,-42,-7,5,-15
83606052260,41,-1,9,68,39,2,7,25
83606067247,17,-9,-1,-8,10,1,7,15
83606067247,-22,-1,-8,23,17,0,-3,-14
83606068837,-7,2,-3,-11,-12,-3,1,4
83606068837,9,-6,-8,9,-1,-2,-10,-56
83606089672,-16,-7,-12,-17,-8,5,0,-44
83606089672,31,13,-14,-12,-5,2,11,114
83606091232,11,10,0,-7,2,0,4,-27
83606091232,0,7,2,17,5,0,4,-36
83606103369,-10,-4,-7,-19,-12,-1,2,33
83606103369,21,-4,-4,3,2,-1,-18,-33
83606112287,37,-1,-9,-7,-6,-6,-1,97
83606112287,50,9,-4,9,5,5,-2,-44
83606127080,36,-16,-14,-9,-6,2,-9,37
83606127080,25,2,-11,-10,-3,-11,-3,-5
83606128716,-31,-4,-9,-3,-7,5,-11,-25
83606128716,12,1,-7,-5,-4,-1,0,-2
83606149589,-6,24,-4,-18,-7,-1,-10,6
83606149589,-14,-12,-8,-17,-13,-1,-5,-16
83606151232,-18,-3,3,23,12,-3,-5,-24
83606151232,-16,-3,2,-12,-8,-4,-5,14
83606163234,8,2,2,20,-3,-6,-4,-24
83606163234,-57,3,-2,-25,-2,8,-4,-11
83606172248,-23,-20,-1,-3,-2,-11,0,7
83606172248,14,5,3,5,3,5,2,4
83606187100,-49,-8,-5,-11,-1,-6,0,-18
83606187100,34,4,2,3,-1,1,-10,-23
83606188716,-36,-3,-1,-2,-5,-1,-2,-12
83606188716,-8,11,0,2,4,-2,2,2
83606209574,24,-28,-3,-11,-3,1,6,20
83606209574,7,1,2,12,4,-2,-5,2
83606211203,-9,5,-1,-10,-3,-1,-2,-26
83606211203,6,-3,2,8,0,-5,-1,22
83606223190,2,3,-1,-2,1,3,3,-11
83606223190,2,6,1,11,5,-2,-4,-14
83606232262,-4,-6,0,-8,-7,-3,0,-4
83606232262,-8,-9,-5,0,-3,-2,-3,-5
83606247120,6,4,-2,-16,-11,0,4,6
83606247120,-10,-4,-1,17,18,-2,-4,11
83606248713,-8,-11,-3,1,-13,0,-10,-26
83606248713,8,-4,0,8,0,0,9,24
83606269579,4,6,0,-4,1,-1,2,-7
83606269579,-4,1,-1,-8,-6,0,-1,-9
83606271194,-3,-1,0,-3,-1,1,0,-14
83606271194,3,-3,-1,0,5,-1,-6,0
83606283243,-5,-7,-2,5,-4,-4,-7,-1
83606283243,-5,-2,-2,-2,-2,0,0,-7
83606292253,7,4,-1,1,3,-1,2,2
83606292253,9,-3,-2,-3,-2,-3,-6,-6
83606307146,-6,1,2,1,5,1,3,-8
83606307146,0,14,-1,3,-1,2,-4,-3
83606308741,-13,-10,-4,-6,-4,-5,1,-2
83606308741,11,10,0,2,2,7,-1,2
83606337095,-8,-5,-1,-1,2,-15,-4,-6
83606337095,2,6,0,4,-1,7,8,4
83606338709,0,-4,1,-7,-2,-2,-2,10
83606338709,-11,-2,-2,-1,-3,-3,1,-11
83606343288,0,1,-1,1,1,2,-7,-2
83606343288,-15,-7,-2,-7,-5,-7,-4,-4
83606352263,8,8,3,6,2,4,0,-5
83606352263,-5,-5,-4,-16,-6,-3,-1,-2
83606367085,-1,0,0,-2,-3,0,1,-4
83606367085,3,-9,-1,-2,0,-4,2,7
83606368704,-4,1,-2,-14,-2,-2,-1,-8
83606368704,-8,-1,1,12,0,0,0,-1
83606389649,2,-3,1,36,9,1,-3,1
83606389649,5,-2,-3,-71,-13,-1,-1,8
83606391201,-14,-6,-4,-22,-1,2,2,-7
83606391201,-2,-4,-2,-9,-3,0,0,1
83606403286,-2,4,1,7,-1,2,-2,-2
83606403286,1,-5,0,16,10,-5,-5,-5
83606412188,12,5,3,19,1,-4,2,2
83606412188,-24,-3,0,-4,0,5,-3,-5
83606427080,-3,0,-1,-1,1,2,3,-4
83606427080,-6,1,0,3,3,1,-3,-25
83606428682,5,0,0,24,-2,2,0,8
83606428682,-1,-13,-2,-11,-3,-14,-7,1
83606449645,-3,-2,-1,-19,-2,6,2,2
83606449645,8,3,-8,14,-9,-4,-1,-2
83606451276,-4,-5,-8,-2,-7,-18,-2,0
83606451276,-2,-2,0,-27,-6,7,-2,-25
83606463214,4,-8,-4,-13,7,0,-3,2
83606463214,5,-1,2,12,-1,2,3,9
83606472279,-6,6,1,23,10,8,0,-8
83606472279,0,0,-1,-2,5,-4,2,4
83606494589,-9,-1,0,-28,-7,-4,-6,-15
83606494589,-2,-3,-2,24,-2,0,-5,-13
83606496183,18,0,0,-2,-5,2,4,21
83606496183,-4,-2,4,11,6,-6,-2,-4
83606509542,-18,-16,-4,-15,-6,9,1,-26
83606509542,-10,-8,-1,7,2,-1,5,11
83606511195,-7,0,0,10,-5,-6,-7,-12
83606511195,-1,13,-2,-19,-5,-1,-3,3
83606523234,9,5,0,19,-1,-4,0,1
83606523234,-2,0,1,12,-2,-1,-1,3
83606532255,-7,-10,-7,-38,-4,2,-4,-7
83606532255,9,0,-2,-12,0,1,0,1
83606546465,-1,2,-7,-8,-11,-7,-5,3
83606546465,-4,-4,4,14,5,0,-1,5
83606553209,-1,2,-8,-85,-14,-3,-6,-8
83606553209,2,-1,1,39,3,0,4,11
83606569642,2,4,3,18,2,0,1,14
83606569642,0,-2,2,-4,4,1,1,9
83606571204,-1,-1,5,37,5,5,1,-10
83606571204,0,-4,-5,29,-3,-9,-2,-1
83606583258,0,-2,4,19,8,-7,-1,8
83606583258,-1,1,1,6,2,7,1,-3
83606592234,13,-3,2,-4,-1,2,2,0
83606592234,4,21,2,-19,-7,0,-1,-1
83606606446,2,3,3,13,9,0,2,8
83606606446,-6,0,-1,-32,-11,-5,0,-11
83606613289,-11,-2,1,18,4,-4,-2,14
83606613289,1,-6,4,25,8,9,4,7
83606629567,3,-1,1,0,0,-2,1,-1
83606629567,2,1,1,-6,-1,-2,1,0
83606631191,-5,1,-3,-28,0,1,1,-1
83606631191,-2,-6,-4,-22,-11,-5,-2,-3
83606643234,-5,-2,-3,11,-3,-2,-2,-4
83606643234,-2,-8,-6,30,-1,0,-5,-4
83606652269,-2,2,-2,-33,1,0,0,0
83606652269,-2,-7,-10,-8,-8,-1,-5,-7
83606666436,3,0,-3,-1,2,2,-3,-4
83606666436,0,-1,-11,-14,-18,-4,-3,-1
83606673238,-3,0,-3,42,6,0,-5,-11
83606673238,-4,3,-7,-21,-8,-2,-7,6
83606697089,0,5,-3,-14,-1,1,-4,0
83606697089,4,-1,-6,-33,-7,-4,-3,1
83606698729,-6,-4,2,19,2,-2,-2,-4
83606698729,-2,-4,2,4,-3,0,-2,-7
83606703229,-1,-2,-2,-18,-8,-3,0,-5
83606703229,-3,1,7,11,8,0,2,2
83606712228,7,2,0,-20,-5,-1,2,0
83606712228,-1,-4,9,47,17,0,3,2
83606727173,-2,-1,4,28,0,-2,3,5
83606727173,2,0,10,-65,-6,1,4,3
83606734862,-2,-1,15,115,17,2,1,2
83606734862,-1,-3,-4,-32,-7,-2,0,-2
83606749658,-2,-2,10,-29,-8,3,1,5
83606749658,-5,-7,2,-24,-17,-7,-2,6
83606751266,-3,3,0,8,-3,-3,-10,-27
83606751266,8,-1,-3,19,2,0,1,8
83606772103,1,2,-2,-21,-1,-1,1,21
83606772103,1,-5,-19,9,-1,0,5,2
83606773703,-9,-29,-6,-35,-7,1,2,4
83606773703,3,0,7,77,6,0,-11,3
83606786516,-3,-5,-20,-50,-19,-4,-2,-7
83606786516,-3,3,-2,20,4,-2,-4,-4
83606793279,-4,3,-7,-26,-1,-1,0,0
83606793279,-3,-2,-8,-12,9,0,-2,-10
83606809591,-1,-4,4,32,-2,-2,-1,-4
83606809591,1,-1,2,23,9,2,0,-5
83606811224,3,4,-5,-16,-10,-3,4,4
83606811224,6,1,1,-8,-6,-2,4,1
83606832079,0,4,-4,-3,1,0,-5,-18
83606832079,-5,-3,-2,10,6,1,1,13
83606833753,18,27,3,1,-1,2,-1,7
83606833753,-4,-4,1,-2,-5,-4,-2,-5
83606846479,0,-27,-3,-16,-11,-4,-1,-3
83606846479,-9,8,-4,33,4,-4,-5,-8
83606853224,-4,2,-2,-1,6,1,1,1
83606853224,-26,-8,-4,-8,-6,-2,-3,1
83606869613,-5,15,4,20,6,2,-2,-6
83606869613,4,1,2,-14,4,1,-4,-4
83606871216,-9,-19,-6,11,-2,-4,-3,3
83606871216,12,11,-2,-13,-2,0,1,-9
83606892081,14,29,-1,4,1,-2,-2,11
83606892081,-4,-34,0,26,-2,-1,-1,0
83606893719,-10,-3,-6,-71,-11,-2,-2,-6
83606893719,-5,7,-2,7,5,1,1,-4
83606905731,27,3,-2,-8,-2,1,0,6
83606905731,-1,19,0,-4,-6,-3,-3,-3
83606914755,4,0,2,28,-2,-1,-2,5
83606914755,-14,-45,-3,-4,2,-1,-1,-25
83606929607,-38,-16,-4,0,6,-2,-5,-11
83606929607,-1,-17,2,-17,-5,-1,-1,0
83606931218,1,0,1,3,2,2,0,-4
83606931218,2,9,-1,0,-2,0,-1,14
83606952084,-5,-10,-10,8,-3,-1,-1,-9
83606952084,13,3,-2,5,3,-1,0,-6
83606953723,-13,-3,-2,-5,-1,-2,-2,-1
83606953723,-8,-5,3,-6,-1,-1,-2,-7
83606965766,10,6,2,-12,0,-1,-1,0
83606965766,-10,-15,-6,1,2,-1,-2,-2
83606974710,-4,-10,2,11,-3,0,-1,-7
83606974710,-30,-12,-4,-16,-4,-4,-4,3
83606989567,-16,-2,-1,6,-3,-1,-1,-1
83606989567,11,23,4,7,3,0,0,16
83606991191,-5,0,-1,-3,-1,-1,2,-16
83606991191,-2,-4,-6,-11,-4,-1,-2,-3
83607019611,2,6,3,-1,1,-1,1,2
83607019611,0,2,-1,-2,-2,0,-1,-20
83607021207,4,-5,-2,-1,6,1,4,31
83607021207,-1,19,-6,-9,-10,-3,-3,-19
83607025682,14,-2,3,15,5,1,3,15
83607025682,-9,5,1,-10,-6,-3,-6,-37
83607034776,25,-14,-2,0,-1,-1,7,57
83607034776,-7,1,1,8,3,-1,-2,-18
83607049647,-2,10,-1,-8,-4,-3,-4,-25
83607049647,-34,-27,-4,-3,-2,0,-1,7
83607051168,19,36,6,3,0,2,5,34
83607051168,29,6,5,10,5,1,2,16
83607072117,-25,-9,-3,5,0,-2,-5,-30
83607072117,-9,-15,-5,-24,-2,0,-3,-2
83607073707,-6,12,-1,4,-4,-4,-9,-53
83607073707,26,1,-1,-12,-4,-2,1,24
83607085733,12,9,-1,0,0,0,-1,-22
83607085733,21,28,2,8,0,1,2,9
83607094766,-11,-19,-4,-5,-2,-3,-5,-12
83607094766,2,1,5,0,-1,-2,0,-7
83607109619,-2,-4,-3,12,0,-2,-1,10
83607109619,6,1,-1,11,-2,-3,0,-5
83607111229,-17,-8,-5,-16,-5,-1,-2,27
83607111229,-2,6,2,8,5,0,1,-9
83607132139,-2,-6,0,-4,-9,-2,1,11
83607132139,3,4,0,5,2,1,1,16
83607133708,-11,-4,-3,10,1,-3,-4,-34
83607133708,-2,-8,-3,-5,-2,-1,-2,9
83607145772,-20,-18,-2,-6,2,-1,-1,5
83607145772,16,4,-3,-3,-2,-3,-3,5
83607154704,-5,2,0,-1,-3,-3,-2,-15
83607154704,-27,-23,-6,-10,-4,-2,-6,-2
83607169556,4,3,-3,-1,0,-1,0,4
83607169556,-13,0,0,-3,-2,0,0,-7
83607171159,-4,11,1,1,0,0,-3,3
83607171159,-14,4,1,1,-2,-3,-2,-9
83607192114,2,-4,2,3,3,0,0,3
83607192114,-2,5,-2,-4,-5,-5,-4,3
83607193707,-12,11,-2,-6,-1,-3,-2,7
83607193707,-12,-28,-5,-3,-2,0,0,-13
83607205793,11,17,5,0,0,1,-1,1
83607205793,-7,0,0,-3,-1,1,1,-3
83607214734,-10,-4,-5,-6,-3,-2,-4,-14
83607214734,5,8,0,-4,-1,-2,-1,-1
83607229585,3,-19,-5,-1,1,-1,-1,0
83607229585,1,6,2,0,0,1,2,58
83607231230,18,-14,-3,-9,-2,-3,2,0
83607231230,24,39,4,7,2,0,2,1
83607252164,10,-7,-3,-4,-1,1,0,-4
83607252164,7,-12,-3,2,0,0,-1,-16
83607253738,-5,-4,2,2,0,1,0,-12
83607253738,2,-4,-2,-8,-1,0,-2,18
83607265729,-11,-21,-1,5,0,-2,0,-4
83607265729,5,0,-6,-9,-3,0,-2,-10
83607274726,6,2,3,2,1,1,0,9
83607274726,-5,-8,-3,1,0,0,0,-11
83607289599,0,14,-4,-7,-1,0,-2,7
83607289599,2,-7,0,2,4,-2,-1,-10
83607291204,8,-7,-2,2,-2,-1,-3,-27
83607291204,16,4,-1,-1,-1,-2,0,-4
83607312066,-13,7,-3,-4,-1,-1,0,5
83607312066,0,2,1,-1,-1,0,0,-39
83607313700,-3,11,-1,-1,-1,-1,-1,25
83607313700,-4,-2,-1,-2,-2,-1,-2,-3
83607325729,1,0,2,-2,-2,-2,1,4
83607325729,-3,-2,-1,-4,-3,-2,-3,-14
83607334805,-5,-22,-6,-2,-2,-1,-3,-39
83607334805,-7,-3,-1,-1,-1,0,-2,11
83607349594,2,11,0,-1,0,-2,0,1
83607349594,-6,-2,-1,-2,-2,-2,2,46
83607351182,13,13,4,2,0,-2,-2,0
83607351182,-3,-1,-2,-2,-2,-1,1,13
83607372071,-14,7,-1,-2,-1,-1,-1,-17
83607372071,13,6,2,1,0,-1,-1,-5
83607373689,-1,-4,-2,-1,0,-2,-1,4
83607373689,-3,-8,-2,3,-3,-4,0,5
83607385740,16,17,1,-2,-1,0,1,-27
83607385740,4,8,-2,-1,-1,1,2,19
83607394709,-13,-6,-2,-1,-1,0,-3,0
83607394709,0,-6,-4,0,0,-1,1,-2
83607409585,-1,0,2,-8,-2,-3,-2,-3
83607409585,3,3,0,-1,-2,-2,-3,3
83607411205,-6,-32,-6,-2,0,-1,-2,-9
83607411205,-2,2,1,-1,0,1,-2,-4
83607432086,7,-11,-6,0,-2,-1,-3,-16
83607432086,-12,-11,-4,-1,-1,2,2,20
83607433707,-5,5,2,2,-1,-1,0,3
83607433707,32,17,0,-4,-2,-3,0,0
83607445734,-10,-10,5,4,-2,-2,1,15
83607445734,-5,-16,-8,-5,-4,-3,-1,-4
83607454712,9,20,3,3,3,0,0,-5
83607454712,-12,-36,-2,0,-2,-2,-5,-59
83607469573,5,0,0,2,2,3,6,44
83607469573,1,2,-1,-7,-2,-1,-1,-14
83607471240,3,-19,-3,-2,-1,-1,-1,17
83607471240,6,20,-4,-5,-1,-2,-2,-9
83607492120,-6,-8,-5,3,-3,-3,-6,-6
83607492120,-10,8,0,0,-1,-1,-2,-9
83607493706,22,20,1,-1,1,-1,-1,-2
83607493706,-8,8,-1,-2,-1,-1,0,14
83607505758,-10,-14,-1,0,-2,-3,-3,-12
83607505758,-3,16,0,-3,0,-2,-2,10
83607514742,-12,3,5,1,-3,-1,-3,-3
83607514742,-17,-6,-6,-6,-3,-3,-4,11
83607529587,9,2,-2,-1,-1,-1,1,28
83607529587,-3,-10,-1,1,0,-1,-5,-38
83607531193,-7,0,1,1,-2,-1,1,5
83607531193,-7,-7,1,0,0,0,0,4
83607552109,-5,-8,-5,-3,-1,-1,-3,-18
83607552109,4,-3,0,2,1,-2,0,6
83607553739,1,0,-1,-1,-1,0,-2,-6
83607553739,-11,3,0,0,0,0,-3,-47
83607565742,-5,-23,-6,-3,-1,-2,-1,17
83607565742,3,-5,1,2,1,0,0,-7
83607574700,-32,-31,-9,-4,-3,-2,-3,9
83607574700,11,9,2,-2,-3,-2,3,-8
83607589584,-8,-18,-4,-2,-2,-2,-3,-11
83607589584,-7,-11,-1,-2,-1,-1,-2,-24
83607591224,1,5,-1,2,0,-2,0,-9
83607591224,-6,5,-2,0,-2,0,-3,9
83607611182,0,11,0,-1,-2,0,-4,-6
83607611182,-2,7,0,-1,-1,-1,1,7
83607619764,4,5,-1,-2,-2,-2,-2,-4
83607619764,-3,-18,-2,-2,0,0,1,12
83607634615,-1,11,1,0,0,-1,0,4
83607634615,-2,-3,-2,1,-1,-2,0,-9
83607636230,3,1,-1,-2,0,-2,-2,2
83607636230,5,-4,0,0,0,-1,0,24
83607649614,-8,1,-3,-4,-1,-1,-3,-8
83607649614,-3,-8,-1,2,1,0,0,7
83607651201,-21,3,-4,-3,-3,-2,-2,-5
83607651201,-8,1,-1,0,0,-1,-2,3
83607672045,13,5,3,-1,-2,0,2,-1
83607672045,-6,-4,-3,-1,-2,-2,-3,-9
83607673656,1,6,1,-4,-1,-2,0,28
83607673656,10,-36,-4,0,-2,-2,-1,12
83607685735,0,-4,0,0,1,-1,1,12
83607685735,0,0,-3,-5,-3,-2,1,7
83607694700,18,5,-1,1,-2,1,1,-11
83607694700,10,10,2,0,0,0,0,0
83607709604,-13,-6,-3,0,2,1,-1,2
83607709604,3,0,6,3,0,-1,-3,-1
83607711186,-1,-7,-3,-1,-1,1,-1,-7
83607711186,-2,8,-1,-3,-2,0,-1,3
83607732093,7,5,0,-1,-1,-1,-1,-9
83607732093,-4,-3,-3,-2,-1,-1,0,-2
83607733706,-12,-4,-5,-3,-1,-3,-1,-7
83607733706,-1,7,2,2,0,-1,-1,5
83607762073,11,6,1,0,-3,-1,-1,-4
83607762073,10,15,0,0,0,1,-1,-7
83607763711,15,-4,-2,-3,-2,-2,-1,7
83607763711,5,7,-1,-2,-1,0,-1,-23
83607769596,24,30,1,2,0,-1,1,74
83607769596,8,-4,4,0,-1,0,4,0
83607771190,14,13,2,3,0,0,-1,11
83607771190,22,-1,-3,-2,0,-1,2,6
83607792062,-14,1,-2,-3,-2,-3,-3,-11
83607792062,-1,10,2,1,-2,-2,-3,10
83607793677,7,-12,-3,-5,-1,-1,-1,-8
83607793677,2,2,0,-2,-2,-1,-1,17
83607814611,-14,-14,-3,-1,0,-1,-2,-15
83607814611,-7,-16,-5,-3,-1,-1,-3,-2
83607816198,0,0,0,3,-1,0,-1,-18
83607816198,-25,17,-2,-3,-2,-2,-6,-15
83607829586,-3,-17,-2,1,-3,-1,-2,-12
83607829586,-2,18,-1,-3,-2,0,0,1
83607831194,-7,4,-1,0,0,-1,-1,-9
83607831194,-5,-5,-1,-2,-1,0,0,8
83607852065,-4,-2,-3,0,2,0,1,-9
83607852065,-22,-5,-3,-3,-4,-2,-1,-6
83607853702,-15,-2,0,1,-1,0,-1,-24
83607853702,-3,-47,-9,-2,-3,-3,2,47
83607874613,6,3,-1,0,0,-1,-2,-9
83607874613,-3,-18,-7,-3,-2,-1,-3,-11
83607876210,-3,4,3,1,-1,-1,1,49
83607876210,-13,0,-1,-1,0,0,-1,-16
83607888961,-2,-6,-3,-5,-2,-2,-2,-18
83607888961,4,-2,0,-1,0,-2,-2,15
83607895711,-2,1,-3,-1,-3,-3,-2,-5
83607895711,4,11,5,3,1,-1,0,-11
83607912044,0,24,-1,-2,-2,-3,-2,4
83607912044,-26,-14,2,-1,-1,1,0,-7
83607913691,13,6,3,0,2,1,1,-12
83607913691,-1,8,0,-2,-1,-2,-1,4
83607934628,0,-8,1,1,-1,-1,0,-16
83607934628,16,4,-4,-1,0,-2,-1,2
83607936233,-12,9,3,0,2,-1,0,-69
83607936233,15,7,-1,-1,1,2,7,38
83607948950,4,-7,2,1,1,0,-2,-3
83607948950,5,9,0,0,-2,0,-2,2
83607955721,6,-8,-2,-4,-3,-2,-1,2
83607955721,-6,5,0,0,-4,-1,-5,-24
83607972122,-8,-12,-3,-2,-1,-2,-2,-3
83607972122,0,-6,-4,-1,-1,1,-1,-5
83607973708,-13,-2,-2,-2,0,-2,-4,-4
83607973708,-2,-4,-2,-4,-3,-2,-1,-2
83607994559,2,0,0,-1,-2,-1,-2,5
83607994559,6,33,0,-1,0,-1,-2,-4
83607996177,-11,-3,-1,1,2,-2,-2,3
83607996177,0,7,-1,-2,0,-1,-2,-5
83608008935,9,-17,-1,-1,-1,3,0,-43
83608008935,10,2,-5,-4,-4,-3,-1,35
83608015729,4,-25,-2,0,-1,-3,1,9
83608015729,5,3,2,6,2,-2,1,-6
83608032110,-1,21,-1,-4,1,-3,1,0
83608032110,7,-16,-2,-2,-2,-1,-2,-15
83608033764,-3,-3,-9,-4,-3,0,-2,8
83608033764,-4,-16,-2,-2,-1,-1,0,1
83608054593,-6,-2,1,1,1,0,-1,4
83608054593,-3,10,3,0,-1,0,-1,-11
83608056209,17,3,0,0,-2,0,-1,17
83608056209,9,4,-3,-2,-1,-1,-1,-17
83608077051,-7,1,1,-2,-3,0,2,21
83608077051,-10,-10,-1,-1,1,0,1,-6
83608078713,9,10,1,-2,-2,-1,0,0
83608078713,-7,-6,-2,-2,-2,0,-3,-6
83608092065,-4,-7,-2,-1,0,-2,-3,4
83608092065,2,-5,-4,-3,-1,-1,-1,3
83608093713,-7,-1,1,-1,-1,1,0,4
83608093713,-2,-6,-1,-1,-3,-2,0,-2
83608114556,-7,-4,-4,-2,-3,-2,-3,11
83608114556,-7,-5,0,3,-1,-2,0,-9
83608116207,-3,-2,-2,-1,0,-2,-1,0
83608116207,8,7,0,1,0,-2,-1,-12
83608128926,-16,-3,-3,-3,-1,0,1,7
83608128926,-20,-20,-2,-3,-3,-2,-3,-24
83608135728,-6,-9,-4,-3,-3,-3,-1,49
83608135728,10,8,-2,-1,-1,-2,-1,2
83608152137,3,29,7,0,0,0,0,-4
83608152137,-1,-6,-1,-1,-1,0,0,9
83608153813,-15,-4,3,-1,0,1,-1,-16
83608153813,-10,1,-7,-6,-3,-2,-2,-3
83608175846,-1,1,-3,0,-1,-3,-2,-2
83608175846,7,5,0,0,-1,0,0,-1
83608176198,9,22,0,2,0,0,-1,-7
83608176198,4,-7,-1,0,-1,-3,-3,2
83608188946,-5,-11,-3,-1,-1,-2,2,-11
83608188946,1,-2,0,-1,0,0,0,-5
83608195693,4,-7,-3,-3,-3,-1,-1,0
83608195693,-3,-4,0,1,-1,0,-3,3
83608212095,-6,-17,-5,-5,-1,-1,-1,2
83608212095,18,8,1,-1,-1,-3,0,18
83608213689,1,4,2,-1,-2,0,-1,-6
83608213689,-11,-6,-4,-2,-1,0,-1,-6
83608242120,-5,13,-3,-2,0,0,-2,40
83608242120,-7,-31,-3,-1,-1,-2,-2,-1
83608243708,-5,-19,-2,-2,-2,-2,-4,-23
83608243708,10,-9,-1,-2,-2,-1,0,0
83608248230,11,2,-2,-1,-1,-1,-3,-11
83608248230,-3,4,-1,-2,-1,-2,-2,4
83608257281,-11,-1,-5,-3,-2,-3,-3,0
83608257281,-9,-2,3,0,-1,1,-4,-10
83608272109,-3,-6,-1,1,-2,-2,-1,-14
83608272109,0,10,-1,0,-2,0,0,-8
83608273704,11,20,2,1,1,-1,0,-3
83608273704,-7,-2,-3,-4,-1,0,-1,8
83608294585,6,-4,-4,-1,0,0,1,-10
83608294585,0,20,1,-1,0,-1,-1,13
83608296177,-13,3,-3,-3,0,-2,-2,-23
83608296177,-2,-3,-2,0,-1,-3,1,79
83608308243,-27,-12,-2,-2,-3,-2,-2,-15
83608308243,3,-7,-5,-1,-3,-1,0,-8
83608317242,4,-4,-2,-1,-2,0,1,0
83608317242,-3,4,0,0,0,0,-2,-18
83608332124,-1,-6,-4,-2,-3,-4,-5,-19
83608332124,-7,-8,1,0,0,-2,-1,7
83608333751,1,5,1,1,-2,-1,-3,5
83608333751,-14,-4,-2,-2,0,-2,-1,-2
83608354592,-1,1,-2,0,0,0,0,4
83608354592,0,0,2,0,1,0,-3,-9
83608356202,15,-3,-2,-3,-1,0,0,11
83608356202,-4,-7,1,0,-1,-2,-2,-8
83608368277,3,-6,3,-1,-1,-1,1,-4
83608368277,6,15,-1,0,0,-2,-1,-6
83608377218,-24,-29,-6,-2,-2,-1,1,56
83608377218,3,-6,1,1,0,0,-1,-11
83608392527,8,4,0,-1,-1,-2,0,-1
83608392527,-6,-1,4,0,-2,-1,-1,1
83608394173,0,4,-1,-1,0,-2,0,-14
83608394173,-7,3,-1,-2,-1,-2,0,-17
83608414634,-23,-1,1,2,-1,-3,-2,-4
83608414634,3,-8,-5,-2,-2,-1,-4,-14
83608416201,4,3,-1,-1,0,0,-2,-27
83608416201,1,-1,-1,-3,-1,0,0,18
