timestamp,emg1,emg2,emg3,emg4,emg5,emg6,emg7,emg8
81989884019,-1,-2,0,-1,-1,-1,0,-2
81989884019,-1,-1,-3,-1,-2,-1,0,-2
81989892193,1,-2,-1,0,-2,-2,-1,0
81989892193,-2,-2,-1,-1,-2,0,-2,-1
81989907815,0,1,-2,-1,-1,-1,-1,-1
81989907815,-2,-2,1,0,-2,-2,-1,-2
81989908682,2,-2,-1,-1,0,1,-1,-1
81989908682,-1,-2,-1,-2,1,-1,-1,-1
81989930315,-2,-1,-2,-1,-2,-1,0,-1
81989930315,-1,-1,-1,-1,-2,-3,-1,-3
81989931941,-1,-1,-2,-1,-2,0,-1,0
81989931941,-2,-1,-1,-1,-2,-1,-1,-1
81989944020,0,-1,-1,-3,-1,0,-2,-1
81989944020,-1,-1,-1,-1,2,0,-2,-1
81989953007,-1,-1,0,-2,-2,-2,-1,-2
81989953007,0,-2,0,0,-1,-1,0,-1
81989967821,-1,-1,-1,0,-2,-2,-1,-1
81989967821,-2,0,-1,-1,-1,-1,1,1
81989969429,-2,0,-1,-2,0,-2,0,-1
81989969429,-1,0,0,-1,-2,-2,-1,0
81989990394,-1,-1,0,-2,-2,-2,-2,1
81989990394,0,-1,-3,-1,-3,0,-1,-1
81989991973,-1,-2,0,0,-2,-2,0,-1
81989991973,-1,0,-1,-2,1,-1,0,-2
81990003962,-1,-1,-2,1,2,-1,-2,-2
81990003962,-1,-2,-1,-2,-1,-1,-1,-1
81990013458,-1,-1,-1,0,1,-1,-2,-1
81990013458,-1,0,-2,-2,-1,-3,0,-1
81990027854,-2,1,1,-1,-1,-1,-2,0
81990027854,0,-1,-2,-2,1,-1,-1,-1
81990029549,0,-1,-2,0,-1,-1,-2,-2
81990029549,-1,-1,-1,0,-1,0,0,-2
81990050375,-1,-1,-1,-1,-2,-1,0,-2
81990050375,0,1,0,-2,-1,0,-2,1
81990052012,-1,-2,0,0,-2,0,-1,-1
81990052012,-1,-2,-3,0,-1,-1,-2,0
81990064095,-1,-3,-1,-1,-2,-1,-2,-4
81990064095,0,-1,0,0,-1,0,-3,-2
81990073087,-2,-1,-1,-1,-1,-1,-1,0
81990073087,-1,-2,0,-1,-1,-1,1,-3
81990087930,-1,-1,-3,-1,-2,0,0,-1
81990087930,-2,-2,-1,-1,-2,-3,0,-1
81990089515,-1,-1,0,-1,-1,0,-2,-1
81990089515,1,-1,0,0,-1,-2,-2,-1
81990110556,-3,0,-1,-2,-2,0,0,1
81990110556,-2,-2,0,-3,-1,-1,-2,-2
81990111986,-2,-2,-2,-2,0,-2,-2,-1
81990111986,-2,-1,-1,-1,-1,-2,1,0
81990124235,0,-1,-2,-1,0,-2,-1,-1
81990124235,-1,-2,-1,0,-1,0,0,0
81990133105,-2,0,0,0,-1,-1,0,0
81990133105,-3,0,-1,-2,-1,-1,-1,-2
81990147224,0,-1,-1,-1,-2,-4,-2,-2
81990147224,-2,-1,0,0,-2,0,-2,0
81990154032,0,-1,-2,-1,-2,-1,0,-1
81990154032,0,-3,-2,-1,-1,1,-3,1
81990170429,0,-1,-1,0,-2,-1,-2,-1
81990170429,0,-3,-2,-1,1,-1,0,0
81990171964,0,-1,0,1,-4,0,0,0
81990171964,-1,-1,0,-2,-1,-1,1,0
81990192824,1,-2,-2,-1,0,0,-1,-2
81990192824,0,-1,0,-1,1,-2,-3,-1
81990194459,-2,-1,-2,0,0,0,-3,-2
81990194459,0,-1,-2,-1,0,-1,0,-1
81990207824,-4,-2,-1,0,0,-2,0,0
81990207824,-2,-1,0,-1,-3,-1,0,-2
81990209366,-1,-2,0,0,0,-2,-1,-2
81990209366,-2,0,-2,0,-1,0,-1,1
81990230372,-1,-2,-4,-1,0,0,-2,-1
81990230372,-1,0,-1,-2,-2,0,-1,0
81990231980,-1,0,0,0,-2,-1,-1,-1
81990231980,0,-1,-3,-3,-2,-1,-2,-2
81990252878,-1,1,0,-1,-1,-2,-1,0
81990252878,0,-2,-3,0,-3,-2,0,-2
81990254398,0,1,0,-1,-1,-1,-1,0
81990254398,-2,-2,-4,-9,-2,-1,-2,-1
81990267863,-1,-1,0,13,-1,-1,-1,0
81990267863,-1,0,-2,9,3,0,-1,-1
81990269486,-4,-2,0,4,0,-2,-3,-3
81990269486,1,-1,-1,-23,-12,-2,-1,-1
81990290390,-3,-2,-2,-11,-3,-3,-1,-1
81990290390,0,1,-1,-6,-4,-4,0,0
81990291963,0,-3,-3,9,5,0,0,0
81990291963,-3,-2,2,3,9,0,-1,-2
81990312884,-1,1,1,-9,-3,5,1,1
81990312884,-2,-1,-3,44,-8,-3,-3,-2
81990314492,0,-1,-2,-4,-1,3,0,-1
81990314492,-1,-1,1,11,15,1,-1,-2
81990327244,1,0,-1,-1,0,-4,0,-1
81990327244,0,-1,3,-15,-8,2,-2,-1
81990334022,0,-2,-3,-5,-4,-7,-2,-2
81990334022,-3,0,-2,-6,-2,2,0,-3
81990350355,0,1,1,10,1,5,2,0
81990350355,-2,-4,-4,-15,5,-12,-3,-3
81990351982,-2,-1,2,-22,-25,-2,-7,-5
81990351982,0,1,3,-15,2,-4,0,3
81990372837,-2,-3,-2,15,-6,-5,-5,-3
81990372837,-2,1,2,-3,17,16,7,2
81990374401,3,2,2,57,7,-5,-5,3
81990374401,-2,-3,-2,-38,-5,0,-3,-5
81990386506,-4,-4,-2,-14,-5,-7,-3,-3
81990386506,2,0,2,9,9,6,-3,0
81990395548,-3,-1,0,-8,-12,-4,0,0
81990395548,-9,-1,1,36,1,6,-8,-55
81990410448,10,1,-2,-11,7,-6,0,44
81990410448,-2,-2,-1,-33,-6,-10,-10,-6
81990412012,-4,-1,0,10,11,2,2,-11
81990412012,6,-2,-6,1,-16,-2,1,16
81990432865,-4,-3,-1,-10,4,13,6,-5
81990432865,1,2,-1,8,9,5,-1,0
81990434546,-2,-2,-4,-7,-6,-11,-9,-4
81990434546,-1,-4,-3,11,-5,-6,6,10
81990446536,-3,1,2,-2,4,3,4,-8
81990446536,3,-2,-2,-8,-4,-9,3,14
81990455498,-2,-1,-4,-7,7,10,0,-10
81990455498,-5,-19,-3,-2,-6,-3,5,6
81990470341,0,-1,-2,-6,0,-4,-5,-8
81990470341,-2,1,0,-9,-7,-7,-11,-16
81990471925,4,-1,2,18,7,2,11,13
81990471925,0,3,-3,8,1,-1,4,-1
81990492881,-7,-3,-5,-14,-12,7,-8,-12
81990492881,-1,-3,-2,-27,-2,-9,7,-1
81990494493,-3,2,-3,-18,5,4,-3,-10
81990494493,5,3,0,14,-3,-14,-6,13
81990506541,-3,0,-1,2,-4,-2,-3,-9
81990506541,-3,-2,-5,20,-2,5,3,1
81990515501,-2,-1,-1,-33,-7,13,3,10
81990515501,-2,1,-2,8,7,4,-5,0
81990530414,-1,-2,-5,8,-1,-17,-4,-3
81990530414,-3,-1,-2,10,-1,9,-2,0
81990531961,0,-2,-1,-7,-3,-4,2,2
81990531961,-4,-2,2,0,5,18,-1,-1
81990552917,1,2,0,9,-9,-32,-10,3
81990552917,1,-1,-2,-6,-10,3,7,0
81990554516,2,-1,0,-4,2,8,-1,0
81990554516,1,4,2,-2,-2,-11,-9,-17
81990566486,-5,-3,1,25,11,38,8,7
81990566486,-3,-1,-6,-7,-15,-54,-21,-6
81990575484,1,-4,-6,-12,-13,-12,8,7
81990575484,4,4,5,10,18,28,11,5
81990590365,-2,-1,0,0,-3,-4,4,-6
81990590365,-1,-1,4,15,5,16,-1,-5
81990591987,-2,0,-2,6,-1,-18,-16,-4
81990591987,0,-2,-5,-19,-9,-4,-1,8
81990612836,-1,2,2,0,1,18,9,-4
81990612836,-2,-4,-5,-19,-8,-13,-1,2
81990614455,-2,0,1,-3,4,7,2,-3
81990614455,-5,-4,-6,-3,-13,-6,-12,-8
81990626515,0,-1,-6,-20,-14,-40,-8,-4
81990626515,3,2,3,19,14,33,-9,4
81990635538,3,0,5,5,6,-5,5,9
81990635538,-1,0,-2,3,8,-5,5,2
81990650371,-1,7,-1,-18,-8,11,-4,-31
81990650371,-5,-21,-8,0,-38,-35,4,21
81990651985,-2,0,1,11,17,36,-1,-8
81990651985,2,3,5,-15,2,-6,3,7
81990672882,0,-1,-3,-20,-8,-3,-5,-8
81990672882,-1,4,2,-32,14,26,9,3
81990674462,-5,-5,-11,-10,-21,-27,1,-8
81990674462,-2,-6,-2,0,-15,-33,-7,-2
81990686545,1,-1,2,-11,19,25,-2,5
81990686545,0,2,3,35,12,19,-4,-2
81990695501,-2,-3,0,1,0,-8,0,7
81990695501,1,2,-1,11,-9,-15,-3,-8
81990717861,1,-1,0,-9,-6,46,6,4
81990717861,-4,1,5,15,9,-52,-8,-21
81990719474,1,1,-3,-6,3,12,2,6
81990719474,-1,-1,-4,4,6,6,2,-2
81990732850,1,-2,1,-11,-11,-22,-11,-3
81990732850,10,-3,-2,15,2,5,14,3
81990734476,1,7,4,5,10,18,-24,-15
81990734476,-1,0,3,-3,8,-3,5,17
81990746584,1,-5,-3,7,5,21,14,10
81990746584,2,5,-1,7,-5,4,-4,-11
81990755518,-4,-5,-5,-14,-23,-39,-8,-6
81990755518,0,-2,-3,2,9,18,0,0
81990770337,-4,1,0,11,6,-34,-13,-1
81990770337,-8,-4,-10,-60,-24,6,1,1
81990771968,-1,-1,4,23,2,10,-1,-13
81990771968,-6,-1,-2,-15,-5,8,-8,-19
81990792884,-3,-2,6,43,1,-24,5,1
81990792884,0,0,-2,8,6,4,-8,-1
81990794489,0,-3,-2,-43,-18,15,7,6
81990794489,1,0,3,-4,2,-7,2,4
81990806481,-2,-5,-6,-3,-11,-33,-15,-13
81990806481,-1,1,2,11,-5,10,11,10
81990815522,-1,0,-2,-5,17,12,9,3
81990815522,3,12,2,-5,-20,11,7,-5
81990830359,-4,-6,-7,-25,-5,-12,-9,-2
81990830359,2,0,1,13,2,9,6,21
81990831968,-3,-4,3,15,10,-13,-5,0
81990831968,-6,-4,-13,-66,-4,-4,-6,5
81990852890,2,-1,-2,-14,-17,16,-1,9
81990852890,-1,-1,-2,4,5,-2,-1,-10
81990854497,-2,0,1,48,17,-11,2,10
81990854497,-2,-5,-5,-19,-13,0,-1,3
81990866508,-3,2,5,0,8,1,0,-12
81990866508,-3,1,-7,36,5,1,-4,-6
81990875614,0,-3,7,-20,-14,-1,-5,0
81990875614,0,-4,-2,8,-7,-4,0,15
81990891000,4,-1,1,74,21,-2,10,12
81990891000,-2,0,4,16,14,5,-1,-16
81990896524,0,-1,-5,-34,-16,3,0,3
81990896524,1,-2,5,51,4,-7,-8,-12
81990912861,-5,-2,4,-23,1,5,1,-9
81990912861,1,-4,-9,-26,-34,-10,-1,11
81990914501,0,-2,-6,31,27,2,5,-4
81990914501,-2,3,0,-16,-23,-2,-1,-3
81990926481,-1,-7,-1,1,4,0,-3,9
81990926481,-2,0,5,-36,0,2,7,-13
81990935516,-1,-3,-5,3,8,-7,-3,2
81990935516,0,0,8,36,9,2,0,-6
81990949757,3,-2,-9,-23,-16,0,4,18
81990949757,-4,1,0,-16,5,-4,-11,-14
81990956509,0,0,3,36,5,3,-4,1
81990956509,-1,-2,-1,-4,34,2,5,4
81990972824,-4,0,-4,12,-36,-9,-9,-12
81990972824,-5,-5,-8,-15,-4,7,-1,7
81990974449,-3,-1,1,-9,-8,-11,-5,-4
81990974449,-2,-4,-5,2,1,2,5,0
81990986560,1,0,1,33,37,9,6,-2
81990986560,-3,0,-2,-25,4,0,-1,1
81990995459,0,-1,-1,4,-10,-1,-1,-4
81990995459,0,3,-1,-16,5,-4,-3,-12
81991009782,1,8,3,1,-24,-5,0,-8
81991009782,-2,-19,3,37,11,0,-6,-3
81991016509,1,1,-6,-58,-21,-1,1,-1
81991016509,-2,-4,-1,20,9,-3,-8,-7
81991032587,4,5,3,-92,-18,5,8,10
81991032587,-1,4,1,48,21,3,0,3
81991039028,-1,0,7,-16,-10,-4,-1,-10
81991039028,-1,-5,-10,-13,-14,-3,-4,0
81991046563,-5,-4,0,36,22,-1,-6,-6
81991046563,1,0,-1,-6,-2,2,0,1
81991055476,1,-1,-3,-5,9,0,-3,-1
81991055476,1,3,1,-7,-12,2,1,5
81991069726,-2,1,-1,35,15,1,-1,0
81991069726,0,-4,6,0,11,2,3,-1
81991076476,-2,-3,-8,0,-8,-4,0,1
81991076476,-2,-1,5,35,7,-8,-7,4
81991092878,1,1,-3,-44,-1,8,7,5
81991092878,5,5,2,-19,8,0,0,16
81991094519,-4,-3,-4,64,-4,0,-2,-3
81991094519,0,-2,-2,-14,-6,0,1,-1
81991106486,-3,-3,-3,33,5,-7,-7,-9
81991106486,-1,2,-4,-28,-14,-4,-11,-15
81991115510,1,0,-2,5,21,1,16,12
81991115510,-6,-16,-2,7,-25,-1,-2,-1
81991129736,-2,-2,-2,6,6,-9,-11,-4
81991129736,5,4,0,-21,-18,-1,7,9
81991136457,-3,1,-2,-11,-13,-4,-5,0
81991136457,-1,1,1,7,9,0,3,1
81991152825,-1,-1,3,23,33,6,1,-1
81991152825,-3,-2,-5,8,-9,-8,-6,-7
81991154464,0,3,-1,-50,-13,3,-1,-16
81991154464,0,1,3,35,11,3,3,2
81991175444,-1,-3,-5,-42,-13,-4,-4,-1
81991175444,-3,1,-1,-10,-6,-5,-3,-13
81991176981,-1,-1,1,16,8,1,1,10
81991176981,-1,1,-3,-4,7,-3,-3,-5
81991189705,1,-6,-4,10,-27,-4,0,4
81991189705,-5,2,2,-31,-6,-3,-2,-9
81991196493,3,-1,2,9,6,1,-6,-3
81991196493,-2,1,2,-13,9,1,8,4
81991212874,-3,-2,-7,-4,-11,-1,2,6
81991212874,0,-3,0,-39,-19,-6,-4,8
81991214477,-4,0,10,26,13,3,-1,-8
81991214477,4,2,-15,-24,-2,0,-1,12
81991235376,4,-2,3,-7,6,8,9,3
81991235376,-4,1,3,45,25,-1,0,-6
81991236980,-1,-1,-4,-30,-22,-6,-3,-7
81991236980,-5,-19,-3,4,-2,-2,-4,3
81991249765,-1,2,-2,-14,-9,-7,-3,-9
81991249765,-1,3,-1,36,7,1,-2,-3
81991256475,2,7,-6,-36,-5,-4,-6,0
81991256475,-4,-4,1,28,9,5,-2,-9
81991273364,-2,4,-16,4,-6,-5,-6,-3
81991273364,-6,-22,-10,-9,4,3,3,4
81991274950,-1,-4,1,44,-6,-7,-3,-2
81991274950,-2,8,7,-19,-8,5,-2,9
81991295356,-3,-4,10,-5,0,-5,11,-10
81991295356,-5,-1,-12,-2,-15,-4,-7,-12
81991296973,-8,2,12,17,10,3,4,12
81991296973,8,10,-33,-18,-39,-13,-11,-16
81991309020,-46,-6,8,61,24,5,-5,-34
81991309020,-20,-19,-11,-73,-12,1,2,17
81991325521,-3,-6,21,40,2,0,8,11
81991325521,33,11,10,8,4,-2,-6,-40
81991340310,52,-2,2,-12,6,5,3,22
81991340310,-11,25,-8,-4,-11,-1,4,-18
81991341972,7,-2,30,-6,13,7,4,1
81991341972,29,3,-32,-42,-14,-7,-7,-1
81991355325,-50,-8,6,45,16,1,-6,-5
81991355325,43,10,-3,-35,-10,0,-10,3
81991356961,-21,-37,0,23,-6,-1,10,-23
81991356961,57,44,1,-66,1,7,8,55
81991369007,10,-14,-1,-69,-22,-5,7,44
81991369007,-21,7,18,67,6,-1,-1,-3
81991377987,-21,-5,-42,-30,-21,-4,-1,29
81991377987,-46,-21,35,8,-3,2,-2,-27
81991392831,30,7,-1,19,8,1,-3,25
81991392831,7,12,7,43,22,7,10,-19
81991394457,-12,-6,-23,-95,-36,-6,-5,0
81991394457,-27,-9,16,37,-4,0,-2,-33
81991415384,8,10,-18,-2,2,-17,-7,-10
81991415384,-8,-10,9,34,-16,6,3,-3
81991417024,5,2,-13,13,12,-2,-13,-5
81991417024,-5,-10,8,28,24,-12,-2,22
81991429037,0,0,-16,-51,-12,6,-22,-24
81991429037,-3,-12,7,67,10,5,29,54
81991438056,3,12,-6,-41,-10,-8,6,-15
81991438056,-17,-9,-5,21,4,0,-17,-18
81991452825,7,3,13,56,27,21,19,23
81991452825,-19,-11,-9,-6,0,-3,-18,-15
81991454375,15,10,0,-28,-1,-2,-7,-1
81991454375,-9,-7,13,-5,5,-16,8,7
81991475383,-8,-1,4,17,-6,7,-1,-17
81991475383,18,-4,-9,-10,-4,-4,-8,-5
81991477016,10,6,-1,-9,-10,-10,-1,-4
81991477016,-10,13,-7,9,2,-4,-3,-2
81991489050,-22,-11,-3,4,-3,-4,0,-8
81991489050,15,10,13,-47,-3,-2,2,-1
81991498005,23,3,-9,32,9,0,-7,2
81991498005,-21,-6,10,8,-6,6,5,2
81991514292,10,7,6,-23,-6,0,3,-2
81991514292,-2,0,-8,12,6,-6,-4,-4
81991515953,-2,7,8,4,4,1,-4,-3
81991515953,-4,-8,-9,13,0,8,3,3
81991535334,-4,-2,-5,-8,-16,-11,-2,-9
81991535334,1,-1,1,-26,0,-6,-7,-3
81991536997,-5,-1,-21,22,12,7,-1,-3
81991536997,-2,-13,31,-22,-10,6,8,6
81991549007,6,-11,8,7,4,-1,-1,-1
81991549007,3,2,-13,-62,-14,-6,-4,1
81991558023,-4,-1,-2,5,0,2,0,-1
81991558023,-12,-1,-18,-8,-4,-3,-3,-2
81991572856,6,5,-2,-11,2,-1,0,-3
81991572856,-8,-7,5,33,0,1,1,-2
81991574470,-5,-4,2,0,-1,-2,-1,-3
81991574470,1,-2,-11,-8,3,-1,-1,-2
81991595359,-8,-3,0,-6,-10,-3,-2,-4
81991595359,-1,2,-9,1,2,-2,-2,0
81991596946,-11,-16,2,11,4,1,0,-2
81991596946,6,2,-7,17,-1,2,-1,0
81991610510,-2,1,-7,-30,-7,-3,-1,-2
81991610510,-3,-5,-3,-3,-4,-3,-3,-1
81991618262,-1,-1,2,-11,1,2,-3,1
81991618262,-1,-2,-2,11,5,-1,-3,-1
81991633068,7,4,-3,-2,-4,-3,1,-1
81991633068,-3,-3,1,-8,1,-11,-3,-4
81991634720,-8,-5,-2,-6,-15,8,0,-2
81991634720,9,4,-5,-13,-3,2,4,1
81991655385,-3,0,-1,10,3,3,-1,0
81991655385,-17,1,0,0,-2,-4,-6,-4
81991656955,-2,1,-1,16,7,-17,-1,-1
81991656955,2,-1,-1,-3,2,-5,0,2
81991669039,3,6,-7,7,-4,9,0,-4
81991669039,3,-8,2,2,1,8,4,0
81991677967,1,1,2,-3,1,2,-2,-3
81991677967,-5,-1,-3,-3,-3,-4,-4,-2
81991692151,-4,1,0,-10,-5,-8,-4,-1
81991692151,1,-2,-4,2,-1,0,0,-1
81991699034,2,3,1,-1,0,0,1,0
81991699034,0,-3,-4,-4,1,1,1,0
81991715376,-4,-6,-2,-16,-7,-1,-1,-1
81991715376,5,-1,-2,8,2,-1,4,-2
81991717017,0,0,1,-6,-2,0,-7,-1
81991717017,-3,-2,-2,7,0,-11,-3,0
81991728996,3,-1,-3,5,0,10,6,0
81991728996,-3,-1,0,-1,6,12,7,3
81991738033,1,2,2,0,-1,-4,2,-1
81991738033,-1,2,0,6,-2,-3,0,-1
81991752867,-1,0,0,-11,4,-5,-6,-1
81991752867,2,0,0,-1,-7,1,1,-1
81991754459,1,1,-2,2,4,3,0,0
81991754459,-4,-2,-3,1,1,1,0,0
81991775327,-5,-15,-2,2,-3,-1,-1,2
81991775327,2,-1,0,5,7,1,-1,0
81991776948,1,0,-2,2,-3,-6,-6,-4
81991776948,-4,-4,-3,3,-4,-2,-2,-2
81991789006,12,9,2,-3,-5,-2,2,2
81991789006,-2,-2,0,27,11,8,0,3
81991798046,1,2,3,-1,-1,3,1,2
81991798046,1,1,0,0,5,0,0,-1
81991812904,-6,-1,-3,3,-4,-9,-3,-2
81991812904,3,1,-4,-14,-11,-15,-9,-3
81991814496,6,1,1,8,7,6,4,3
81991814496,-13,4,5,9,4,12,4,-1
81991835397,-4,-1,-5,-17,-8,-3,0,-2
81991835397,-2,-4,-1,-8,-6,-5,-4,-1
81991836983,-3,4,-1,-4,1,2,0,-1
81991836983,8,-6,0,-2,-5,-4,-2,2
81991849037,-5,-9,-1,0,0,1,-3,0
81991849037,-3,0,1,-3,0,-4,-5,-2
81991857967,2,2,-4,-5,-3,-5,-3,-1
81991857967,4,3,-3,-18,-10,6,0,-4
81991872169,0,4,1,25,8,-11,-3,-1
81991872169,0,-1,-1,-8,-13,0,-1,-2
81991879077,-4,-8,1,0,1,2,-3,-3
81991879077,-3,-5,-2,-8,-3,-5,-3,1
81991895383,-2,-1,2,7,1,2,2,-1
81991895383,-2,-1,0,26,4,2,1,-1
81991896997,-1,-2,0,15,6,-3,3,-3
81991896997,0,0,-2,-11,-5,-5,-1,-2
81991908996,-3,-2,0,14,4,5,-8,-1
81991908996,-3,2,-1,-2,-4,-10,-2,-2
81991918016,-2,-6,-3,3,-1,-3,-2,-1
81991918016,1,-2,-2,-3,1,-2,0,0
81991932208,3,4,0,9,7,5,4,1
81991932208,3,13,1,-33,-1,2,-2,-2
81991938982,-3,-3,-1,-2,-5,0,-3,0
81991938982,-1,-1,-4,-6,-4,-1,-1,-2
81991955403,-3,0,-2,-4,1,-5,-3,-2
81991955403,0,0,2,3,-4,-2,-1,-2
81991956951,0,1,-4,-13,-3,0,2,0
81991956951,-1,-2,-1,-1,0,1,-2,-7
81991969024,-2,0,-4,-6,-6,2,1,-3
81991969024,-2,-8,-2,-5,4,-6,-2,1
81991978033,-1,0,-1,-5,-10,-8,-9,-2
81991978033,3,-3,1,7,1,-4,8,4
81991992188,0,-1,-3,-12,3,16,5,-1
81991992188,-3,-4,-3,12,-1,-1,-2,-3
81991999032,-15,-4,-3,-8,2,-4,-2,-6
81991999032,-3,2,-1,-3,-2,1,-6,-1
81992015914,-1,-3,-5,-38,-18,-12,-2,-3
81992015914,-2,-3,0,5,3,-2,4,4
81992017674,3,6,-2,-17,3,9,-3,-1
81992017674,-2,-16,-4,10,5,-4,-2,-3
81992029044,-3,0,-2,-24,-12,-4,-2,-2
81992029044,4,-2,-3,23,8,3,1,-1
81992039531,3,2,1,6,-4,0,-1,2
81992039531,0,3,-1,-9,-3,2,0,0
81992052258,-2,-1,-2,3,0,-3,-3,-3
81992052258,-1,-3,-3,-17,-4,-4,-2,0
81992058989,1,-2,0,11,-3,-4,0,2
81992058989,0,4,1,-1,-2,4,-1,-8
81992075340,-1,-3,2,11,0,-5,-1,1
81992075340,0,-1,0,-5,-4,-2,-3,-3
81992076936,8,18,1,-2,-1,-5,4,2
81992076936,-1,-10,-3,-7,-1,4,-3,2
81992097850,0,0,-1,13,4,-6,-1,-1
81992097850,0,2,-2,-19,-2,0,-1,1
81992099497,-2,-1,1,3,-1,0,-3,-12
81992099497,6,5,-1,1,0,-3,0,7
81992112207,-8,-6,-1,0,2,-1,-1,0
81992112207,-5,1,1,5,-4,1,-4,-1
81992119047,-20,-26,-5,-3,1,-2,-3,-4
81992119047,-18,3,1,-13,-2,-4,-4,-1
81992135356,-2,-3,2,-4,3,-1,-4,1
81992135356,1,3,1,-5,2,-1,1,1
81992137022,-9,-12,-2,-10,-8,-2,0,-1
81992137022,1,-2,-3,25,2,0,-1,-1
81992157825,3,3,-3,-13,-2,-3,-2,-2
81992157825,-5,-7,-4,13,3,0,-1,0
81992159377,8,-1,-3,-8,1,1,1,3
81992159377,3,0,-2,0,-2,-1,3,4
81992172203,3,0,-4,3,-2,-1,0,-1
81992172203,3,-2,-3,-2,-2,0,-1,1
81992179002,3,1,-2,2,-2,-1,1,-1
81992179002,1,3,-1,-6,-3,-3,-1,-4
81992195378,-6,-1,0,4,0,0,-2,-6
81992195378,0,1,-5,-11,-6,-2,-1,-10
81992196986,0,1,2,-1,1,-1,1,-5
81992196986,-2,14,2,-6,-2,-1,-3,-11
81992217862,3,0,4,6,-1,-1,0,-2
81992217862,0,0,5,-2,-2,1,-1,-4
81992219477,-4,-4,0,1,1,-3,-1,5
81992219477,18,7,6,-1,2,1,0,2
81992231564,-2,-1,0,7,3,0,2,-1
81992231564,0,0,-2,-4,-2,-2,1,-2
81992240445,-9,2,-5,-6,-2,-1,-1,11
81992240445,-6,-11,-3,2,0,0,-2,3
81992255331,6,-3,-2,4,-1,0,-2,2
81992255331,-2,-4,-1,-6,0,0,1,6
81992256985,3,-3,-2,-1,-2,0,0,0
81992256985,-6,-2,-6,-3,-1,0,-2,0
81992277825,-10,-3,-3,-1,-1,-2,-3,-4
81992277825,5,10,-3,1,-4,-1,-4,0
81992279518,7,10,2,2,-2,1,-2,-3
81992279518,6,0,-1,-4,-2,-2,-4,-1
81992291550,-1,-1,-3,2,-1,-2,-3,-4
81992291550,-7,-3,-2,-7,-1,1,-2,-4
81992300472,12,5,2,4,2,-1,-1,-3
81992300472,-5,-6,-4,-3,-1,-1,-2,-3
81992315332,-1,2,2,0,-1,-1,-1,-1
81992315332,2,-2,0,8,0,-1,-2,2
81992316935,-3,-3,0,-5,-3,-2,-3,-5
81992316935,-4,-3,0,1,1,-2,-1,-2
81992337868,5,-1,0,-5,-3,-2,-1,-1
81992337868,-24,-25,0,-5,-2,-3,-1,-9
81992339447,7,11,-7,-3,0,-1,1,4
81992339447,-4,-11,-2,0,-1,-1,1,-1
81992351479,0,2,0,0,1,0,1,3
81992351479,-9,-14,-7,-4,-3,-1,-2,-5
81992360544,11,3,2,6,2,0,2,-6
81992360544,2,12,1,-4,-3,0,1,3
81992375353,-4,4,-4,0,0,0,-1,-2
81992375353,9,-2,-1,-2,-2,2,0,1
81992377019,-15,-13,-4,-4,0,-1,-2,-4
81992377019,0,2,0,3,-3,-1,-1,-2
81992397863,-3,-3,-1,-1,-1,-1,1,-2
81992397863,5,8,1,3,0,-1,1,1
81992399466,-6,-3,0,-5,0,0,-3,0
81992399466,-8,-18,-7,-37,-11,-3,-4,-4
81992411567,-1,4,0,5,0,-1,-2,0
81992411567,-1,0,0,-1,-1,-1,-1,0
81992420526,-4,-10,-1,4,1,-1,0,-1
81992420526,-4,0,0,7,1,-2,-2,-3
81992435344,-7,-8,0,3,-1,-2,-2,-1
81992435344,5,6,-4,-14,-7,-2,1,1
81992436968,-6,-1,1,0,-2,0,-1,-2
81992436968,16,1,-3,4,1,-1,0,0
81992457813,-1,3,0,-3,-2,-1,-1,5
81992457813,-1,1,1,4,1,0,-1,-1
81992459397,-2,9,0,-4,-1,-3,-1,-1
81992459397,-5,-8,0,3,-2,-1,-2,-2
81992471492,5,13,-2,1,1,-2,-1,-2
81992471492,22,-6,-1,-4,0,-2,1,2
81992480524,-1,8,0,-2,-4,1,1,-1
81992480524,-4,0,2,7,3,0,-1,-1
81992495383,0,-3,-5,-7,-5,-3,-2,-4
81992495383,-1,12,1,1,-1,-1,-4,0
81992496990,2,-10,-2,1,0,-1,-1,-1
81992496990,2,4,2,7,1,0,1,-1
81992517864,-6,-1,-2,-5,-4,0,-1,-2
81992517864,7,-7,-2,-2,-1,-2,-2,-1
81992519494,-2,-1,0,0,0,1,-1,-1
81992519494,-5,0,-5,-4,-4,-2,-3,-2
81992531584,4,-5,-1,0,1,-1,-1,0
81992531584,-4,-5,-1,-1,-2,-3,-1,-1
81992540451,17,-12,-1,0,-3,-3,1,1
81992540451,-9,1,1,-1,-2,-2,0,2
81992555323,-3,-13,0,1,0,-1,0,-3
81992555323,1,7,1,1,-2,-2,-2,-2
81992556969,-7,18,1,2,0,0,-1,0
81992556969,-4,6,-1,0,0,-1,0,-2
81992577872,2,-3,-2,-1,-2,-1,0,-1
81992577872,-10,-3,-6,-3,-2,1,-1,0
81992579438,6,-14,0,1,-1,-1,-1,0
81992579438,6,17,-1,-9,-8,-3,0,0
81992591549,-4,-1,-1,1,-1,-1,-2,-2
81992591549,-6,3,2,0,0,-1,-2,-2
81992600476,-4,1,0,-3,-2,-3,-2,-1
81992600476,-3,-4,0,0,-1,0,-2,-1
81992615356,0,-2,1,-1,0,-1,-2,-3
81992615356,-2,-3,-2,-3,-3,-2,-1,-1
81992616925,-6,-3,-3,0,2,-3,-1,0
81992616925,4,-4,2,3,4,0,1,-2
81992637890,-2,-3,-2,-1,-2,0,-1,1
81992637890,-3,-4,-1,0,0,-1,0,-1
81992639507,-8,1,-4,-3,-4,-2,-2,-3
81992639507,-3,-7,-2,2,2,1,0,-3
81992651491,0,2,-4,-3,-3,-1,-2,-1
81992651491,-4,1,1,0,0,-2,-2,-2
81992660512,-1,-1,-2,-2,-2,0,-1,-1
81992660512,-1,-2,-5,-3,-1,-2,0,0
81992675346,9,-26,-2,1,0,0,-4,-3
81992675346,-17,-17,0,3,1,-2,-4,-4
81992676985,-1,-6,-4,-2,0,-1,-1,-1
81992676985,-5,1,-3,-3,-2,-3,-4,-1
81992697853,16,10,-1,0,0,2,1,3
81992697853,-1,3,-2,-4,-4,-3,-1,-3
81992699413,-2,-7,3,-1,-2,0,0,0
81992699413,5,-5,-1,1,-1,-2,0,-1
81992711507,-9,3,-1,-1,0,-1,-1,-2
81992711507,7,-7,-2,-1,0,-1,-1,-2
81992720574,-1,4,0,-1,0,0,-1,-1
81992720574,-2,-1,-1,-1,-1,-2,-2,-1
81992735382,-5,0,1,-3,0,-1,1,1
81992735382,-2,6,-4,-1,-1,-1,-2,1
81992736981,-4,8,-1,-1,-3,0,-1,0
81992736981,2,-3,0,0,-1,-1,-1,-2
81992757820,-3,4,0,-1,-2,-2,-2,-3
81992757820,2,1,1,-1,1,-2,1,1
81992759397,17,-5,-3,-1,-1,-1,-2,-1
81992759397,-1,3,0,1,-1,1,-2,-1
81992771468,-4,0,0,-2,-2,-2,-1,-1
81992771468,1,6,-1,0,-3,1,2,-1
81992780470,-2,-9,-6,-3,-4,-2,-1,-2
81992780470,-6,-4,-1,1,-1,0,-1,-2
81992795387,-6,-3,1,-1,-1,-1,-1,0
81992795387,3,-2,0,-1,0,-2,-3,-2
81992797002,-6,-1,-4,-5,-4,-3,-2,-1
81992797002,0,3,0,0,-1,-2,-2,0
81992817858,-3,-17,-3,1,0,-1,0,-2
81992817858,-4,0,1,0,-1,0,0,1
81992819488,-2,1,1,-1,-1,0,-1,-2
81992819488,-7,-14,-3,-3,-2,-2,-2,-2
81992831535,-3,1,-3,-6,-2,0,-1,-2
81992831535,4,8,0,1,1,0,-2,-1
81992840537,-3,-7,0,-1,-2,-1,-1,-1
81992840537,-7,-5,-7,-4,-2,-1,-1,0
81992855343,-18,9,0,1,0,-2,-1,-2
81992855343,-4,-4,-2,-5,-4,-1,-1,-2
81992856968,-3,2,0,1,1,0,-1,-2
81992856968,0,16,0,-3,-2,-3,0,-2
81992877856,4,0,0,-1,-1,0,-1,1
81992877856,1,-1,-4,-7,-3,-2,-1,-2
81992879442,3,-1,0,-3,-1,-1,-1,0
81992879442,-2,-5,-2,1,0,1,-2,-1
81992891500,4,-3,-2,-1,-2,-2,0,0
81992891500,-2,0,0,1,1,-1,0,0
81992900483,-2,1,0,-1,0,-1,-1,0
81992900483,2,-2,1,1,1,-1,1,1
81992915413,-1,6,-7,-5,-3,-1,-1,-1
81992915413,-3,-15,-2,-1,-3,-2,-1,-1
81992916962,-4,0,0,1,-1,-1,0,1
81992916962,-1,-1,-4,-6,-3,-1,-1,-1
81992937916,-2,-7,-1,2,-1,-3,-4,-5
81992937916,-5,1,3,5,4,3,1,0
81992939486,12,-17,-4,-3,-1,1,1,-1
81992939486,-4,-2,0,-2,1,0,-2,-1
81992951489,4,10,0,-4,-4,-3,-1,-1
81992951489,15,7,-1,1,-1,0,-1,-1
81992960520,-10,2,0,3,1,1,0,-1
81992960520,6,-2,2,1,-1,0,0,0
81992982838,0,0,-2,-1,-1,0,0,0
81992982838,5,-1,-1,1,-1,0,0,-2
81992984399,-7,-1,-4,-1,-1,0,0,-1
81992984399,-2,3,-2,0,-2,-1,-2,-2
81992997847,-4,-21,-6,-3,0,-2,-1,1
81992997847,-3,15,3,0,-1,0,-1,1
81992999394,-3,2,-1,0,-1,-2,-1,-3
81992999394,-1,-6,-2,0,-1,-1,1,-1
81993020763,10,9,6,2,0,0,1,-1
81993020763,-4,-7,-3,-4,-3,-2,-1,-1
81993022505,-1,-4,0,-1,-1,-2,-2,-3
81993022505,-3,1,1,0,1,-1,-1,-1
81993035343,-5,0,-2,-1,0,0,-1,-1
81993035343,-4,-5,2,-2,-2,-2,0,-2
81993036972,-8,0,-6,-2,0,0,0,0
81993036972,1,19,0,0,-2,-1,0,-2
81993057886,-2,1,4,3,0,0,-1,-1
81993057886,-3,-3,-3,0,0,-1,-1,-1
81993059489,3,1,3,1,-1,-3,-1,0
81993059489,-1,-1,0,-1,-2,-2,-1,-3
81993080329,2,1,-1,-2,-1,-1,0,-1
81993080329,-23,-11,-11,-6,-5,-2,-2,-5
81993081956,5,-4,2,3,0,0,0,-1
81993081956,0,-7,1,-2,-2,1,0,1
81993095314,-14,-3,-2,-1,-2,-3,-3,-5
81993095314,-5,-9,0,-1,-1,-2,1,0
81993096923,0,8,-2,-2,-3,-2,-3,-1
81993096923,-3,-29,-6,-1,-3,-2,-2,-2
81993117870,5,1,-1,-2,-1,1,0,-1
81993117870,5,13,2,0,-1,-1,-3,1
81993119471,-4,-2,-1,-3,0,-1,-1,-1
81993119471,-2,5,-1,1,2,-1,-1,-1
81993140331,-4,-1,-4,-2,-2,-2,-2,-2
81993140331,5,-4,1,3,1,1,-1,-2
81993141963,-2,2,0,-3,-2,-2,-2,0
81993141963,-7,-6,-3,-1,0,-2,-1,-1
81993155335,1,5,-2,-3,-2,-2,-2,-2
81993155335,0,-1,0,-1,-1,0,0,-1
81993156938,1,-4,-2,-2,-1,-1,-1,2
81993156938,-9,1,-3,-3,-2,-1,-3,-3
81993177857,0,-2,-2,3,1,1,0,0
81993177857,-5,-35,-6,-3,-3,-2,-2,0
81993179478,-8,2,0,-3,-2,-2,0,-2
81993179478,-1,8,-1,-3,1,-1,-1,1
81993200344,-2,-3,0,-1,-3,-1,0,0
81993200344,-1,5,-1,0,1,-2,-1,-1
81993201940,5,16,-3,-1,-1,-1,-1,-2
81993201940,3,-11,1,-2,-1,-2,0,1
81993214727,2,5,-1,0,-2,-1,0,0
81993214727,3,9,2,0,0,0,1,1
81993221507,1,1,1,0,0,-2,-1,-1
81993221507,1,6,-4,-4,-3,-2,0,-1
81993237901,-2,1,0,-1,0,0,-1,1
81993237901,-5,-19,-6,-6,-5,-3,-5,-5
81993239499,-3,-9,-1,-1,0,-1,-2,-3
81993239499,-1,-4,-2,1,-1,-1,-1,-1
81993260320,10,7,6,1,1,2,2,3
81993260320,-1,8,-2,0,0,-1,1,0
81993261941,-9,-20,0,-1,-1,0,0,-1
81993261941,7,7,0,-2,-4,-3,-2,-1
81993282848,-2,-5,-3,-1,-3,-2,-2,-1
81993282848,-3,5,1,0,1,0,0,-1
81993284507,-1,1,-2,-1,-2,-1,-3,-2
81993284507,2,4,1,-2,-2,-2,-2,0
81993297867,-5,-21,-4,-2,-1,-3,-2,-3
81993297867,3,6,-1,0,-1,-1,-1,-3
81993299515,-2,-5,-2,-2,0,-2,0,-1
81993299515,1,0,-3,1,0,0,0,-1
81993320325,6,15,0,0,1,-2,-1,-3
81993320325,-6,-25,-3,-1,1,0,-1,-1
81993321909,0,0,-1,-3,-4,-1,0,0
81993321909,-2,-3,1,-2,-2,0,-1,-2
81993334765,-2,3,0,-2,-1,0,-2,-2
81993334765,10,5,-5,0,-3,-2,-2,-2
81993341532,-4,-1,0,0,-1,0,0,0
81993341532,15,3,1,-1,1,-1,1,0
81993357880,-5,-6,-1,-4,-2,-3,-1,-2
81993357880,1,8,0,-1,0,-1,-1,-2
81993359487,-1,0,-2,-3,0,-2,-3,-2
81993359487,-4,4,0,-1,-3,-2,-2,-1
81993380349,0,-12,-2,1,1,-2,-1,0
81993380349,-1,4,2,0,-1,0,1,1
81993381972,-1,1,-3,0,-3,-3,1,-2
81993381972,-5,-6,1,-1,0,0,-2,-1
81993394735,3,10,-1,-1,1,-2,-3,-2
81993394735,-5,2,0,-2,-2,1,-2,0
81993401531,-1,-3,-4,-1,0,1,-2,1
81993401531,6,17,2,0,0,0,1,-1
81993417828,-15,-6,-2,-1,-1,0,-1,-2
81993417828,2,21,1,-2,-2,0,0,-1
81993419431,12,-7,-2,0,-1,-1,-2,1
81993419431,-1,-7,-4,-1,-1,-1,-2,-2
81993440326,-3,1,-1,-2,0,-1,-1,-1
81993440326,0,18,0,0,-1,-1,-3,1
81993441988,-5,1,-3,-2,0,-2,-2,-1
81993441988,-14,0,0,-1,0,-1,-1,-1
81993454732,1,7,-3,-4,-3,-2,0,0
81993454732,-1,-2,-2,-3,-1,-2,-2,-2
81993461501,-1,1,1,-2,0,0,0,-2
81993461501,-5,-7,-2,0,-2,-1,-2,-1
81993477839,3,2,3,0,0,1,0,2
81993477839,-1,-6,-1,-3,-1,-3,-3,-1
81993479390,-4,4,-2,-1,0,-2,0,-1
81993479390,-3,-13,1,1,-1,0,0,-2
81993500359,-4,-7,-3,0,0,-1,-2,-3
81993500359,-6,-9,-2,-3,-3,-3,0,-2
81993501973,1,-1,-1,-2,-2,-1,-1,-1
81993501973,-1,-4,-3,-2,-1,-1,0,-1
81993513993,16,-12,-3,-1,-2,-2,-3,-2
81993513993,-1,-2,1,0,0,-2,-1,2
81993523008,-10,17,-1,1,0,-2,-1,-3
81993523008,-10,13,-6,-6,-4,-3,-5,-3
81993537896,3,3,0,1,-1,-1,-1,-1
81993537896,-12,-6,-1,-1,0,0,-1,-3
81993539480,-8,8,-1,-2,-2,-2,-3,-2
81993539480,-14,-8,-3,0,0,0,0,0
81993560349,11,14,1,0,-1,-3,0,0
81993560349,3,1,-3,0,-2,-2,-1,1
81993561941,1,1,0,-5,-3,-1,0,0
81993561941,-1,-4,-2,-1,0,-1,-1,-2
81993573983,-9,-8,-1,-2,-1,-1,-1,-2
81993573983,1,-10,-2,1,-1,-1,1,1
81993583064,7,-5,1,-2,-3,-2,-2,-1
81993583064,-1,-11,-2,-1,0,1,0,-1
81993597867,-4,-3,-4,-5,-1,-1,0,-1
81993597867,5,4,0,0,0,0,-1,0
81993599488,-3,-10,-2,2,0,0,-1,-2
81993599488,4,1,-3,-3,-3,-2,1,-2
81993620347,-10,-22,-1,1,-1,0,-2,-2
81993620347,2,-1,0,-1,0,-1,0,-1
81993621962,0,-5,-4,-2,-2,-1,1,1
81993621962,2,-2,2,1,1,0,-1,0
81993634015,-3,4,-4,-2,-3,-1,-1,1
81993634015,6,2,1,-1,-2,0,0,-1
81993642954,-1,-12,-4,-5,-3,-3,-3,-3
81993642954,-3,-18,-3,2,1,-1,0,-1
81993657852,-3,4,1,-2,0,-1,0,0
81993657852,-4,-5,-3,-2,-3,0,-1,0
81993659492,-5,9,-2,0,-1,-1,-1,1
81993659492,-6,-40,0,-1,-2,-2,-3,0
81993680335,-3,1,-3,-3,-3,-2,0,-1
81993680335,9,-4,1,2,-1,-2,-1,-1
81993681922,-1,-14,1,0,1,0,-1,-2
81993681922,-7,10,0,0,-2,-2,0,0
81993694017,16,2,2,0,2,1,1,-1
81993694017,-4,-2,-1,0,-2,-2,0,-2
81993702991,0,3,0,3,0,-2,-1,-1
81993702991,4,11,1,0,-1,1,-1,0
81993717845,-6,-4,-3,-1,-2,-1,-2,-1
81993717845,5,5,-2,-3,-1,-1,-2,-2
81993719375,-2,3,1,0,0,0,0,-1
81993719375,0,1,-3,-5,-3,1,1,0
81993740332,-3,-4,-1,-1,-1,-1,-1,0
81993740332,-2,-2,0,-2,-1,-1,-3,-2
81993741985,-5,-7,-6,-1,-1,-2,0,0
81993741985,14,19,1,1,0,-1,-2,1
81993753953,-14,-16,-3,-2,-1,-2,0,-3
81993753953,-3,-1,-1,0,0,0,-1,0
81993762990,-5,15,1,1,0,-1,-1,-3
81993762990,-2,7,-2,-1,0,-2,-1,-2
81993777842,0,3,-1,-1,-2,-1,-1,-2
81993777842,-6,-9,-2,0,1,-1,0,0
81993779399,10,1,0,-1,-2,-2,-1,-2
81993779399,-6,0,-3,-2,0,-3,-2,-4
81993800362,-6,-5,-2,2,1,-1,-1,0
81993800362,-4,-1,-6,-5,-2,0,0,1
81993801978,8,2,1,1,0,0,-1,2
81993801978,1,15,2,2,0,-1,0,-3
81993813963,16,-1,-2,-5,-3,-3,-2,0
81993813963,-4,9,0,3,2,-1,0,-1
81993822972,-10,-12,-4,-4,-2,-2,-1,-3
81993822972,-3,-4,1,1,0,0,0,-1
81993837866,-7,-1,0,0,-3,-1,-1,-1
81993837866,4,-3,-3,0,-3,-3,-2,-2
81993839500,-1,-1,0,0,1,0,-1,-1
81993839500,7,-3,-1,-3,0,0,0,2
81993860340,-4,12,1,0,0,-1,0,-2
81993860340,0,-12,0,0,-2,0,0,-1
81993861947,-1,1,0,-1,-1,0,0,-2
81993861947,-2,1,0,-1,-2,-2,0,0
81993873937,1,-4,-2,-2,1,-2,-1,0
81993873937,-12,-2,-2,-1,-1,-1,-2,-8
81993882995,-3,-15,-1,-2,-1,-2,1,0
81993882995,2,-8,-2,-1,-2,-1,-2,-1
81993897817,-5,9,-2,-3,-1,0,-2,0
81993897817,-3,-8,-4,-2,-3,-2,-1,-3
81993899452,18,-3,0,-1,-3,-1,-2,0
81993899452,-1,-2,-2,-4,-3,-1,-2,-1
81993920341,-17,-12,-4,-1,-1,1,-2,-3
81993920341,-2,6,2,0,0,1,-1,0
81993921925,-6,-3,-3,-2,-2,-2,-3,-4
81993921925,6,16,2,1,0,-1,0,1
81993934003,-1,3,-2,2,0,0,-1,-2
81993934003,4,4,-1,-1,0,-1,-1,1
81993942971,3,-1,-1,1,-1,-1,0,0
81993942971,-2,-1,-2,-3,-2,-2,-2,-2
81993957865,-3,4,-1,0,1,-2,-1,-1
81993957865,-8,-16,-1,0,0,-1,-1,0
81993959492,0,2,-3,-4,0,2,-1,1
81993959492,1,0,-1,-1,-1,-1,-2,-2
81993980337,0,-30,-2,-1,-2,-2,0,-3
81993980337,2,4,0,-2,-1,-1,-2,-1
81993981931,14,-4,-4,0,-2,-3,-2,0
81993981931,1,-9,2,1,-2,0,0,3
81994002897,18,28,5,2,0,0,2,1
81994002897,0,0,-1,-1,-1,-2,0,-1
81994005361,-7,9,-2,-4,0,0,-1,-2
81994005361,-5,-2,-3,1,0,0,0,-2
81994017833,7,15,-1,0,0,-1,-2,0
81994017833,3,-9,-1,-2,-2,0,-2,2
81994019466,-3,4,3,3,1,2,-2,-1
81994019466,-6,-8,-5,-2,0,-1,-3,-8
81994040367,-3,-3,-3,-2,-2,1,1,-1
81994040367,-6,9,-1,-2,-2,0,-2,-1
81994042311,-14,-8,2,-1,0,-1,-1,-1
81994042311,-3,-3,-1,-1,0,-2,-2,-3
81994062832,-8,-27,-2,-1,0,0,-1,-1
81994062832,-2,0,-4,-2,-3,-2,-1,0
81994064454,3,3,1,0,-1,-3,0,-5
81994064454,0,-4,0,-2,-1,0,0,0
81994077838,0,25,2,-2,-2,-2,-2,-1
81994077838,-6,-5,0,-2,-1,-2,0,0
81994080398,-9,4,1,0,-2,-1,-1,-2
81994080398,-2,1,-2,0,-1,-3,-1,-1
81994100366,-7,-2,0,0,-3,0,-1,-1
81994100366,-16,0,-2,-2,-2,-1,-3,-5
81994101965,-2,-1,-2,-1,-2,-2,-2,2
81994101965,1,1,1,-2,0,-1,0,2
81994122903,-2,-4,1,0,-1,-2,-3,-1
81994122903,8,-1,0,-1,-2,-2,-1,-2
81994124437,3,-6,-3,-2,-2,-1,-1,1
81994124437,-8,1,-3,-2,-1,-2,-1,-1
81994137246,3,-2,-2,-1,-3,-1,-3,-6
81994137246,5,8,0,-1,-2,0,1,6
81994143956,-2,-20,-4,-3,-3,-1,-2,0
81994143956,1,-1,1,-2,-2,-1,0,-1
81994160313,-1,2,-2,0,0,1,-1,-1
81994160313,-6,0,-4,-1,-1,-2,-1,-3
81994161984,2,12,2,1,1,3,-1,0
81994161984,0,-4,-5,-2,-2,-1,-1,-1
81994182842,-3,-16,-1,-3,-1,-4,-1,1
81994182842,-15,8,0,-2,1,0,0,0
81994184463,-2,1,0,0,0,-2,-1,-1
81994184463,1,0,-2,-1,-2,-2,-1,-3
81994197165,9,6,0,1,0,0,-1,0
81994197165,15,16,1,2,1,0,0,-2
81994204017,-4,-1,2,-1,0,-1,1,-2
81994204017,-2,-4,0,0,-1,-1,-3,0
81994220805,-6,-1,-1,0,1,-3,-1,1
81994220805,3,-6,-2,0,0,0,0,-1
81994222381,3,-1,-6,-5,-4,-2,-2,-1
81994222381,-2,-1,1,0,1,-1,-1,-1
81994242863,-1,1,-5,-3,-3,-1,-2,1
81994242863,-2,-5,-2,-1,0,0,-1,-2
81994244464,18,15,1,1,0,0,1,3
81994244464,-4,-26,-4,-2,-1,-1,-2,-1
81994257184,-3,0,-1,-3,-2,-1,-1,-1
81994257184,5,-3,0,0,-2,0,-1,0
81994263990,2,13,-5,-4,-2,-3,-3,-2
81994263990,-7,-5,1,0,0,-2,1,2
81994280372,2,-1,-1,-2,-1,0,0,1
81994280372,-11,-7,-1,-3,-1,-2,-1,-4
81994281929,-5,-5,2,1,-1,1,0,-2
81994281929,9,8,1,0,-1,-2,-2,-1
81994302837,-14,-8,-5,-1,0,-1,-2,-2
81994302837,6,1,0,-2,-2,-2,0,0
81994304477,-20,-5,-2,0,-1,-2,-1,0
81994304477,14,-10,3,2,-2,0,0,2
81994317210,-3,-4,-1,1,-2,0,-1,-2
81994317210,5,3,-1,-1,-1,-1,-3,-1
81994323993,-6,-5,-3,-1,0,-1,-1,-5
81994323993,-4,6,-4,-3,-1,-2,0,-2
81994340338,3,-16,-2,-2,-2,-1,0,-1
81994340338,7,-3,-1,0,0,1,-2,0
81994341951,-2,-6,-4,-2,0,-1,-1,-2
81994341951,-4,5,-1,-1,-1,1,0,-2
81994362854,1,4,-1,0,0,-1,-1,-2
81994362854,-2,0,0,1,-2,0,0,-2
81994364438,-3,-13,-2,-4,-4,-2,-2,-3
81994364438,13,2,-3,-3,-2,-1,-1,6
81994377162,1,9,2,1,0,-1,-1,1
81994377162,-1,-8,-4,-1,0,-2,-3,-2
81994384003,-5,-2,0,1,-1,-1,-3,0
81994384003,1,4,1,1,1,1,1,0
81994400329,1,10,-1,-4,-2,-3,-2,-3
81994400329,3,-1,1,-1,-1,-1,-1,0
81994401966,-8,-20,1,0,-1,-1,-1,1
81994401966,-12,1,-2,-1,-2,-3,-3,-4
81994422853,-11,-4,1,2,0,-1,0,1
81994422853,-1,2,-3,-1,-1,-1,-2,-2
81994424444,2,13,-4,-2,-1,-2,0,-3
81994424444,-7,-27,-4,-1,-2,-1,-1,-2
81994437211,4,2,-1,0,-1,0,1,-1
81994437211,-12,-6,-7,-2,-2,-2,-2,-3
81994444003,4,2,0,1,0,0,-1,-2
81994444003,-3,6,-2,-1,-2,-2,0,-2
81994460351,-1,1,-1,0,-1,-2,-2,0
81994460351,3,-7,-3,-1,-2,-2,-1,-1
81994461995,2,0,0,-1,-1,-1,-2,0
81994461995,-5,1,-1,-1,-2,-1,-2,-2
81994482847,7,4,4,0,-1,0,-1,-4
81994482847,0,13,1,-1,-1,-1,-1,-2
81994484461,-21,-11,-4,-2,-3,-2,0,-2
81994484461,-1,1,-1,0,0,-2,-1,-3
81994496524,0,-3,-2,0,0,-2,-2,-1
81994496524,-5,-6,-3,-2,-2,1,0,2
81994505473,7,6,3,1,0,-1,1,2
81994505473,-9,-7,-4,-2,-1,-1,-2,-4
81994520319,-2,14,0,0,0,1,-3,-1
81994520319,3,-20,-3,-2,0,-2,-2,-2
81994521938,-3,4,1,1,1,0,-1,-3
81994521938,6,5,-2,-2,0,-1,0,0
81994542863,14,-1,-1,-2,-2,-1,-1,1
81994542863,-2,4,3,3,-1,-1,-1,-2
81994544452,7,3,-5,-3,-4,-3,-1,-2
81994544452,2,7,-1,0,-2,-1,-1,0
81994556541,-6,0,-2,1,1,-1,0,-1
81994556541,16,-9,0,-1,0,-1,-1,1
81994565474,2,-3,-2,-2,-2,0,-1,1
81994565474,-5,1,0,0,0,-1,-4,-2
81994580342,9,-5,-2,-3,-2,-2,0,-1
81994580342,-7,7,0,-3,-3,-1,1,1
81994581923,-2,-1,2,0,0,-2,-2,0
81994581923,3,-4,-4,-2,-1,1,0,0
81994602833,-1,-7,-1,-2,-2,-2,-2,0
81994602833,-1,6,-1,-1,-1,-1,-2,-1
81994604499,3,-3,-4,-3,-2,-1,-1,0
81994604499,-4,2,3,3,-1,0,-2,-2
81994624662,-7,0,-3,-5,-4,-1,-2,-2
81994624662,-1,10,-1,-1,-1,-2,-1,-1
81994625456,9,-5,1,-1,-1,-1,-1,0
81994625456,-4,0,2,-2,-1,-3,-1,-3
81994639625,-6,0,0,1,-1,-1,0,-2
81994639625,-3,0,-4,0,-2,-2,-1,0
81994640451,5,1,0,-1,0,0,0,-1
81994640451,-9,-4,-4,-2,-2,-1,-4,-3
81994662162,-4,-10,-3,-1,-1,0,-1,1
81994662162,-21,-2,2,1,0,-1,-1,-3
81994662942,-2,-4,-1,0,-2,0,-2,0
81994662942,-3,-4,-3,-2,-2,-2,-1,-3
81994684647,-5,0,-3,-1,0,-1,-2,-2
81994684647,2,-8,-4,-4,-1,-2,-1,0
81994685448,-5,2,-1,-1,-1,-2,-1,-1
81994685448,2,3,3,-1,0,0,0,2
