timestamp,emg1,emg2,emg3,emg4,emg5,emg6,emg7,emg8
86079333516,-2,-3,-1,-3,-4,0,0,1
86079333516,-1,0,-1,-3,-1,-2,-2,-3
86079334340,0,0,-3,-1,-1,0,0,-2
86079334340,-2,-1,-1,-1,-1,-1,-1,-7
86079356073,0,0,-1,-1,0,-1,0,5
86079356073,-3,0,0,1,-2,0,-1,-2
86079356840,3,-3,-2,-1,-1,-3,0,0
86079356840,-5,-2,-2,-1,-2,-1,-1,8
86079379197,-1,-2,-1,-2,-2,-2,-1,-2
86079379197,-2,1,-1,-1,0,-2,-2,-5
86079379924,-1,0,0,-2,-2,-1,1,-3
86079379924,-1,-1,-1,-1,-1,0,-1,2
86079393523,-2,-2,-2,0,-1,-1,-3,-5
86079393523,-2,-1,0,-1,-1,-1,1,-1
86079394288,-2,-1,0,-2,1,-1,-1,-1
86079394288,1,-1,-1,1,0,-1,-2,-1
86079415970,-1,-2,0,0,-1,-1,-2,-4
86079415970,1,-2,-1,1,0,0,1,5
86079416826,0,-2,-1,0,-3,-1,-1,0
86079416826,-1,-2,0,-3,0,-4,-1,-2
86079430328,-2,-1,0,0,1,-2,-2,3
86079430328,-1,-2,-3,-1,-1,-1,-4,-6
86079438587,-1,-1,-1,-1,-1,1,-3,1
86079438587,0,-1,-2,0,-1,-2,-2,0
86079453485,-2,0,-1,-1,-2,-1,-1,1
86079453485,1,0,-1,-2,-3,0,-2,1
86079454330,1,-2,1,-1,0,0,-2,-7
86079454330,0,-2,-1,-1,0,-1,0,6
86079476512,-2,0,-1,0,-1,-1,0,-2
86079476512,-3,0,0,0,-1,-3,-3,-5
86079477381,-1,-1,-2,0,-1,0,1,1
86079477381,2,-2,-2,-3,-1,0,-2,-8
86079490369,0,-3,-1,-2,-2,-1,-1,9
86079490369,-2,-1,0,-1,0,0,-1,-1
86079498625,-2,0,0,-2,-2,-2,-1,0
86079498625,1,0,-2,-1,-1,-1,-3,-3
86079513486,-2,1,-1,-1,-1,-1,-2,0
86079513486,-1,-2,-2,-2,-2,0,-3,-4
86079514304,-2,1,-1,0,-1,-3,-1,-1
86079514304,-2,-1,-1,0,-1,-1,-2,-3
86079536058,0,-1,-2,0,-1,0,-1,-2
86079536058,1,0,-1,-2,-1,-1,0,-4
86079536772,3,1,1,-1,-2,-2,-1,-6
86079536772,-2,1,1,0,-2,2,2,7
86079550461,0,-1,-2,-1,-2,1,0,1
86079550461,1,-3,-2,-2,0,-2,-1,0
86079558552,0,-1,-1,0,-1,-1,-1,0
86079558552,-2,-1,-1,0,-3,0,-2,-5
86079573499,0,0,0,0,0,0,-2,-5
86079573499,-1,0,-1,-1,-3,-1,-2,2
86079574413,-2,-2,-1,-1,-1,-2,-2,2
86079574413,-1,-2,0,0,-2,-2,-2,-2
86079596076,0,-2,-1,-2,-1,-1,-1,-4
86079596076,-2,-2,-2,-1,1,-1,0,-2
86079596859,-4,-1,-1,-1,0,0,-1,-4
86079596859,-1,-1,0,0,0,0,0,-2
86079610345,0,-1,-2,-1,-1,-1,-2,-3
86079610345,-3,-3,-4,1,-1,-1,-2,-4
86079618571,-1,-2,0,-1,-1,-1,-1,6
86079618571,0,-2,-2,-2,-2,0,-1,-2
86079633564,0,0,0,-1,0,-1,0,0
86079633564,-2,-1,2,0,0,-1,0,-3
86079634298,0,-2,-2,0,0,-2,-2,-3
86079634298,-3,1,-1,-2,0,-2,-1,8
86079656037,-1,-2,1,-1,-2,-2,0,-1
86079656037,-1,0,-2,1,-3,-3,0,0
86079656830,0,-2,0,1,-3,-1,-2,1
86079656830,1,-2,-3,-3,1,-2,-3,-3
86079670333,-1,-1,-1,-1,1,-2,-1,-3
86079670333,0,-1,-2,-2,-1,-1,0,2
86079678562,-2,0,0,-2,-1,-1,-1,-1
86079678562,-2,-2,-4,-1,-3,-8,-2,-4
86079693508,-3,-1,1,0,-2,1,-3,0
86079693508,2,1,0,-1,0,-2,-2,-2
86079694335,-3,-4,-4,-1,-1,3,2,1
86079694335,-1,-1,0,-2,-4,-1,2,-4
86079716035,0,-1,-1,-2,1,-2,-4,-1
86079716035,1,-1,1,0,1,9,2,8
86079716807,-2,-2,-5,-4,-1,-3,1,-3
86079716807,0,0,0,5,-1,-1,-4,-2
86079730390,1,-2,-5,-13,-3,-5,-6,-3
86079730390,0,-2,3,13,-1,-2,-2,-1
86079738531,0,1,-1,52,7,3,-1,0
86079738531,0,-1,-4,-42,-4,2,1,0
86079753532,-1,0,0,-10,-4,-10,-1,-4
86079753532,-1,-1,-4,13,2,-6,-5,-8
86079754310,-3,-5,-10,-50,-16,-1,1,1
86079754310,-2,1,6,31,13,4,-2,-7
86079776004,1,0,3,7,3,6,1,5
86079776004,1,0,-4,-15,-3,3,1,-7
86079776794,0,0,3,6,1,-15,-1,11
86079776794,0,0,0,12,-2,12,-1,0
86079798564,-2,-2,-3,-15,-3,-13,2,1
86079798564,-1,-1,-2,21,-1,10,-8,-2
86079799313,-1,-3,-1,-39,-8,-18,4,-12
86079799313,-3,-1,-6,17,-2,-2,-13,-3
86079813531,2,2,5,24,8,-1,8,-1
86079813531,-4,0,2,10,-2,-4,6,9
86079814260,6,0,0,4,2,0,-13,-73
86079814260,7,-1,0,-10,-3,4,9,75
86079836036,-5,-5,-4,-1,-9,-1,-1,-3
86079836036,-1,-3,-3,-14,0,-6,-13,4
86079836893,-15,-1,-2,-6,1,7,-2,-10
86079836893,-2,-3,-3,-9,-7,-23,-8,-20
86079858488,5,1,-2,4,-7,-13,6,28
86079858488,-4,0,3,-13,1,-11,10,29
86079859287,-3,3,1,10,13,19,-9,-6
86079859287,-2,1,1,1,12,16,23,-14
86079873492,2,-6,-5,-6,-8,3,-22,11
86079873492,-5,-3,-2,-9,-3,-1,-4,-21
86079874316,14,2,-1,6,6,-33,0,13
86079874316,3,-3,-2,-6,-10,-10,-3,39
86079896003,-1,-5,-1,1,-10,-27,2,-6
86079896003,-1,5,-2,-6,-23,18,4,-37
86079896818,5,-3,0,3,24,74,10,117
86079896818,-10,0,-2,-6,3,-31,-6,-99
86079918512,24,-3,-4,-3,0,-29,20,99
86079918512,0,-3,-1,-5,6,14,-29,-9
86079919285,-5,-1,1,9,6,50,2,-25
86079919285,17,17,0,-4,0,-29,-2,-5
86079933486,-32,-14,-1,-1,-14,-1,-3,-40
86079933486,5,3,-2,-2,4,-6,6,-43
86079934304,7,-1,-2,-9,-16,14,21,77
86079934304,9,-5,-1,-1,-2,-15,6,-6
86079956036,3,9,4,-1,-3,-11,-23,-29
86079956036,9,-3,-2,0,16,60,2,36
86079956860,-11,-1,14,10,-10,-58,-31,-56
86079956860,-1,-6,-7,1,19,20,47,-2
86079978549,3,3,3,6,19,29,8,49
86079978549,-10,-4,2,-5,-6,-28,-19,-16
86079979321,-5,-4,-11,-13,-43,-43,-46,-39
86079979321,-3,-3,2,5,-1,23,12,60
86079993518,-8,2,8,4,2,4,-2,-6
86079993518,4,0,-1,1,16,14,6,53
86079994273,3,0,-2,7,20,10,14,12
86079994273,-13,-7,-10,-9,-32,-75,-39,-46
86080016035,-3,-2,-2,-2,-4,35,29,-19
86080016035,-4,-1,0,-5,-5,-13,-8,-31
86080016881,-1,-3,-5,-12,-20,4,11,12
86080016881,-9,-2,1,-7,0,11,-25,-13
86080038534,2,5,3,5,22,89,39,10
86080038534,0,1,-1,-7,-10,-100,-12,-23
86080039297,-5,2,-5,2,20,5,13,-14
86080039297,1,-1,2,-4,-18,49,6,26
86080053497,-12,1,0,-6,-3,-20,-40,-91
86080053497,4,-7,-11,-1,12,90,65,43
86080054347,-3,5,21,45,-18,-86,-35,-49
86080054347,1,-2,-11,-15,19,49,-11,19
86080076135,1,2,-3,-26,-7,-101,-37,-42
86080076135,-3,-11,0,23,-18,-36,-10,9
86080076848,-4,-4,-7,-46,22,107,33,-3
86080076848,-13,-9,-11,9,15,18,66,-4
86080098479,-5,-5,-5,19,-15,35,-39,6
86080098479,-4,4,1,-19,18,-47,-16,-12
86080099310,-10,-1,-12,50,-5,-35,-6,16
86080099310,-6,4,4,-11,-19,-5,-1,-7
86080113524,-10,-6,-15,-15,7,43,30,-9
86080113524,10,3,7,8,8,28,15,31
86080114305,10,-5,0,22,-35,-89,-20,-25
86080114305,-7,3,4,-13,39,102,-1,-18
86080136005,15,3,10,52,29,-35,-17,33
86080136005,-6,-6,-17,-16,-33,-9,-15,-21
86080136813,4,-1,-7,-41,9,60,35,-4
86080136813,5,1,-9,-20,-33,-108,-21,2
86080158578,-14,-6,-22,2,-23,-22,5,13
86080158578,-13,0,-5,7,15,27,-36,-48
86080159350,7,5,5,-53,8,17,45,32
86080159350,-9,-6,8,25,1,12,6,-51
86080173726,8,-1,4,3,28,24,-1,-10
86080173726,1,1,3,-12,-19,-1,12,-8
86080174372,-11,-2,0,22,-12,-44,-40,-14
86080174372,-7,1,18,-19,-19,-2,-15,-45
86080196567,5,-2,12,-6,-7,7,7,-39
86080196567,0,0,-1,-19,-5,11,2,-5
86080197342,-3,-3,6,10,-6,2,4,-14
86080197342,6,1,-7,23,25,13,-4,30
86080218740,-4,2,5,-23,-19,19,7,-10
86080218740,-1,5,27,17,-25,-65,-7,27
86080219315,-7,-6,7,17,14,8,-10,-16
86080219315,-1,0,12,11,2,-34,-33,9
86080234347,-10,0,-3,12,6,4,2,-62
86080234347,32,-1,-4,-24,0,16,9,89
86080241386,3,3,-6,-21,-12,5,-21,6
86080241386,-11,2,-5,11,-3,-47,-7,-58
86080256009,7,1,15,1,3,21,5,71
86080256009,-11,-5,-7,9,8,-16,16,-28
86080256802,-21,-13,-10,-13,-19,-4,-43,11
86080256802,16,-3,-1,3,17,26,58,30
86080278820,10,12,-18,-5,-6,1,-4,77
86080278820,18,-11,-31,7,10,-3,18,37
86080279286,-11,4,-36,1,5,-12,12,-51
86080279286,-17,-3,-27,-6,-24,-9,-21,7
86080293727,10,4,-26,-17,-20,-12,31,61
86080293727,-23,-9,1,17,16,-10,-58,-51
86080294387,8,3,27,-4,20,41,29,-9
86080294387,2,1,-4,6,5,-14,28,-10
86080316112,-8,-2,-9,-11,-13,-24,-15,-34
86080316112,37,22,40,-4,-1,8,15,71
86080316792,-4,-5,-29,4,2,-9,-35,-67
86080316792,-27,6,4,-12,-25,17,21,-83
86080338758,19,1,23,4,14,6,-27,-43
86080338758,-54,-5,-24,-2,-1,2,30,-41
86080339307,35,2,-39,-1,5,-14,-13,26
86080339307,-4,0,-3,2,4,9,-38,-43
86080353735,31,-3,-23,-9,-15,-16,11,-1
86080353735,-79,-12,-19,2,-12,5,22,-127
86080354302,-39,-5,18,-24,-37,-31,16,-32
86080354302,-32,-10,-27,8,38,-18,-29,88
86080376017,-55,3,-53,-1,5,6,-14,-101
86080376017,36,-13,-11,-3,8,18,-20,-45
86080376859,-6,6,61,8,-4,11,101,127
86080376859,30,3,-7,-3,-23,-18,-24,-21
86080398499,-94,-6,-5,-11,-2,-18,31,-36
86080398499,71,23,23,10,14,7,-19,54
86080399357,-2,-7,-50,-2,3,-2,-32,-85
86080399357,34,-2,8,2,-12,2,13,2
86080412831,-22,1,24,0,28,45,8,4
86080412831,-3,-5,-13,-2,-26,-44,-25,-32
86080421073,-26,-13,24,-2,6,-2,-57,48
86080421073,36,10,-13,-2,4,19,36,-7
86080436071,-3,-1,23,2,-13,-38,-53,16
86080436071,-41,-5,-1,-5,11,32,44,-29
86080436825,-40,3,1,3,2,-33,-91,-125
86080436825,62,-8,-7,-4,2,27,52,102
86080458518,42,-21,-1,-5,-23,-51,-48,-27
86080458518,-46,0,16,6,6,15,0,-53
86080459323,79,11,29,3,12,13,14,42
86080459323,-22,-18,12,-6,-9,2,-29,-101
86080472902,-11,2,18,1,-7,7,12,-77
86080472902,64,4,-3,-16,-17,-19,-4,127
86080488551,37,-3,8,-7,-3,9,-12,-91
86080488551,33,10,68,2,-2,-7,67,112
86080496026,-88,-13,40,0,-5,-3,-89,-100
86080496026,-13,7,0,1,-5,-1,18,-55
86080496862,-51,-3,-19,-3,-1,0,21,-10
86080496862,-2,-21,-11,-10,-25,-3,-29,-20
86080518731,99,10,11,0,3,-39,24,109
86080518731,17,-2,30,20,8,-16,-5,9
86080519390,127,-4,-75,-16,9,-15,-4,100
86080519390,-39,-8,-106,2,-2,0,-85,-128
86080533004,36,2,6,-5,-4,22,2,-11
86080533004,-3,-14,-19,-7,-7,5,-16,-53
86080541295,-22,2,17,8,4,-12,-37,13
86080541295,-33,-4,14,3,10,-2,-23,-38
86080556163,55,10,-83,-3,4,13,51,127
86080556163,-57,9,-35,19,1,-5,-6,-55
86080556872,-55,1,29,-6,-2,1,-7,-41
86080556872,-28,-1,0,33,-6,-17,20,84
86080578732,-21,-8,17,-33,-11,25,-11,-62
86080578732,-5,-1,7,-1,15,17,34,-7
86080579385,25,26,12,38,16,-33,38,119
86080579385,16,13,101,20,25,51,73,-29
86080593171,-16,-11,-56,-36,-4,-14,8,-85
86080593171,4,-8,-89,15,5,79,-15,10
86080601091,-23,-11,-110,0,-18,-51,-12,-84
86080601091,-23,2,-95,-4,1,-30,-27,73
86080616075,-10,2,-2,27,14,33,-13,-23
86080616075,11,-2,8,-27,-17,-54,-24,17
86080616891,-17,-2,77,21,-1,43,41,-65
86080616891,1,4,42,-30,-1,9,-33,-44
86080638769,-4,-17,45,7,-17,-10,32,30
86080638769,3,5,58,-11,-12,-22,-14,-59
86080639364,-2,-1,47,-4,7,14,12,26
86080639364,1,6,24,7,-1,-18,-29,-4
86080661960,10,4,6,12,14,28,80,85
86080661960,11,-4,33,6,-2,3,-8,-24
86080662575,-12,-14,-14,-7,-9,-18,-34,-66
86080662575,-23,0,-7,-16,-1,16,4,-93
86080676031,18,9,9,9,-6,-3,-22,26
86080676031,-13,-6,-6,-9,2,-37,-11,21
86080676774,19,-5,-7,-12,5,13,21,16
86080676774,1,-11,-10,6,-9,-8,-1,-4
86080698765,10,-1,-1,6,5,2,-9,48
86080698765,-15,-4,-7,-5,-9,-20,-10,-59
86080699425,3,3,-11,-5,-3,18,1,21
86080699425,-8,-7,3,2,8,-10,-13,19
86080713108,-6,2,-15,2,7,6,-10,-54
86080713108,9,-8,-7,-14,-6,11,1,49
86080721318,-31,-7,3,1,-8,12,1,13
86080721318,9,5,1,-9,-13,-27,-32,1
86080736372,-13,-16,-10,-2,1,-19,-9,-5
86080736372,-12,-8,1,9,5,7,-15,-27
86080736903,-7,-13,3,-14,-6,16,-5,-1
86080736903,-1,4,10,-1,-2,-25,-1,0
86080758551,-4,3,-2,-4,1,3,-23,-41
86080758551,3,2,8,1,-3,3,10,22
86080759350,-3,5,4,0,2,5,-9,-3
86080759350,8,-1,-1,-6,-3,0,8,-10
86080781013,0,3,0,5,-2,-2,3,-8
86080781013,0,3,-3,-7,4,12,7,10
86080788766,6,5,3,-5,-5,8,-19,3
86080788766,4,7,-8,2,-8,-22,0,8
86080796279,9,1,10,3,12,8,-8,-8
86080796279,-3,5,-3,-3,-4,1,18,31
86080796935,1,-3,-5,-2,-2,-2,4,-19
86080796935,4,-15,-3,3,-4,-13,-16,-15
86080818522,-5,-1,1,-2,-6,3,4,-11
86080818522,-8,-1,0,2,6,28,-2,-75
86080819283,9,6,5,10,11,-26,8,15
86080819283,6,2,-2,-4,-4,4,13,41
86080841956,-4,1,-2,-9,-10,-18,-18,-31
86080841956,3,4,-5,-13,-8,5,-1,-8
86080842609,2,-3,1,7,-2,-20,-3,-29
86080842609,9,3,1,17,12,12,2,9
86080856063,-7,-2,-3,-8,-20,-37,-5,-1
86080856063,4,4,-5,-7,19,10,14,42
86080856903,-10,0,-3,-22,-8,13,12,3
86080856903,-3,8,-2,9,1,10,4,3
86080878727,-1,-4,3,13,1,14,5,6
86080878727,1,-3,1,24,-11,-10,-15,-3
86080879325,-17,-2,-5,-74,-11,-32,9,7
86080879325,-3,-1,-1,26,4,-8,-20,-11
86080909411,-21,2,5,-33,-2,8,10,-25
86080909411,-5,-5,0,11,2,1,-16,-29
86080910061,-5,-2,3,29,1,65,-2,-48
86080910061,4,-2,-4,-7,-16,-69,1,13
86080916256,4,2,-2,-41,8,-1,0,0
86080916256,-4,-4,2,21,-1,-13,-19,-1
86080916883,9,-1,-3,30,-11,16,13,62
86080916883,-3,-9,-3,-83,-9,12,5,-15
86080938583,-1,1,6,59,19,4,-4,-11
86080938583,8,3,-2,-33,0,10,4,22
86080939280,-1,2,0,26,-2,-26,-14,-9
86080939280,-4,-4,-8,-5,-10,-1,-16,5
86080961839,0,-1,-5,-18,4,1,15,23
86080961839,5,3,2,28,0,8,-11,3
86080962502,1,-3,-3,19,4,-19,10,9
86080962502,-2,-1,4,60,2,24,1,-7
86080976245,4,-11,-24,-53,-5,-1,-8,-24
86080976245,0,1,1,-3,-13,-21,0,8
86080976850,4,-1,2,27,4,11,-1,-6
86080976850,-5,0,10,-6,7,-3,-7,4
86080998513,-7,1,3,77,-1,7,3,-1
86080998513,5,0,-2,-112,-14,-10,6,8
86080999288,0,1,-3,3,2,5,5,7
86080999288,1,0,10,69,13,16,-7,-6
86081021766,-12,-1,-4,-56,-17,-15,-7,0
86081021766,-2,0,4,62,3,-17,1,10
86081022561,-6,0,-5,-44,-1,-9,-10,-6
86081022561,-2,2,5,60,7,23,11,7
86081036254,-6,-5,-9,-57,-10,-14,-6,1
86081036254,-4,0,-5,9,-8,-10,2,4
86081036860,5,-2,-11,7,4,1,3,2
86081036860,-2,-2,-6,-10,-4,2,-1,-2
86081058786,5,1,6,10,-3,-6,-5,2
86081058786,1,0,7,-34,1,3,-1,-5
86081059354,7,-1,-1,-49,-5,1,5,-5
86081059354,-3,-6,-5,33,3,2,-6,-9
86081081918,2,3,-3,8,-6,-4,-1,-9
86081081918,-1,4,4,31,5,-15,-2,0
86081082525,-6,-14,-17,-38,-2,3,3,-2
86081082525,0,3,0,-22,1,5,-1,-2
86081096146,0,-2,-7,3,-5,-4,-6,6
86081096146,0,-9,0,2,-2,-5,-2,6
86081096938,-6,7,12,18,6,0,2,2
86081096938,1,-2,-5,-67,-6,5,-5,1
86081118537,1,2,5,9,-2,-9,0,-3
86081118537,-2,-12,-11,-14,-1,0,-2,1
86081119316,5,4,4,19,-4,1,1,-2
86081119316,-3,-2,1,-17,1,-4,-3,0
86081141754,-32,-10,1,25,4,2,0,-4
86081141754,-8,-6,-6,5,-6,-4,-6,-5
86081142482,1,8,0,6,-6,-10,-6,-6
86081142482,2,-9,7,-15,2,9,-4,-10
86081155384,-10,-15,-2,8,-2,-6,-4,-42
86081155384,16,3,11,11,9,9,11,14
86081163532,-2,-9,0,5,-2,2,0,-8
86081163532,8,20,-2,-20,-6,-3,-3,0
86081179185,19,1,12,19,2,-4,-7,10
86081179185,-32,-5,3,-2,-5,1,-14,2
86081179982,10,7,-3,0,-1,-11,10,-15
86081179982,-25,-10,-18,-9,-4,4,2,41
86081201759,-26,-1,-5,7,-7,4,-26,-21
86081201759,-5,6,-11,1,-4,-16,-2,-39
86081202492,1,11,-2,-2,0,-12,-7,4
86081202492,1,-25,-11,-7,-5,-1,-10,-13
86081224202,26,21,6,8,3,11,2,-16
86081224202,-15,-12,-6,-4,1,-2,8,15
86081224968,-4,1,-10,-4,-10,-8,-15,-22
86081224968,-25,-11,-8,-12,-10,-14,-11,-93
86081239234,12,7,6,10,9,-1,12,-7
86081239234,-9,17,0,-2,-8,-15,4,-42
86081240021,16,-1,1,8,13,30,-3,-6
86081240021,-17,2,2,-2,3,-21,-22,-57
86081269193,13,4,1,2,-7,9,8,62
86081269193,-12,-19,-9,2,1,-5,4,17
86081269956,-9,1,6,11,18,17,2,-6
86081269956,-8,2,-8,-12,-6,8,-7,-18
86081276027,26,-2,-7,4,-3,-19,32,46
86081276027,11,-9,-5,5,6,10,-34,31
86081276813,39,-14,2,1,-6,14,27,55
86081276813,17,6,-15,-8,-3,-25,-1,-19
86081299193,-31,-13,4,4,14,34,-19,-109
86081299193,-19,4,6,-7,-13,-27,44,-4
86081300044,-38,-3,4,1,9,-13,-20,-102
86081300044,49,-24,11,-5,-15,48,19,127
86081321739,-15,-3,6,-5,-17,-52,12,-5
86081321739,43,1,-4,-2,16,31,-23,-33
86081322513,-30,7,0,2,-6,14,7,55
86081322513,-1,8,13,2,-4,-31,-1,-78
86081335386,-8,-11,-16,5,-4,-12,-2,59
86081335386,18,10,3,5,-5,16,-15,3
86081343577,0,-9,-17,2,8,-41,2,54
86081343577,-21,7,-7,-2,-14,-11,-7,-45
86081358534,-56,1,-7,-6,-6,6,-32,-55
86081358534,66,8,0,14,28,-14,22,75
86081359338,-37,-12,-1,0,-2,29,9,-76
86081359338,31,1,-8,-11,2,-4,11,69
86081381739,80,9,2,-1,-15,-18,23,-103
86081381739,-21,-14,6,1,-3,1,-6,-86
86081382487,12,4,7,0,12,11,-36,-42
86081382487,51,-2,-6,-7,-9,8,34,-27
86081395367,11,-9,8,8,29,45,0,94
86081395367,27,4,-11,-19,-51,-77,17,43
86081403547,34,14,14,15,33,39,18,20
86081403547,12,2,-5,-3,4,18,-13,71
86081418221,61,23,18,4,3,16,11,2
86081418221,-57,-28,4,-10,-23,-6,-74,-126
86081426145,74,24,3,-17,-32,-88,40,101
86081426145,-28,14,12,19,13,41,33,-58
86081441751,-56,8,-10,3,40,47,-16,45
86081441751,-11,18,-26,-7,-14,-32,7,2
86081442509,-30,-17,-4,-13,-43,-23,-34,-117
86081442509,-10,-23,11,-4,1,-13,19,107
86081455336,-59,4,10,-4,-25,-60,-16,-34
86081455336,-1,-9,15,4,12,42,-17,-32
86081463563,-70,-19,3,2,8,43,31,4
86081463563,-11,-5,20,-10,-4,-15,23,-30
86081479238,7,-18,-28,5,12,42,24,-43
86081479238,6,-4,0,-12,-12,-23,-14,-16
86081479982,10,8,-3,2,-12,-30,-42,-44
86081479982,-66,2,-19,-8,-26,-34,-83,-128
86081501739,-1,-13,-6,8,34,25,41,29
86081501739,46,23,-13,3,5,48,2,10
86081503413,-51,-10,-37,4,1,-3,-5,-18
86081503413,20,14,-15,0,-6,-9,-24,-43
86081515295,7,3,17,-11,-18,-22,58,18
86081515295,-79,20,4,-4,-9,25,13,-56
86081524364,58,-10,-30,9,30,3,-23,-62
86081524364,30,6,-1,-5,-8,-3,7,92
86081537822,44,3,-36,-2,-7,-39,-22,-18
86081537822,10,0,37,5,-1,69,-9,-6
86081546832,-35,11,-38,3,-5,-37,14,-10
86081546832,-65,2,13,0,5,21,0,-14
86081561696,-18,-19,-32,-3,-2,-38,-19,-25
86081561696,-23,-5,-39,12,40,8,28,-14
86081563326,-1,12,41,-11,-25,6,-26,-39
86081563326,36,3,2,18,40,21,40,30
86081575433,-29,-5,13,-17,-40,-13,-67,-5
86081575433,55,0,3,0,3,-22,1,8
86081584353,2,-10,-15,0,6,24,29,-7
86081584353,3,-3,7,-2,-9,-3,9,-6
86081597880,-50,-16,12,-4,-8,-10,-5,-20
86081597880,-61,-7,21,-1,-9,8,17,42
86081606832,45,-4,2,-11,18,52,-28,-6
86081606832,-7,-3,-11,1,-20,-47,-14,-15
86081622159,11,-2,-9,-6,-17,26,11,-21
86081622159,-12,-4,20,7,25,-28,7,8
86081623751,-10,-2,12,2,1,4,-13,58
86081623751,-3,-4,-28,-6,-10,19,-3,-8
86081635362,1,3,1,-7,-1,-26,-15,17
86081635362,4,0,28,-1,-8,3,12,17
86081644357,28,1,-14,-5,-26,-14,-21,-19
86081644357,24,-1,0,3,28,-10,-8,5
86081658598,9,4,25,4,-4,34,6,4
86081658598,2,-1,-18,-1,-8,-11,-11,-12
86081665338,-1,-6,9,-3,17,34,36,37
86081665338,-16,0,-9,0,-23,-25,-4,-4
86081681693,4,3,-1,2,-1,-15,-15,-9
86081681693,19,-2,-3,-2,1,2,-5,2
86081683368,-18,-6,6,-4,-10,-22,-10,-11
86081683368,-2,0,16,-1,25,33,21,34
86081704836,-11,-2,-6,1,1,9,-10,-2
86081704836,14,-1,-20,-5,-9,-17,-3,17
86081706421,0,-2,8,-1,-13,-30,15,9
86081706421,-12,-1,4,0,8,10,-24,-49
86081718574,9,-2,-13,3,-3,-17,-3,7
86081718574,3,-2,1,-3,7,17,9,1
86081725354,-1,0,-8,1,-4,-5,-7,13
86081725354,-11,-2,-16,-2,-5,-4,-7,-24
86081741741,7,4,-9,2,21,15,3,2
86081741741,-11,2,-3,-4,-9,18,-14,1
86081743344,-3,-5,-9,0,-9,-21,-2,29
86081743344,-3,2,-6,-2,-3,-20,-12,-14
86081765712,4,3,-4,-4,-8,-5,5,-43
86081765712,11,4,18,-2,7,8,4,70
86081767267,-18,5,6,5,7,5,26,-7
86081767267,29,3,4,2,6,-6,15,31
86081778510,19,-3,-15,2,9,-5,12,6
86081778510,-22,-11,0,-1,-4,3,-16,-81
86081785369,10,-5,33,-6,-8,-5,-8,-51
86081785369,-10,-4,7,-1,-8,23,10,-39
86081801750,17,-1,14,-1,21,2,1,26
86081801750,14,5,14,-1,-6,-47,13,10
86081803306,-6,0,-10,1,0,26,3,-21
86081803306,40,-1,25,0,-14,-31,-19,29
86081824209,10,-2,9,-5,-10,4,12,20
86081824209,-20,-4,-61,5,9,2,-13,-51
86081825866,-21,-3,-10,-1,1,-22,2,52
86081825866,-1,4,-16,4,5,6,6,3
86081837889,-15,1,-10,-2,-2,11,-5,0
86081837889,-12,7,-42,3,-11,-21,11,-12
86081846829,-1,-2,8,-2,10,5,-5,-16
86081846829,-4,-1,19,6,11,25,3,37
86081861728,-13,2,9,2,-9,-6,-17,9
86081861728,22,-2,19,-1,-3,-6,6,3
86081863307,12,-4,-10,-4,-4,6,6,53
86081863307,-9,-4,6,-7,-2,-16,-9,-5
86081884164,7,0,25,1,2,5,3,-13
86081884164,17,-6,0,-7,2,15,-4,30
86081885848,10,5,-1,-1,-9,-24,-11,-9
86081885848,-9,-1,-7,-1,10,13,8,-14
86081897827,-16,-6,-24,-4,-4,-2,-5,-27
86081897827,-10,-2,12,3,-4,-12,-8,-12
86081912818,1,-1,10,0,1,30,17,19
86081912818,-16,-3,-16,-7,-6,-3,-14,-18
86081921749,0,-5,-15,-4,-5,-21,-5,-12
86081921749,-9,-6,5,-5,-3,22,-8,-2
86081923358,-1,-5,-1,0,0,-16,3,-19
86081923358,-8,-6,6,0,21,19,-4,-55
86081944169,-5,1,26,5,2,12,6,-4
86081944169,-2,0,18,-3,-3,1,-6,-43
86081945839,2,0,15,1,-8,-10,-9,7
86081945839,-3,-2,-37,-7,-11,-5,-3,-12
86081957878,-7,-1,-8,-1,2,0,-6,-3
86081957878,18,1,-22,-2,-5,-26,14,49
86081966831,-2,-2,-42,-1,8,8,1,-49
86081966831,-9,0,-45,1,-1,0,-5,-14
86081981730,5,0,-67,-2,-5,-1,-1,10
86081981730,14,-3,0,-2,-3,-2,-4,10
86081983319,3,3,0,0,1,-1,-2,22
86081983319,2,0,-4,-2,-6,-6,3,23
86082004171,-4,-2,-34,-2,-5,-9,-8,-10
86082004171,-10,-4,-56,0,5,16,8,-7
86082005818,-1,-2,-21,-1,3,-7,-8,0
86082005818,-7,-1,-16,3,-3,2,0,-10
86082017860,0,-1,-1,-15,-5,16,0,-5
86082017860,1,2,22,7,0,-13,10,61
86082026837,-3,0,37,-13,-3,-1,-21,-8
86082026837,-1,0,7,7,-10,-4,2,3
86082041731,-1,-1,41,-16,-4,-19,-11,4
86082041731,3,-1,31,2,14,16,10,-3
86082043351,-4,-1,6,15,7,7,0,-8
86082043351,-2,1,45,-23,-6,0,-3,2
86082064232,-2,-1,30,9,-2,4,8,-7
86082064232,-7,-2,5,-2,-7,-8,-7,-21
86082065822,-9,4,-5,-14,-9,-14,-5,-22
86082065822,-2,0,12,12,5,3,-1,-10
86082077818,2,1,9,-13,-1,-8,-3,-7
86082077818,0,-1,-9,15,1,5,0,10
86082086833,-1,-2,-2,19,3,6,5,-1
86082086833,-1,-3,4,-14,-6,-6,-5,4
86082101687,-3,-2,-9,-6,-2,0,1,-2
86082101687,-1,-1,-9,1,-1,-20,-18,-17
86082103304,-4,-4,-2,-13,-6,2,9,-2
86082103304,-2,-6,1,-34,-4,2,3,5
86082124270,3,-1,2,14,8,7,4,7
86082124270,-2,-3,-4,3,4,10,-4,-13
86082125838,1,0,3,-1,-3,0,-5,10
86082125838,-1,2,4,59,5,-10,-7,0
86082137824,-3,-3,-11,-58,-14,-7,-4,-2
86082137824,-4,-6,0,11,-4,0,-4,-6
86082146861,-1,0,1,12,3,3,-2,-5
86082146861,-2,1,0,47,8,-10,0,-2
86082161748,2,1,4,6,-2,5,2,0
86082161748,-3,-2,-7,-6,0,-3,3,-10
86082163315,3,-4,0,-28,-3,1,3,4
86082163315,-2,-2,-5,8,-2,1,3,-5
86082184285,-2,0,6,35,7,-1,1,-2
86082184285,-2,0,3,12,10,0,3,-2
86082185848,-1,-3,-16,-61,-26,-6,1,-2
86082185848,-1,-2,0,22,3,1,-3,-1
86082197914,0,-2,-1,11,-3,-6,-4,1
86082197914,-1,-1,-7,-28,-2,3,-2,3
86082206862,-2,-1,0,7,7,-2,-5,4
86082206862,-4,-2,-4,25,-3,-4,-3,2
86082221717,-2,-2,0,-11,3,1,1,1
86082221717,-1,-1,7,-4,0,2,-2,-3
86082223325,0,0,6,41,2,0,-1,-2
86082223325,3,-2,-3,-13,-4,5,2,-1
86082244183,-3,0,-8,-38,7,6,6,-4
86082244183,-6,-2,-16,2,-16,-1,5,-3
86082245795,14,-2,1,4,-2,-2,-1,-11
86082245795,-1,-3,16,37,-5,-3,-13,-2
86082257861,1,0,23,17,0,-4,-8,-1
86082257861,-4,1,8,-69,-8,-5,-7,-13
86082266886,-8,1,-4,0,8,-1,-4,-28
86082266886,-2,2,-4,-11,0,-5,6,74
86082281746,4,-9,-5,29,-2,-5,-4,-4
86082281746,-4,9,-6,5,2,1,-1,4
86082283332,-1,1,-5,19,-3,0,-1,-1
86082283332,-5,-2,-12,-54,-3,3,-4,-33
86082304218,4,5,-10,2,-3,-1,-1,-1
86082304218,7,-3,-1,26,4,-1,-1,16
86082305815,-11,1,-3,-9,-1,-5,-6,-27
86082305815,-10,0,-8,-14,-2,-1,-2,6
86082326730,-9,-7,5,9,-2,-4,-3,21
86082326730,-5,-4,-12,-2,1,-1,-6,-29
86082328328,-3,0,1,7,0,0,2,-1
86082328328,-7,-4,-3,-25,-1,-2,-1,-23
86082341782,-1,-1,0,13,-3,-2,-1,40
86082341782,2,-2,2,-1,0,1,1,26
86082343310,1,-6,1,-2,-3,-2,0,45
86082343310,2,9,3,-1,1,1,6,-35
86082364192,8,-8,0,-10,-1,2,6,22
86082364192,-2,1,6,11,-1,-2,2,-15
86082365822,7,-1,-1,6,0,-1,-1,-15
86082365822,-20,-7,-8,-28,-6,-2,-5,-38
86082377845,0,3,-2,27,-1,-1,-2,-24
86082377845,1,0,-2,-37,-6,-2,-5,-45
86082386881,8,-2,2,17,2,0,4,55
86082386881,11,-3,-3,-27,2,0,-2,0
86082401742,-20,1,-2,-2,1,-1,-1,-27
86082401742,1,-4,9,22,-1,-2,-4,-15
86082403343,-9,0,-8,-7,-3,-1,-3,-15
86082403343,16,-5,1,6,-1,-1,-1,5
86082431774,10,7,-2,-24,-2,-1,3,16
86082431774,-5,-19,-3,5,-3,-1,-3,-12
86082433425,7,2,5,2,-3,-1,-1,7
86082433425,1,-2,-6,-1,-2,0,2,17
86082437851,-2,7,7,18,2,0,-4,13
86082437851,17,5,-10,-23,-1,3,12,26
86082446831,-7,-4,4,17,-1,-2,-2,-8
86082446831,9,-5,-11,-11,-4,-1,1,36
86082461082,2,8,2,-2,-3,-2,-3,-7
86082461082,-10,-11,2,1,1,0,-2,4
86082467856,1,0,-4,5,-2,-1,0,13
86082467856,0,2,3,-2,0,0,-1,-21
86082484242,-5,-4,-5,6,0,-1,0,-16
86082484242,1,1,-5,-15,-6,0,-1,16
86082485851,-11,0,1,27,6,-2,-6,-76
86082485851,-6,-9,-7,-66,-13,-4,-4,10
86082497929,0,-2,-6,-11,-2,-1,-1,-15
86082497929,-4,3,5,29,3,-1,-1,12
86082506867,-6,0,-1,-2,-2,-3,-3,-7
86082506867,-2,5,5,13,2,-1,2,-3
86082521053,-4,-7,-4,5,-2,-1,0,-1
86082521053,1,3,-3,-5,0,-2,-2,-16
86082527833,3,-7,4,-20,0,0,0,16
86082527833,1,0,1,16,2,0,1,9
86082544212,-2,-5,-7,-3,-1,-4,-3,-21
86082544212,-3,2,1,15,1,0,-2,3
86082545801,-1,-2,-7,-18,-4,-1,1,11
86082545801,-8,1,5,24,1,-2,-3,11
86082557847,-12,-21,-5,-23,-3,-2,-3,-21
86082557847,-4,3,3,3,-1,-2,-3,5
86082566821,-4,-1,-2,4,2,0,-3,-5
86082566821,12,0,3,8,-3,1,7,12
86082581746,-1,2,8,8,-1,-1,0,-1
86082581746,0,-1,-1,4,0,0,-2,6
86082583314,-3,-2,3,1,3,0,-1,3
86082583314,-9,-5,-1,8,-2,-2,-5,-15
86082604206,4,3,3,-1,-2,0,1,4
86082604206,3,-2,-1,-1,-1,-1,1,0
86082605860,-8,0,-7,-1,-2,-1,-3,5
86082605860,0,1,-3,-5,1,0,-4,-9
86082617846,10,1,-3,-3,-2,1,4,18
86082617846,6,1,-4,-1,0,-2,-4,-4
86082626836,1,-2,-4,-14,-2,-2,-1,8
86082626836,-5,-3,-3,2,0,-3,-1,-1
86082641731,-1,8,-4,-2,-2,-2,-4,9
86082641731,4,-5,0,4,1,-3,-3,35
86082643275,-1,1,1,-7,-2,1,2,2
86082643275,-1,-2,-5,0,-1,0,-1,0
86082664198,2,-1,2,3,0,-1,1,-11
86082664198,-8,-1,-1,-3,0,-1,0,0
86082665883,1,-2,5,-6,-2,-2,-1,-15
86082665883,-7,-8,-5,1,0,-1,3,9
86082686726,3,1,-2,-1,-1,0,-2,2
86082686726,-1,1,0,-2,-2,0,0,-10
86082688288,-10,-2,2,-1,-1,0,0,-14
86082688288,5,3,3,0,0,0,1,2
86082701040,0,-4,-8,-3,-1,0,2,1
86082701040,-7,-6,-2,-2,-3,-2,0,-6
86082707882,5,4,0,-3,-2,-2,0,-1
86082707882,-1,-2,1,1,-3,-3,-2,-7
86082724190,-5,-5,-7,-4,-1,-2,-3,-4
86082724190,-14,-2,2,2,-1,-3,-4,-12
86082725795,0,-1,-3,-5,-2,0,1,13
86082725795,-2,17,2,0,0,-2,-5,-20
86082746733,-22,-19,1,-1,-3,-2,-1,-2
86082746733,5,4,-5,-1,-1,0,0,-11
86082748319,9,-2,-5,-5,-3,-3,-1,26
86082748319,-10,1,1,1,2,0,-2,-29
86082760389,4,4,-1,0,-3,-1,-2,-12
86082760389,5,5,-1,-4,-2,-1,0,23
86082769328,-4,-4,-4,-1,-1,-3,-2,-9
86082769328,3,-2,-3,0,-1,-1,1,14
86082784177,3,2,-1,0,0,0,-1,-1
86082784177,-5,-5,-1,0,-2,-2,-2,-16
86082785815,5,-2,-1,-4,-1,-1,1,10
86082785815,1,-2,0,0,1,-2,-2,-1
86082806718,-3,2,0,0,-2,-2,-3,-4
86082806718,0,0,-2,-2,-2,-1,2,2
86082808335,-2,0,2,0,-1,1,-2,-8
86082808335,-1,-4,-6,-2,-2,0,-1,-2
86082820340,-2,0,0,-2,-2,-1,-1,13
86082820340,-1,0,-2,-3,-1,-1,-2,-7
86082829401,-3,-1,-2,-1,0,0,2,-4
86082829401,0,-5,-3,-3,-1,0,-1,-1
86082844148,3,2,2,1,0,-1,-2,-11
86082844148,0,-3,0,-1,-2,0,-1,59
86082845811,-2,-3,-1,-1,-2,-1,2,-21
86082845811,8,-2,-2,-3,-1,-2,1,16
86082866761,0,-1,-1,0,-1,-1,-1,0
86082866761,-5,-4,-1,-2,0,-3,-3,-18
86082868337,2,1,-3,0,0,0,-1,2
86082868337,-5,-2,1,1,-1,-2,-2,-1
86082881019,-4,-1,-2,-1,-1,-1,-1,-2
86082881019,-5,3,0,2,-1,0,1,-17
86082887897,-15,-4,-1,-1,-2,-1,-4,-12
86082887897,-8,2,-1,-1,-3,-1,-1,-9
86082904202,3,-2,0,-1,0,-2,0,-5
86082904202,-1,-2,-3,-1,-3,0,1,-8
86082905787,-1,-1,-2,-1,0,-1,-1,-2
86082905787,3,0,1,-3,-3,0,-3,6
86082934187,-1,0,-1,-1,-1,-1,-2,-1
86082934187,-2,-3,0,0,-1,-3,-2,-11
86082935831,3,1,-1,0,-1,-2,1,5
86082935831,-9,-5,-2,-3,-1,-1,-5,-35
86082941019,6,1,-2,0,-1,0,2,9
86082941019,3,-2,-2,-2,-1,1,-1,-8
86082947911,-2,-1,0,-1,-1,-1,-3,-4
86082947911,1,0,1,0,-2,0,0,2
86082964208,-3,-4,-2,-1,-1,-1,-2,-4
86082964208,-5,7,0,0,0,1,-3,-7
86082965834,8,-3,-3,-4,-2,-3,-3,-5
86082965834,-2,0,1,0,-1,-2,1,20
86082986721,-1,2,-7,-2,0,-1,1,-1
86082986721,-3,-5,0,-1,-2,-1,-2,1
86082988300,14,7,1,1,-1,-2,-2,2
86082988300,-3,-4,-2,-2,0,-2,-2,-7
86083000960,-5,-3,1,-2,-2,-1,-2,-1
86083000960,-2,-2,-3,-2,-2,-1,-1,10
86083007877,4,0,-3,-1,0,-1,3,-5
86083007877,0,0,-1,-1,-1,-1,-1,1
86083024200,0,2,0,-1,0,-1,-2,3
86083024200,-1,2,-3,-2,1,-3,-1,-2
86083025827,-7,-10,0,-2,-2,-1,-3,7
86083025827,1,0,-1,1,0,-2,-1,-4
86083046709,-1,-2,-2,-1,-1,-1,0,-9
86083046709,0,-4,0,0,0,-2,0,-3
86083048377,-4,-3,-2,-1,-2,-2,0,1
86083048377,-2,0,-2,-2,-2,-2,0,6
86083061060,0,0,0,-2,-3,-3,-2,-2
86083061060,2,-1,0,0,-1,-2,-1,-6
86083067857,12,7,-2,-2,-3,0,1,5
86083067857,3,-1,-1,-2,1,0,0,10
86083091692,5,-1,-1,1,-2,0,-1,-10
86083091692,-18,1,-2,-1,-4,-3,-4,12
86083093313,-9,4,0,1,-1,-2,-1,-11
86083093313,8,0,-2,-2,-1,-1,1,2
86083106731,2,6,0,-3,0,0,0,-3
86083106731,10,3,1,-1,-2,-1,-3,-12
86083108302,-8,-1,0,-2,-2,-2,-4,-6
86083108302,-1,1,-7,-2,0,-3,0,10
86083121023,-5,-6,-1,-2,0,-1,-2,2
86083121023,5,-1,-1,0,0,0,2,-7
86083127791,-8,-6,-2,-2,0,0,-2,12
86083127791,2,-3,0,0,-3,0,0,-9
86083144173,-3,0,1,1,-1,-2,-2,-1
86083144173,-2,0,-2,-2,-1,-1,1,-1
86083145739,-8,-4,-4,-1,0,-2,-3,-11
86083145739,1,0,0,0,-1,1,-2,-10
86083166710,0,0,-1,-2,0,-2,0,3
86083166710,-5,-5,-2,-3,-1,-1,-1,-7
86083168273,8,-2,0,-1,-1,-1,0,12
86083168273,-6,5,-1,0,-1,-2,-2,-27
86083180422,-13,-3,0,0,-1,-1,-3,-4
86083180422,11,-2,0,-1,-1,0,0,5
86083189332,2,-3,-3,0,-1,0,2,5
86083189332,-5,-2,-1,-1,0,1,-2,6
86083204187,2,1,-1,-2,-1,-1,-1,-17
86083204187,-2,-2,-2,-1,-1,-1,2,1
86083205825,-4,1,-2,-2,-1,-1,0,0
86083205825,-4,-4,2,-1,-1,-2,-2,-6
86083226738,-6,-2,-2,-1,-2,-1,-1,5
86083226738,1,-3,-1,-1,0,-1,-1,-1
86083228331,-4,-6,0,0,-1,0,-1,-4
86083228331,4,2,1,0,1,0,-1,-4
86083240328,2,-1,-2,-2,-2,-2,-2,-2
86083240328,-12,-1,-1,0,-1,-1,-4,-7
86083249372,-8,-4,-2,-2,0,-1,2,-12
86083249372,-1,-1,-1,2,-3,-1,-2,-2
86083264175,0,-1,-1,0,0,-1,-1,6
86083264175,-2,-1,-2,-2,-3,-3,-1,8
86083265841,-1,2,0,-2,0,-3,-2,2
86083265841,-6,-6,-1,-3,-2,-2,-2,-6
86083286728,5,-1,-2,-1,-1,-1,2,38
86083286728,0,-1,-2,0,1,0,-2,-5
86083288297,0,0,0,-1,0,-1,-3,-1
86083288297,-1,-2,-2,1,-1,0,0,5
86083300350,-2,-1,0,1,-1,-2,0,-10
86083300350,-2,0,-1,-1,-2,0,-1,-4
86083309366,0,0,-2,-2,-3,0,-3,9
86083309366,0,-2,-2,-2,0,-2,-2,-5
86083324215,7,-1,-1,0,-1,0,5,20
86083324215,1,-2,-2,0,0,0,-3,-6
86083325837,2,-1,0,-2,-1,-1,0,4
86083325837,-3,-2,-2,0,0,-1,-3,25
86083346728,5,2,0,-2,-1,0,2,-17
86083346728,3,0,1,-1,-1,-2,3,29
86083348352,-3,-4,-2,0,0,0,-1,-6
86083348352,-1,0,-1,-1,-2,-1,-1,-13
86083360356,1,-1,-1,-2,-1,-1,-1,4
86083360356,-1,-3,-2,-1,0,1,-2,-8
86083369326,0,-2,0,0,-1,-2,-1,-1
86083369326,1,-3,-1,-1,-2,-2,-1,6
86083384263,-7,-3,-1,0,-3,-1,-5,-13
86083384263,4,1,-1,-1,0,-2,0,-9
86083385824,-2,1,0,-2,0,0,-1,15
86083385824,6,1,-3,-2,-2,-1,1,-20
86083406688,-3,0,-1,0,-1,0,-4,-7
86083406688,-1,1,1,-1,-1,-1,-1,-3
86083408315,-4,2,-2,0,-1,-2,-2,6
86083408315,8,3,1,0,-2,-1,1,-3
86083420435,-2,-3,-1,-4,-2,-1,-1,11
86083420435,-3,-4,1,2,-2,-2,1,-5
86083429324,-2,-3,1,-2,-2,0,-3,-9
86083429324,-4,-3,-2,0,1,-1,-2,-1
86083444168,-6,-2,-3,-2,-1,-2,-4,-17
86083444168,-2,0,-1,1,-1,1,-2,0
86083445786,-1,0,-3,-2,-1,-1,0,5
86083445786,-4,0,-1,0,-1,-1,-1,4
86083466728,-5,-1,1,1,0,-1,0,-3
86083466728,6,0,-4,-5,-3,-3,-1,10
86083468328,-6,-2,-2,-2,-1,-2,-3,-25
86083468328,-4,-1,2,0,1,-1,-3,-1
86083480275,2,0,-2,0,0,-2,-2,-7
86083480275,-10,-4,-1,-2,-1,-2,-2,6
86083489301,7,1,-2,0,-2,0,2,18
86083489301,-6,-2,-2,-3,-2,0,-2,0
86083504203,4,0,-2,-1,-1,-3,0,2
86083504203,-9,-1,-2,-2,0,-2,-3,-9
86083505813,-8,-1,2,1,-1,-2,-1,-4
86083505813,-4,-1,-5,-3,0,-1,1,5
86083526754,-4,-3,-3,-1,-2,-2,-3,-7
86083526754,0,-1,-2,0,0,0,-1,-3
86083528341,3,0,-1,-1,-2,-2,0,-1
86083528341,0,-2,0,-2,-2,-1,0,2
86083540325,-2,-1,0,-1,1,-1,-1,-4
86083540325,1,-1,-3,-2,-3,0,-1,-6
86083549338,2,-3,-3,-2,0,0,-2,-3
86083549338,2,-1,-1,-1,-1,0,-1,11
86083564205,-5,-1,1,-1,-2,-1,-1,-31
86083564205,-1,0,-1,1,-1,1,-1,1
86083565809,0,-1,-2,-3,0,-2,2,-4
86083565809,-6,0,-4,-3,-2,-1,-2,-11
86083594714,6,1,-1,0,0,-1,1,24
86083594714,-5,-3,-1,-2,0,-2,-4,-14
86083595848,-1,1,-2,1,0,0,-1,-6
86083595848,0,-3,-3,-2,-2,-2,-1,-1
86083609231,3,-3,-2,-1,-2,0,3,15
86083609231,0,3,-1,-2,-3,0,-1,-1
86083610815,2,0,-2,2,-1,-1,-1,-10
86083610815,3,0,2,2,1,0,1,25
86083624188,-1,-2,-2,1,-2,-1,-2,0
86083624188,1,-2,-5,-5,-3,-1,1,-3
86083625813,-10,-4,0,1,-2,-1,-4,-28
86083625813,5,0,1,3,2,-1,2,6
86083646704,-5,-1,-1,9,1,0,-4,-30
86083646704,0,0,0,-10,3,-2,0,7
86083648326,2,0,-5,-19,-7,-1,0,27
86083648326,-7,-1,-1,13,0,-2,-3,-12
86083669133,2,-2,1,5,0,-1,-1,5
86083669133,4,-2,0,6,2,0,0,7
86083670756,0,2,0,23,1,0,0,16
86083670756,-2,-1,0,-8,-1,0,0,-6
86083684191,-3,-5,-2,-16,1,0,0,10
86083684191,8,6,-1,14,-3,-1,-1,6
86083685824,0,-2,-3,-9,-1,-3,-1,1
86083685824,-2,-3,-2,-5,-2,-1,-3,22
86083706699,-6,0,-3,3,0,1,1,-6
86083706699,-6,-3,-2,-18,-3,-1,-3,-6
86083708342,-1,0,0,-2,0,0,-1,-3
86083708342,-6,-6,0,-2,-1,0,-2,30
86083729201,-1,1,-1,0,-1,-2,-1,-4
86083729201,-3,-4,-2,-1,1,-2,0,-8
86083730779,2,1,-1,0,-2,-2,2,8
86083730779,-7,-3,-1,-5,-2,-2,-2,-28
86083743510,1,-2,3,13,-1,-3,0,8
86083743510,-3,-1,-7,-15,-3,-2,-2,-8
86083750321,0,-4,-2,-18,-2,-1,-3,-2
86083750321,0,2,-2,5,-1,-2,-1,-16
86083766744,-5,-4,-2,4,-1,-1,-5,25
86083766744,16,4,3,-3,0,0,2,4
86083768326,-21,-6,-3,8,0,-1,-2,-12
86083768326,1,1,-3,-9,-3,-1,-2,-5
86083789207,3,-1,-1,-3,-1,-1,0,9
86083789207,-8,-2,-1,14,-1,-2,-1,-8
86083790802,-1,-1,0,3,0,0,-2,11
86083790802,5,3,-1,-4,-3,-4,-2,-10
86083803496,0,3,1,-8,2,0,1,8
86083803496,3,-1,-7,-3,-6,-1,-4,2
86083810461,-2,-6,0,1,1,-2,-1,-18
86083810461,-1,0,-1,-3,0,-1,0,1
86083826751,0,-2,-2,0,-1,-1,-2,-13
86083826751,-4,0,4,4,2,-1,1,-7
86083828251,7,3,-2,5,-1,0,-1,9
86083828251,-3,-4,-2,-14,-3,-1,-3,-2
86083849352,-8,-1,-1,-15,-4,-4,-4,13
86083849352,0,-3,4,5,1,-1,3,1
86083850798,-2,-3,-6,-4,-2,0,-1,-6
86083850798,-6,0,-2,10,-1,0,-2,-9
86083863514,-1,-5,0,-3,-2,-1,-2,-3
86083863514,-4,0,-1,-13,-2,-3,-2,-5
86083870273,3,0,2,4,1,-2,0,-2
86083870273,-2,-3,-1,-1,-1,1,0,6
86083886763,-3,0,-6,-4,-2,-1,-1,-5
86083886763,-9,-6,0,6,0,0,-3,-19
86083888295,8,2,0,-5,-3,-2,2,1
86083888295,3,-3,-2,2,-1,0,0,-6
86083909229,-3,-1,-1,0,-3,0,-2,2
86083909229,-2,-2,-3,2,-1,-1,-1,-25
86083910831,-3,0,-1,-3,-3,0,-2,-3
86083910831,-1,-2,2,2,0,-2,-1,-2
86083923560,2,1,-1,0,1,-2,0,-8
86083923560,-3,-1,-2,2,-1,-1,0,11
