timestamp,emg1,emg2,emg3,emg4,emg5,emg6,emg7,emg8
116970733916,-11,-19,-1,-6,-2,6,-2,-5
116970733916,3,15,3,0,-2,9,-1,-1
116970734753,6,6,0,3,-2,7,-2,15
116970734753,1,0,-1,-2,-1,7,-1,-13
116970736583,-2,0,-3,-3,-1,1,0,2
116970736583,-3,-1,-2,-4,-3,-2,-1,-1
116970737437,1,-2,2,-3,-3,1,-4,1
116970737437,0,-11,-2,1,-2,-1,-4,3
116970743959,3,4,-1,0,-2,1,-1,0
116970743959,0,-5,-3,0,0,2,-1,2
116970750898,1,4,-2,-1,-3,6,2,-12
116970750898,-1,-3,1,-1,-4,4,3,6
116970765368,1,-4,5,3,2,1,2,-1
116970765368,-18,-23,-10,-6,-3,-7,-6,0
116970774749,-9,-18,-3,-1,1,-9,-2,-2
116970774749,0,3,0,-2,0,-4,3,-4
116970780541,-2,7,2,0,-2,-2,2,1
116970780541,4,3,-2,4,-1,-15,3,-1
116970805558,-6,5,-2,2,-2,-45,0,-5
116970805558,6,8,-1,-1,0,-25,-3,-15
116970808368,-4,-37,-4,-1,-1,-9,-1,-5
116970808368,9,9,5,-2,0,17,7,-2
116970819166,-2,-4,-4,-6,-2,24,12,-2
116970819166,-1,-2,0,-3,-1,13,16,8
116970860208,-1,-2,-1,-5,-2,5,0,-2
116970860208,1,0,-2,2,-2,6,-2,2
116970863886,-4,-10,-2,-2,-4,3,-6,4
116970863886,-5,-1,2,1,-2,5,-3,-3
116970864659,-2,-4,1,-1,-3,3,-4,0
116970864659,-2,-8,0,-4,-3,0,-5,-5
116970865501,7,1,-1,0,-1,1,-6,-4
116970865501,4,7,-1,2,-1,2,-8,0
116970870783,1,0,-1,2,0,1,-8,1
116970870783,0,-5,0,2,-2,-2,-8,-4
116970877583,5,0,0,-1,-2,-5,-7,-6
116970877583,-1,-11,-3,-2,-1,-2,-8,-2
116970893275,10,0,-2,-4,0,-1,-8,14
116970893275,-5,11,0,-1,1,2,-5,-3
116970900036,2,13,-1,-3,-2,2,-6,-2
116970900036,-8,4,1,-1,-3,-1,-7,5
116970907550,8,6,-1,2,-4,0,-10,-2
116970907550,5,-5,-1,-1,0,1,-6,0
116970938918,-11,4,1,-3,0,0,-6,-5
116970938918,4,17,0,0,2,-1,-4,2
116970939708,11,-2,-4,-3,2,-3,-2,-1
116970939708,2,1,-1,-1,-1,-3,-4,-1
116970953998,-5,-2,-3,6,1,1,-4,-3
116970953998,0,2,-1,1,0,-1,-4,-2
116970954704,7,-5,-2,3,-1,-2,-5,-3
116970954704,0,-3,0,-3,-3,-3,-7,-6
116970968527,-2,-4,-2,-3,-2,-3,-9,0
116970968527,-4,-11,-2,0,-2,-4,-6,-1
116970969105,-9,-5,-1,-3,-1,-4,-4,-2
116970969105,1,-16,0,-2,-1,-3,-2,7
116970991563,-3,2,-4,-7,-4,1,-1,-2
116970991563,-1,-4,-4,1,-5,-3,1,-4
116970992300,-8,0,4,0,-3,0,0,-9
116970992300,-2,5,-1,0,1,-5,0,-3
116971014208,-2,-5,2,1,3,-3,1,2
116971014208,0,-9,-2,-1,2,-2,0,-3
116971014784,-7,1,0,-2,1,-3,1,0
116971014784,-4,-1,1,-2,-2,-1,0,1
116971027663,-1,-1,0,1,-5,-4,0,3
116971027663,0,0,-5,-7,-8,-4,0,-1
116971035810,-1,1,-3,-2,-3,0,1,-5
116971035810,-6,5,0,-5,-3,1,1,-3
116971051412,2,-3,-1,-3,-3,4,8,-1
116971051412,0,-2,2,2,1,2,3,-2
116971052208,-7,-2,0,1,0,-3,-1,-2
116971052208,4,17,0,2,3,-1,3,1
116971074054,4,-5,3,-3,5,-2,1,2
116971074054,1,-3,-2,1,1,-3,2,-4
116971074814,-5,0,-9,-24,-4,-4,0,-2
116971074814,0,-7,-6,-3,0,0,3,-1
116971087817,-16,5,0,2,-3,-2,0,0
116971087817,1,-4,2,0,-1,-2,0,0
116971095920,-2,-4,0,3,-2,-5,4,-2
116971095920,-1,-2,1,-2,-1,-5,1,2
116971111454,2,-4,-9,15,-2,-7,3,-1
116971111454,0,-5,7,19,-1,-3,1,0
116971112211,-4,0,-8,-13,0,-3,0,0
116971112211,-5,-5,-7,-11,-3,-6,-3,0
116971141543,1,-5,2,4,2,-1,-1,0
116971141543,-3,6,0,-19,-4,3,-2,-1
116971142339,-1,-2,5,24,0,5,1,1
116971142339,1,1,18,4,-1,2,1,-1
116971147803,0,-2,-10,-3,0,-2,-1,-3
116971147803,-1,-3,-17,1,-1,3,1,-2
116971156000,0,0,5,1,5,-3,5,1
116971156000,1,-3,6,-6,-5,-1,2,1
116971170980,-1,-5,-1,-7,-2,-6,-4,2
116971170980,-2,-2,5,-5,3,-4,-3,1
116971171676,-3,-2,-3,5,1,5,-2,-1
116971171676,-2,1,-12,8,6,-2,-1,-5
116971194164,2,1,9,31,-2,8,6,-1
116971194164,-1,-3,-15,-62,-10,-3,0,-2
116971194813,0,-3,-3,10,1,-1,-3,-3
116971194813,-1,-3,-5,-5,0,-6,1,-2
116971207884,3,0,-10,-11,5,-6,2,0
116971207884,0,-1,5,31,-4,1,-4,1
116971215919,-1,3,-5,-9,-3,-1,-1,0
116971215919,-4,-2,-9,-5,-1,-4,-6,-2
116971230794,-3,-1,4,7,-3,12,-2,-2
116971230794,0,-1,-1,23,4,-16,-2,-3
116971231545,0,16,-1,-17,-3,-3,0,-3
116971231545,-1,-1,-1,11,1,1,0,2
116971253971,-2,0,0,-8,-4,4,0,0
116971253971,-2,-4,-2,-12,-2,4,8,-4
116971254707,2,0,9,7,-1,4,2,4
116971254707,0,-3,-1,1,-3,1,-3,0
116971267581,-2,-5,-7,-13,-2,-7,-1,1
116971267581,-2,1,0,-8,-6,-1,-11,-8
116971275817,-2,-3,-3,6,3,13,3,-5
116971275817,1,-1,-6,-13,7,-1,-8,-4
116971290771,-3,-3,3,-2,-3,-27,-6,-4
116971290771,-7,-6,-1,-9,-25,0,-2,-1
116971291582,-3,-6,2,4,3,-3,3,3
116971291582,13,4,2,0,-8,4,7,5
116971313964,16,5,-1,-11,13,24,-4,18
116971313964,20,6,3,8,0,-17,0,5
116971314748,-3,-10,-1,-2,-2,-7,-20,-14
116971314748,-67,-12,-9,-3,-1,44,3,-32
116971327665,-19,-2,2,-4,0,-41,13,-8
116971327665,42,11,3,6,18,26,17,44
116971343256,68,-4,0,0,-3,2,9,22
116971343256,-51,-8,0,1,-7,-27,-22,-49
116971350831,33,4,-2,-1,2,6,-4,10
116971350831,-46,2,-3,-4,9,6,0,-29
116971351643,34,4,2,2,-1,-3,13,27
116971351643,-4,-4,-4,-3,-12,-3,-6,15
116971373930,-21,-3,-2,-1,-16,-12,-26,-12
116971373930,43,10,4,-1,14,-3,10,32
116971374695,-87,-10,-8,-16,-22,15,-11,-41
116971374695,16,1,1,4,2,-48,12,-1
116971387609,1,4,0,-1,4,76,10,6
116971387609,9,-2,-1,7,8,-52,-12,-14
116971395773,-9,-1,-2,3,9,8,5,-14
116971395773,12,-3,1,-2,-6,8,0,24
116971410726,17,4,2,0,-8,-28,-8,13
116971410726,-20,-10,0,1,4,22,-12,-32
116971411524,-14,-10,-9,-5,-5,-16,6,12
116971411524,18,6,-2,-6,-8,-13,-17,-10
116971433951,44,6,2,0,5,-18,26,62
116971433951,-63,-17,-5,-4,-1,40,-12,-58
116971434694,-15,12,8,8,-2,-53,0,-33
116971434694,-11,-26,2,3,10,26,6,7
116971456466,28,1,-3,-3,-9,-15,-5,4
116971456466,20,4,-5,-7,-25,-32,-4,29
116971458044,-25,-9,-5,2,13,21,-5,-17
116971458044,-2,9,6,13,9,-7,-3,2
116971470042,-7,-1,-5,-2,-6,26,22,-18
116971470042,7,-4,-5,-2,11,42,-12,17
116971479163,30,6,2,0,-7,-24,7,18
116971479163,20,-10,5,-6,-6,-22,-10,5
116971494008,-25,-6,-5,-6,-11,-19,-18,-27
116971494008,6,2,-1,-3,-9,-17,23,25
116971495572,6,6,15,14,24,48,4,15
116971495572,-11,0,-7,-16,-38,5,-5,-7
116971516477,-12,-3,0,-6,3,-15,-1,-20
116971516477,-13,-12,-5,-5,-8,-22,-23,-24
116971518037,9,4,2,6,5,10,-21,-30
116971518037,49,13,-8,-18,-2,-9,31,68
116971530079,-11,0,4,2,4,22,6,-2
116971530079,-17,-6,-5,-1,-2,30,-3,-4
116971539085,-9,1,-2,-1,1,-14,-17,-16
116971539085,15,6,3,1,-3,-28,-1,-2
116971553882,-3,2,2,4,6,11,-6,-2
116971553882,12,4,7,-3,14,7,5,14
116971555536,22,2,-10,-14,-16,5,24,36
116971555536,-12,14,1,16,15,29,-4,-20
116971576418,-8,-5,1,-2,-7,-25,-17,-24
116971576418,-6,-4,-2,-4,-14,-26,0,-2
116971578050,6,0,5,6,7,-2,3,31
116971578050,8,-4,-8,-5,8,14,-1,1
116971590215,8,0,6,26,6,-2,4,-25
116971590215,8,15,-4,-20,8,18,12,27
116971599062,-13,-4,6,7,-7,-28,-19,-15
116971599062,-6,-2,-8,-10,-2,2,-9,-13
116971613915,-3,-3,-2,-6,-5,-4,0,3
116971613915,-24,-17,-7,-4,-10,-25,-19,-28
116971615511,6,5,-8,-10,-2,9,21,12
116971615511,-2,-9,-1,5,21,23,-6,-5
116971636532,2,-6,2,-1,-6,7,5,12
116971636532,1,2,-6,5,-5,-12,-12,2
116971638078,-25,-7,-3,-9,-7,-15,-17,-41
116971638078,-14,-3,9,12,-5,-7,7,15
116971650054,-12,0,-16,-24,0,9,4,-11
116971650054,3,-3,5,13,2,2,-4,-27
116971659197,13,1,-3,-1,-1,3,-6,26
116971659197,-27,8,-3,4,-1,-4,8,-35
116971673965,0,-4,2,-11,-2,-12,-18,-7
116971673965,12,7,2,7,2,5,14,23
116971675535,-16,-8,-6,-6,-7,-1,-12,-18
116971675535,6,-3,-9,-6,-3,-4,3,0
116971696438,-8,-3,-5,-1,4,4,6,15
116971696438,15,2,2,6,1,-3,-2,5
116971698033,-29,-8,1,-5,-7,-2,-5,-25
116971698033,16,-8,3,2,11,2,1,3
116971710158,-9,2,-1,2,5,-1,-8,-10
116971710158,2,-2,-1,4,2,-4,18,19
116971719212,3,-5,-16,-19,-20,0,0,8
116971719212,8,1,1,0,-13,-4,-11,-5
116971733927,8,1,8,5,5,1,0,3
116971733927,-25,-2,12,21,3,-1,3,-13
116971735570,8,0,-9,-3,6,2,-3,10
116971735570,7,0,3,-7,-1,1,-2,-7
116971756454,-14,-5,-3,-1,-12,-8,3,0
116971756454,-12,2,4,7,9,0,-6,-18
116971758059,20,-7,12,26,10,0,1,11
116971758059,-7,-6,-23,-18,-2,-6,-7,13
116971770066,3,-15,-4,-10,-6,-1,-1,11
116971770066,-2,0,-3,-17,-8,-5,-4,-53
116971779045,-2,5,2,3,5,5,11,24
116971779045,17,-3,10,18,6,-1,-2,-9
116971793977,-34,-6,-6,3,2,2,2,17
116971793977,-12,3,-2,-24,-10,0,-13,-60
116971795531,-29,7,6,29,-1,2,5,0
116971795531,40,2,0,-42,-6,-1,-2,7
116971816445,8,8,-3,5,2,2,5,36
116971816445,-13,-7,-14,-19,-9,0,4,13
116971818038,5,6,4,-5,-6,-10,-13,0
116971818038,5,2,-5,22,2,9,-1,-8
116971838974,-47,2,8,16,6,-3,-7,-48
116971838974,4,-12,-1,-16,1,7,4,19
116971840563,18,-9,-8,-15,-8,0,-1,49
116971840563,0,0,1,15,-2,-13,10,41
116971852547,-19,2,-1,5,10,6,-9,-34
116971852547,-24,-13,5,23,4,-5,-24,-60
116971861624,-19,-12,-6,-13,-10,-1,21,6
116971861624,26,13,4,0,3,14,10,6
116971875754,30,4,2,-15,-6,-30,-27,41
116971875754,-12,-2,-4,11,-5,-14,-4,-10
116971882577,38,9,3,-8,12,27,26,3
116971882577,-9,0,4,5,-3,20,8,-2
116971898929,-46,-5,-10,-5,11,20,2,-39
116971898929,42,8,2,7,-14,-49,-53,77
116971900511,28,9,1,1,0,7,59,17
116971900511,-3,4,3,10,32,34,54,31
116971912602,7,5,-1,-11,-9,-21,-23,-14
116971912602,41,7,4,-8,-6,24,25,49
116971921569,-20,-3,-6,-12,-9,-7,-38,-32
116971921569,-18,-17,-13,0,-9,-22,2,-17
116971935769,24,1,-1,10,-2,-6,3,6
116971935769,11,3,3,7,7,15,13,12
116971942643,-11,-2,3,5,3,-16,-18,-22
116971942643,-14,-2,1,-5,-20,-13,-43,-36
116971958953,6,-5,-6,-7,10,12,-2,-2
116971958953,-5,2,7,8,0,-3,23,5
116971960522,-6,-4,-3,-7,10,12,-12,-5
116971960522,-16,0,2,-5,-6,-18,-13,-6
116971981447,10,-2,9,-3,-7,-2,10,3
116971981447,18,2,-17,-6,4,3,6,33
116971983051,-45,-5,-3,-1,2,5,-28,-75
116971983051,-7,-5,-3,8,2,-15,6,2
116971995806,10,0,11,-1,-9,9,19,4
116971995806,12,2,4,2,4,4,-7,-7
116972002550,-37,-16,-12,-5,-12,-15,-4,8
116972002550,28,15,10,4,-1,-10,-3,-22
116972019171,-28,-7,0,4,8,15,-4,-17
116972019171,-12,6,-1,-3,0,-1,3,-15
116972020591,18,21,8,-4,-5,-2,8,36
116972020591,-5,-7,-8,-4,-3,-5,-20,-17
116972042901,27,1,-8,-3,-6,-13,11,19
116972042901,-10,5,0,-2,-1,19,11,11
116972044480,22,5,9,9,-1,-7,-6,-23
116972044480,-10,0,1,-2,1,4,-6,12
116972055092,15,1,-5,-8,7,-7,-6,10
116972055092,-16,-7,-13,-12,-10,2,-1,-5
116972064232,3,-1,0,-4,-6,-9,-7,-6
116972064232,-15,-4,-1,3,-2,-1,-9,-8
116972078977,-2,-7,-4,5,-6,-4,-10,-1
116972078977,-2,-6,5,4,12,4,1,-9
116972080596,8,0,12,15,8,-1,-5,10
116972080596,-11,-5,-15,-23,-12,-5,-4,-15
116972101476,15,-1,-4,-5,8,6,2,-9
116972101476,-13,-5,12,12,-4,-12,-1,-3
116972103051,6,-7,-18,-22,-8,3,-4,-4
116972103051,14,3,3,9,0,2,4,19
116972115081,1,5,-2,-5,-8,0,-1,-5
116972115081,2,4,6,7,0,-2,-6,-29
116972124180,-1,-9,-8,-8,-1,-6,-1,11
116972124180,12,-3,-3,-6,2,-1,5,16
116972138951,9,-6,6,11,-5,1,3,5
116972138951,1,-4,0,16,5,3,5,-1
116972140566,-11,4,-1,-9,4,-5,-6,-15
116972140566,-15,-6,-3,-6,-9,1,-2,-7
116972161464,4,-1,1,-5,-1,0,3,4
116972161464,-10,-3,-6,6,8,2,4,9
116972163047,10,-3,-3,-8,-16,3,-1,-7
116972163047,-2,6,8,8,11,3,2,14
116972175108,-37,-8,-6,6,-16,-4,-12,-37
116972175108,7,-4,-11,-19,-5,0,-3,-6
116972191600,2,4,-1,6,2,-7,-5,6
116972191600,-5,-1,-2,5,-2,-3,-1,-2
116972198976,7,-11,-5,1,8,6,12,41
116972198976,-22,-16,-3,22,5,-5,-11,-34
116972200598,-5,-3,-6,-33,-14,-1,2,0
116972200598,-2,3,8,6,-6,-5,10,12
116972221419,1,9,2,0,-3,-4,-11,-46
116972221419,-13,-4,-7,-25,-1,3,9,11
116972223035,-3,-22,-7,7,5,-2,-12,-3
116972223035,0,17,3,-1,-2,0,0,-9
116972235108,29,-14,-3,5,-4,-4,-2,5
116972235108,-21,-3,-1,-4,-2,-2,-19,-57
116972244081,-7,9,9,21,7,1,10,4
116972244081,-10,0,-6,-30,-1,0,-1,1
116972258901,-11,0,-3,2,-8,-8,-8,5
116972258901,-1,-1,-8,-3,-1,-5,-9,9
116972260548,-3,-8,4,16,11,-7,-6,14
116972260548,-8,2,-6,8,8,30,23,4
116972281472,6,12,1,-15,-4,-10,2,8
116972281472,6,-1,3,6,-9,-7,-28,-22
116972283071,1,6,-2,0,-8,-4,-1,63
116972283071,19,-28,-6,-9,4,-20,-30,17
116972295192,-70,-8,0,1,4,9,24,-35
116972295192,26,10,9,9,16,24,23,31
116972304114,4,2,9,11,1,0,-2,-39
116972304114,-20,-4,-7,-25,-19,-19,-5,-11
116972318967,12,2,-2,0,2,-8,-7,23
116972318967,7,-5,-4,-8,0,22,9,8
116972320570,1,8,6,8,-1,-11,-4,-21
116972320570,1,-1,10,30,8,4,-3,0
116972341495,6,0,-9,-24,-9,-4,-7,-7
116972341495,0,6,2,-7,-7,-8,13,13
116972343091,2,-3,-6,-1,3,5,-6,-8
116972343091,-9,-1,-7,-3,-9,-6,-7,-7
116972355075,7,4,1,9,-3,-2,-2,8
116972355075,-3,-1,-1,-7,-10,-10,-10,-3
116972364179,-4,2,-11,-7,2,4,6,5
116972364179,-1,-7,3,16,1,-6,-1,-10
116972378943,-1,0,2,-3,1,14,4,0
116972378943,3,4,3,0,-5,-7,3,15
116972380530,0,0,-4,0,-1,-6,-1,-11
116972380530,-5,2,3,-4,2,4,3,-3
116972401433,8,2,-1,-4,2,2,-6,3
116972401433,1,0,-2,2,-3,-11,1,6
116972402992,0,-5,-6,-15,-1,0,3,5
116972402992,-5,3,1,1,2,4,-5,-15
116972415087,17,1,-1,1,1,0,-2,9
116972415087,2,4,-1,-4,-3,-8,1,1
116972424165,-8,1,1,0,-1,6,2,-10
116972424165,2,0,1,-2,-1,-3,-3,4
116972438975,1,3,-1,11,1,1,4,0
116972438975,-1,5,-6,-9,0,-2,1,2
116972440573,11,-4,-1,-4,-4,-1,-3,-5
116972440573,-2,0,-1,3,0,3,1,-2
116972468979,-4,10,0,-14,1,-5,-6,-1
116972468979,-4,-2,-2,3,0,1,0,-3
116972470570,-2,2,-1,-6,-7,-7,0,-3
116972470570,-3,-2,2,5,8,-2,-1,-4
116972475061,12,4,5,-12,3,24,5,7
116972475061,-9,-13,-1,-8,-5,-21,-5,-3
116972484050,3,-1,2,18,-1,-3,-2,-2
116972484050,1,-1,-4,-28,-8,1,2,-2
116972498979,1,8,-1,20,1,-10,-6,-2
116972498979,-1,-8,-4,1,-1,8,6,2
116972500583,0,-3,-2,5,1,1,1,-5
116972500583,-6,0,-2,8,3,5,1,-1
116972521469,-6,-4,-4,-10,-6,9,-1,-2
116972521469,1,-2,-3,17,-3,-21,-5,1
116972523032,-5,-2,0,-27,-1,-3,-4,-1
116972523032,4,1,6,9,8,14,3,2
116972544052,-7,-7,2,3,-2,-2,-3,-3
116972544052,2,-2,-5,-27,-8,11,2,3
116972545566,-9,-2,0,31,0,-15,-6,-3
116972545566,-3,9,-4,-14,-8,-6,-1,-3
116972559307,-5,-10,-11,-17,-6,-8,-4,-1
116972559307,-1,0,4,25,7,-1,-6,-2
116972560537,1,2,-5,-33,-4,4,-1,-8
116972560537,-5,-5,-5,39,-3,9,1,-7
116972581442,-3,-4,2,19,3,-22,4,0
116972581442,2,0,0,1,-1,8,-1,-1
116972583040,-2,-5,-2,-77,-6,9,3,-2
116972583040,-1,-5,-5,-41,-7,-11,-3,-1
116972595097,-5,-5,-3,16,-1,0,-5,-4
116972595097,5,1,0,48,4,-1,1,1
116972604067,-1,-2,-2,16,1,6,1,1
116972604067,-3,-5,0,-7,0,0,0,0
116972618966,-2,-3,0,11,-11,-12,2,0
116972618966,-2,1,1,10,2,5,-3,-1
116972620604,7,3,5,29,6,3,1,0
116972620604,-6,-5,-9,-7,-7,-6,-5,-2
116972641455,-1,0,6,21,7,0,-5,-1
116972641455,1,-2,-8,-68,-16,-5,2,0
116972643057,0,-4,0,14,-1,-6,1,1
116972643057,2,-3,-4,-40,-7,-3,-5,0
116972671542,-1,-3,1,-25,-1,-2,2,-2
116972671542,-5,-1,-1,-3,6,3,-4,-1
116972673168,-3,4,-6,-35,-6,-3,-4,1
116972673168,0,-9,5,78,8,0,1,-3
116972678251,-5,-2,3,-16,-3,32,4,2
116972678251,-14,-4,-10,-10,-10,-43,-7,-8
116972685050,-1,0,0,-12,-1,0,-1,2
116972685050,3,1,3,7,4,3,-2,2
116972701415,1,11,-3,11,6,6,4,1
116972701415,1,-3,5,19,4,11,2,-7
116972703050,9,-1,-6,27,1,-5,-5,-1
116972703050,-3,3,-1,-18,-6,-7,1,-6
116972715096,-3,-6,-1,1,-6,-5,-5,-1
116972715096,11,15,3,-43,1,12,0,4
116972724073,0,-13,-2,75,1,-6,-1,-1
116972724073,-4,2,0,-46,-3,1,-3,-4
116972738237,4,4,0,35,3,-7,-1,0
116972738237,7,4,1,-43,1,13,3,2
116972745109,-10,12,-2,-22,-2,-8,-1,-2
116972745109,2,-6,-1,8,2,-4,-2,-1
116972761499,1,-4,0,-22,-2,-3,-4,0
116972761499,0,-7,-7,58,-4,-4,-2,1
116972763074,-5,2,4,-67,-3,11,2,-5
116972763074,-11,-3,6,41,-3,-5,-2,-1
116972775076,1,-6,-11,-63,-8,-14,-5,-6
116972775076,-2,-1,0,66,13,8,-1,2
116972784172,3,-2,-2,3,-6,3,4,-1
116972784172,-2,-11,-6,-8,-2,0,0,-1
116972798326,0,-1,-3,44,-1,-1,-2,-4
116972798326,-13,-7,-1,-38,-5,-5,-2,-1
116972805131,21,14,1,93,14,2,-2,1
116972805131,1,-23,-6,-82,-14,-1,1,0
116972821416,21,9,0,45,2,0,-2,-3
116972821416,-17,-15,-9,-85,-12,-3,1,-2
116972823056,2,-1,2,7,-1,-4,0,2
116972823056,21,20,3,22,4,0,1,5
116972835119,-5,0,-1,1,-1,0,2,-1
116972835119,-12,-3,-4,-49,-10,-5,0,5
116972844072,-19,-13,-3,15,0,2,-5,-6
116972844072,-8,2,-4,-13,-1,-2,-6,-4
116972858269,-6,1,-1,-15,6,-1,0,4
116972858269,15,2,-3,7,-14,-7,-2,-5
116972882151,2,6,2,-3,5,0,-3,-1
116972882151,-1,-2,-2,24,-1,-3,-3,-2
116972882886,-2,-2,1,-18,-3,0,-2,-1
116972882886,-4,9,0,5,-2,0,-3,-2
116972884595,6,1,0,-10,-1,0,-1,0
116972884595,6,-5,-4,-29,-5,-3,-3,0
116972903992,-25,-9,0,25,8,3,0,-3
116972903992,0,8,0,23,4,-2,-3,-6
116972905545,-8,-17,-1,9,-7,-2,2,1
116972905545,-1,12,0,15,6,-2,-1,-4
116972918379,-7,-4,-10,-87,-13,-4,-7,-14
116972918379,9,5,0,-23,3,2,10,15
116972925096,-27,-5,-2,-8,-1,0,1,-5
116972925096,-5,4,0,-6,-3,1,0,-10
116972941489,6,-2,2,-21,-7,-1,-2,0
116972941489,9,-2,7,36,6,-3,-8,-7
116972943078,-11,-40,-13,-32,-6,-1,-2,-1
116972943078,0,-2,-1,23,2,0,-1,-1
116972963923,2,2,3,-18,-4,-1,1,1
116972963923,-4,-11,-2,29,3,2,0,-3
116972965556,1,7,2,24,-3,0,1,5
116972965556,3,-2,-11,-48,-7,-4,-8,-10
116972978234,-19,1,2,25,3,0,-2,17
116972978234,14,11,2,7,-2,0,1,8
116972985113,6,12,-4,-9,-4,-3,-5,-10
116972985113,10,8,6,14,4,2,6,-6
116973001199,8,3,1,12,0,-1,-3,6
116973001199,-3,-15,-3,-29,-6,1,6,5
116973007585,16,22,0,-29,-3,-1,-3,-7
116973007585,-12,-9,-6,22,0,-2,1,51
116973023978,-27,-12,-4,24,-1,-5,1,-14
116973023978,14,14,2,19,3,-2,-5,7
116973025604,3,3,1,-1,2,3,-1,10
116973025604,-8,-7,2,4,-2,-1,3,-24
116973037575,6,-11,-5,-3,-3,-3,-1,-4
116973037575,-5,0,1,4,-1,1,-5,-7
116973046598,-10,-8,-5,2,-3,-2,-2,8
116973046598,-10,10,5,-10,-2,2,-1,0
116973061473,15,7,-2,1,1,0,0,-3
116973061473,-15,4,2,-7,-1,1,2,-18
116973063072,1,1,3,11,11,0,0,-1
116973063072,11,6,-7,-67,-13,-4,-3,6
116973083958,6,-3,-3,-20,-1,-1,-1,-3
116973083958,-17,2,-2,17,0,1,-3,1
116973085522,-5,-2,-1,-10,-3,2,-1,-1
116973085522,-1,-1,3,63,8,1,1,-1
116973097627,4,5,-2,0,-8,-4,-2,1
116973097627,-4,-15,-2,5,2,-3,-2,-3
116973106633,-9,-15,-4,-20,-3,-3,-4,-11
116973106633,-5,-7,-1,29,-5,-1,-2,-1
116973121455,-8,12,2,36,6,0,1,-16
116973121455,-11,-9,-2,-25,-4,-1,-3,-11
116973123058,12,11,-5,-11,-8,-3,0,-1
116973123058,-3,-2,7,52,7,2,-2,-9
116973143946,-10,-13,-10,-95,-9,-2,-1,6
116973143946,2,-13,-2,6,-1,-1,2,4
116973145532,20,14,4,20,6,1,1,-3
116973145532,0,2,-5,-40,-10,0,0,-3
116973157591,2,-8,3,13,2,1,-2,-25
116973157591,3,-7,-4,9,2,-3,0,16
116973167239,-9,-6,4,-21,-4,-1,0,4
116973167239,-6,-8,-1,15,5,-1,-4,-6
116973181363,7,3,-3,-2,-1,3,0,-5
116973181363,-14,-7,-2,-4,0,0,-2,-25
116973183022,6,-1,4,13,-1,1,0,1
116973183022,5,1,2,14,1,0,-1,2
116973203950,12,12,1,16,2,0,0,6
116973203950,1,-25,0,14,4,0,-1,3
116973205535,-12,-6,-7,-16,-5,-4,0,1
116973205535,14,4,1,5,1,-2,0,-7
116973217578,2,6,2,-1,-1,-1,0,14
116973217578,6,7,2,36,3,0,-1,-2
116973226586,-16,-8,-2,-40,-7,-4,-3,5
116973226586,1,2,6,-21,3,0,-2,-1
116973241482,-6,-10,-6,18,-2,-4,0,-2
116973241482,9,10,1,-11,-5,-1,0,4
116973243035,-26,-12,-8,7,-3,-2,-2,-11
116973243035,5,2,0,-13,-1,0,0,14
116973263958,2,1,1,12,2,0,0,-12
116973263958,2,11,4,-7,-1,0,-1,-3
116973265583,7,-2,-9,-55,-6,0,-3,0
116973265583,-7,-2,-3,10,-2,-1,-1,2
116973286486,-2,-22,-4,14,2,-1,-1,6
116973286486,12,1,-7,-22,-8,-5,-5,-1
116973288043,6,6,1,34,4,1,1,-3
116973288043,-19,-5,0,12,1,1,0,-8
116973301437,-5,-3,-2,-11,-1,-2,0,3
116973301437,5,8,0,8,-3,-1,0,1
116973303042,-3,-43,-2,12,2,-3,-4,-11
116973303042,7,1,-2,3,-3,-3,-1,2
116973324006,-7,-2,-1,-5,-1,-2,-2,5
116973324006,-9,-9,-5,-15,-1,-4,-1,-2
116973325541,0,13,1,11,1,2,-1,4
116973325541,-3,4,-2,-7,0,1,-2,23
116973338286,6,-9,0,-2,-2,1,0,-14
116973338286,22,1,-2,-4,-1,-2,-1,-1
116973345053,13,18,7,13,-1,1,1,-1
116973345053,-3,0,-3,6,-1,-2,-1,-6
116973361483,-3,4,-4,-47,-6,-2,-1,12
116973361483,-4,0,-3,10,0,-1,-2,-4
116973363023,-1,20,3,15,4,-1,2,2
116973363023,-6,-14,-5,-1,-3,-3,-1,-6
116973383947,17,13,7,21,3,1,-2,-1
116973383947,1,3,-1,-3,-4,0,-4,-5
116973385592,-11,0,2,-15,-1,-2,0,14
116973385592,-3,1,-1,-31,-6,-2,-1,-8
116973397578,-11,-4,-4,9,-3,-3,-4,-20
116973397578,-7,0,-2,2,0,-1,-2,-3
116973406599,5,-1,0,7,-1,-2,-1,-1
116973406599,1,-18,-5,1,1,-3,-2,-11
116973421235,-5,-3,-3,5,-3,-2,-1,11
116973421235,-8,-1,-1,-3,-2,1,1,1
116973427520,-9,-28,-5,5,-2,-3,-1,-7
116973427520,-2,-8,-3,-3,1,-1,0,-2
116973443950,4,3,0,-8,-2,-1,-2,2
116973443950,-10,5,3,-13,-2,0,-2,-4
116973445536,-4,-2,-5,-6,-1,0,-2,-2
116973445536,-2,3,2,-2,0,-2,-2,0
116973457601,-3,-6,2,7,2,0,-1,-6
116973457601,-2,-5,-3,-5,-2,-3,0,0
116973466541,-4,11,0,-6,0,-3,-5,-5
116973466541,1,1,-2,8,-1,-1,-1,-5
116973488948,-6,-1,0,3,1,0,-1,-1
116973488948,-8,-2,-1,5,1,0,-2,-26
116973490572,2,-10,-4,-17,-3,0,1,22
116973490572,-5,8,1,2,0,0,4,-2
116973503949,8,3,2,2,0,1,3,3
116973503949,-1,6,1,-1,-2,0,-2,6
116973505582,2,1,2,4,-2,-1,-3,-8
116973505582,-5,0,-5,-6,-4,-4,-4,-6
116973517591,-5,1,-3,15,-1,-1,-2,5
116973517591,-13,-6,-1,-21,-6,-2,-1,5
116973526574,2,9,0,-1,-1,-1,-1,-8
116973526574,-5,14,-1,-8,-2,0,-2,-1
116973541450,-24,-7,-2,42,5,-4,-1,-13
116973541450,17,3,-2,-19,-2,-2,0,1
116973543036,2,4,-1,2,-3,-4,-1,-4
116973543036,-3,-25,-1,3,-1,-1,-2,-6
116973563960,-2,-3,-2,-1,-3,-2,2,12
116973563960,0,15,-1,0,-1,0,0,4
116973565572,2,8,-2,-4,-2,-1,2,-2
116973565572,-11,-1,-3,1,1,-1,-2,-1
116973577569,9,2,-3,-15,-2,-1,-4,-3
116973577569,-8,-9,0,10,2,-1,1,6
116973586567,-8,-4,-4,-6,-3,-1,-2,-4
116973586567,-8,-8,-4,2,-1,0,-2,-4
116973601506,1,10,4,2,-1,0,0,2
116973601506,-9,-6,-2,-7,-3,-1,-1,-3
116973603041,0,-4,0,5,0,1,2,-3
116973603041,-5,0,-5,0,-3,-2,-2,-1
116973623993,3,1,-1,-18,-4,1,0,5
116973623993,-9,-11,-6,5,0,-2,-4,-14
116973625577,-6,6,1,6,0,0,1,0
116973625577,12,-16,-2,-11,-3,-1,-1,6
116973637567,-5,-12,-3,-8,0,-1,-2,3
116973637567,22,6,3,8,2,1,1,3
116973652652,3,-9,-1,-1,1,0,-2,3
116973652652,-4,4,0,-3,-4,-1,0,-5
116973661462,8,-2,0,-7,-1,1,3,-7
116973661462,-14,3,-3,-5,-3,0,0,3
116973663048,1,-1,0,12,2,1,-2,-1
116973663048,8,8,2,-21,-2,-1,0,4
116973683951,-7,-2,-6,-3,-1,-3,-4,-8
116973683951,0,4,-1,0,-1,-3,2,4
116973685537,-11,-3,-8,-2,-4,-5,-4,-20
116973685537,6,3,2,9,-1,0,0,3
116973697602,4,-2,0,-6,-2,-1,-1,1
116973697602,-2,-3,-2,8,1,0,0,-6
116973706617,7,-2,-2,-7,-1,0,-2,11
116973706617,-4,-1,-1,2,-1,0,0,-3
116973721458,-3,1,-1,10,0,-2,-2,0
116973721458,6,-1,0,-13,-5,0,0,8
116973723039,4,-4,0,4,2,-3,-1,-4
116973723039,15,9,2,10,-2,-1,1,0
116973743955,-11,-3,-6,-4,-3,-3,0,-19
116973743955,-7,-6,-1,3,1,0,0,5
116973745562,-3,4,-1,1,-3,-1,1,-19
116973745562,-6,3,0,0,2,0,-2,-5
116973757534,5,3,1,-3,-1,0,0,0
116973757534,1,-26,-3,0,-3,0,-2,0
116973766570,-2,5,0,7,-3,-2,-3,4
116973766570,1,12,-4,-17,-4,-5,-5,-6
116973781435,-4,0,2,1,0,0,1,4
116973781435,8,-2,-3,-11,-1,-2,-3,-2
116973783080,7,2,2,8,1,1,1,9
116973783080,-5,-9,-2,2,1,-1,1,-1
116973803978,3,0,1,-5,-1,-2,-1,5
116973803978,-3,8,-1,7,0,-2,-2,1
116973805605,-5,-6,-2,-6,-2,-1,-3,0
116973805605,-2,-2,0,1,0,-1,-2,-1
116973817582,-1,-3,-1,-8,-3,-1,-3,-6
116973817582,5,-1,-3,6,1,-2,-1,-2
116973826602,-1,-3,0,-4,-2,1,-1,8
116973826602,-9,-3,1,1,2,1,2,-16
116973841449,5,-20,-3,1,-2,-3,-1,0
116973841449,-26,-8,-4,-7,-5,-3,0,1
116973843070,2,0,1,-10,-1,0,0,5
116973843070,18,10,2,5,2,0,0,4
116973863908,-11,16,0,2,0,0,1,0
116973863908,1,1,2,6,1,0,0,0
116973865543,-20,-6,-5,-7,-4,-4,0,-8
116973865543,-7,0,0,2,-2,-2,-1,4
116973886417,21,-17,-1,12,0,1,-2,3
116973886417,-3,0,-2,-2,0,0,-2,-3
116973888081,-1,-23,-2,0,0,-2,-2,-3
116973888081,0,1,1,-4,0,0,0,2
116973901448,-1,22,0,6,-1,-3,0,-5
116973901448,-2,-1,-3,0,-2,-3,0,5
116973903040,0,0,2,5,-1,-1,0,-6
116973903040,-7,-4,-3,4,1,-1,-3,-1
116973931450,4,-1,1,-8,0,0,-1,2
116973931450,13,12,3,-5,0,0,-2,3
116973933070,-3,6,0,-5,1,-2,0,-2
116973933070,3,-1,-1,-6,-4,1,-1,3
116973946448,-14,-15,-2,-6,-2,-2,-3,2
116973946448,-2,-1,0,1,1,-1,0,4
116973948034,4,-3,-3,-4,-4,-2,-1,1
116973948034,-1,-31,-5,-1,0,-1,1,-4
116973961442,8,-2,-2,-3,-3,-2,-1,0
116973961442,-18,-7,-2,1,-2,0,-2,-8
116973963039,2,1,-4,-1,-2,-1,-1,-2
116973963039,-4,2,-2,-1,0,0,-2,3
116973983984,-7,1,-2,-8,-2,-1,-1,-1
116973983984,-7,-2,-1,7,-1,-2,-3,-16
116973985573,4,7,-1,0,-1,-1,0,6
116973985573,-2,3,-1,0,-2,-2,0,2
116974006449,-10,-5,-1,-5,-1,-1,1,-3
116974006449,-12,1,-2,-2,0,-2,-2,-3
116974008046,-2,-3,-2,-6,1,-3,-2,-1
116974008046,1,2,-2,1,-5,-5,-2,-1
116974020754,-6,-22,-1,-1,0,-2,-2,3
116974020754,5,-13,-1,-2,-2,-1,0,-4
116974027555,-2,1,-4,-2,-2,-2,-2,5
116974027555,-5,-2,-2,-3,0,-1,-2,1
116974043910,9,18,2,0,-2,0,1,4
116974043910,-7,4,0,5,1,-2,0,1
116974045625,-11,-26,-1,9,1,1,1,-17
116974045625,8,3,-3,-32,-3,-1,1,0
116974066445,5,12,-5,3,-1,1,0,0
116974066445,8,0,-1,0,0,1,-2,1
116974068048,6,10,2,4,-1,-1,-1,4
116974068048,2,6,0,9,-2,-1,-1,4
116974080766,-15,-12,-1,-4,-2,-3,-1,-8
116974080766,3,4,-2,-10,-4,-2,-1,1
116974087543,1,4,1,3,1,-3,-4,1
116974087543,-5,3,0,4,-2,-3,-1,-3
116974103965,-1,1,2,-1,-2,-3,-2,-1
116974103965,3,1,2,4,-1,0,-1,1
116974105535,-5,-1,-1,-11,-3,-2,0,-5
116974105535,-6,-21,-2,10,2,0,-1,4
116974126413,13,5,-1,-2,-1,-1,-2,-8
116974126413,0,-4,-2,-3,-2,-2,1,5
116974128054,-5,0,0,-4,-3,-1,-1,25
116974128054,17,9,2,3,0,2,1,-12
116974140785,-3,-1,-1,-5,0,0,0,0
116974140785,-2,8,0,-1,-1,-2,-2,-1
116974147558,11,24,1,0,0,0,-2,0
116974147558,-15,-5,-3,-2,-2,-3,-1,-4
116974164003,5,1,-1,5,3,2,0,3
116974164003,-9,1,1,5,-4,-2,-1,-1
116974165512,-3,1,-2,2,-2,0,-2,-7
116974165512,-7,2,1,-3,-2,-2,-4,-2
116974186489,-1,2,0,-2,-1,-2,-2,-4
116974186489,3,-3,-3,-2,1,0,1,-1
116974188099,1,5,4,-1,0,-1,1,-6
116974188099,-7,13,-4,2,-1,-3,0,3
116974208921,2,-15,-2,-4,-2,-1,-1,-2
116974208921,7,21,0,3,1,-1,1,-16
116974210544,10,0,2,4,0,1,2,-3
116974210544,2,1,-3,-15,-1,-1,0,0
116974223945,-3,3,-3,0,0,0,-1,2
116974223945,4,-4,-1,-5,-1,0,0,4
116974225550,0,-4,-3,0,-2,-3,-1,-6
116974225550,-19,-10,-2,5,0,-1,-2,-1
116974246482,-3,-2,1,0,-2,-2,-4,0
116974246482,0,-11,-6,-1,-4,0,-3,5
116974248075,-6,-5,-2,-4,-2,-2,-1,-1
116974248075,-1,-5,-3,-4,-1,0,-1,2
116974260779,-2,1,2,-5,-4,-1,0,2
116974260779,-5,-7,0,1,0,-3,-1,-3
116974267587,2,1,1,0,1,0,-1,-3
116974267587,10,0,0,0,-1,2,1,1
116974283951,-8,-12,-3,-2,-1,-2,-2,-28
116974283951,-14,-13,0,-4,-1,-1,-2,2
116974285537,-1,-3,-4,-6,-2,-1,1,-1
116974285537,1,-5,1,3,1,0,-1,-3
116974306407,-1,5,-2,-4,-3,-1,1,9
116974306407,2,1,-1,-1,0,-2,-2,0
116974308048,1,-5,-5,-12,-3,-2,-2,-7
116974308048,-7,-28,-2,7,-2,-2,-2,-1
116974320741,0,4,-2,2,0,-1,-3,5
116974320741,6,1,0,0,0,1,1,-1
116974327601,-17,-3,-3,1,0,0,-1,4
116974327601,19,12,3,0,0,0,1,-1
116974343997,0,21,1,1,-1,1,0,6
116974343997,-5,-7,-2,-5,-2,-3,-1,-2
116974345619,2,-1,3,6,-1,1,-1,3
116974345619,-4,-1,-2,0,-1,0,-3,1
116974366413,-11,-5,-2,2,-2,-3,-2,-22
116974366413,7,3,2,-1,-1,-2,-2,-6
116974368038,3,-4,-2,-8,0,0,4,12
116974368038,-2,7,2,4,-1,-3,-3,-5
116974380103,1,-5,-2,2,-1,0,-2,11
116974380103,0,-9,-3,-1,-1,0,-1,0
116974389115,-1,-8,-1,0,-2,-3,-1,-7
116974389115,-9,-5,0,-7,-1,-4,0,2
116974411399,-4,-8,-6,-5,-1,-2,-1,5
116974411399,-6,-11,0,-2,-2,-2,-2,-5
116974413040,-2,1,0,2,0,-2,-4,-3
116974413040,0,1,-3,-3,-2,-1,-2,1
116974426437,-3,-6,-2,-2,-4,-1,-1,-2
116974426437,-5,3,-4,-4,-2,0,-1,-1
116974428047,-3,-7,-2,3,0,-2,-2,9
116974428047,-11,-3,-1,-8,-1,0,1,-16
116974440054,5,8,2,3,-1,-2,-1,-1
116974440054,2,3,-3,2,0,-2,0,5
116974449006,-10,-6,-3,-6,-2,0,-1,7
116974449006,10,2,-4,5,0,0,0,-2
116974463919,1,-13,-2,-2,1,0,0,7
116974463919,8,3,0,-2,1,-1,1,-2
116974465560,1,4,1,-1,-1,-2,-2,-10
116974465560,4,6,0,-2,0,-3,-2,0
116974486885,-9,-23,-3,1,0,-1,-1,0
116974486885,5,3,0,1,-1,0,-1,0
116974488454,-3,-2,-1,-2,-3,1,-1,-1
116974488454,-1,3,2,2,-2,0,-1,2
116974500048,-11,-3,-3,-7,-2,-2,-2,-2
116974500048,-7,2,0,-2,-1,-1,-3,-19
116974509124,2,0,1,0,-1,-2,-2,-8
116974509124,9,-7,-8,-1,-3,-1,-1,3
116974523925,11,14,1,-3,-1,-2,2,0
116974523925,0,-1,-2,-1,-1,-1,0,4
116974525552,-12,15,-3,-4,0,-1,-2,-4
116974525552,-7,-10,1,-2,-1,-1,-2,-2
116974546435,0,2,1,-3,-2,0,-3,1
116974546435,-4,2,1,1,-1,-1,-1,4
116974548099,14,7,1,-3,-2,-4,3,-2
116974548099,5,10,3,5,0,-2,1,7
116974560061,-13,2,1,-5,1,0,-2,-3
116974560061,1,-2,-2,-5,-1,0,-2,2
116974569087,-4,2,-3,5,-2,0,-3,-4
116974569087,-3,-1,-2,-3,-1,0,-2,-2
116974583951,17,7,2,4,2,1,-1,20
116974583951,-1,-4,0,3,-1,-1,0,-8
116974585536,0,-5,-3,-8,-4,-1,-2,-2
116974585536,-8,3,-4,-9,-3,-4,-1,-1
116974606473,-11,7,-3,2,-2,-3,-2,-6
116974606473,2,-3,-2,-1,-2,-1,-1,13
116974608048,-1,-12,0,-3,-2,-1,-1,-3
116974608048,-4,-10,-2,-2,0,-2,-2,10
116974620081,3,3,1,-1,-1,-1,-2,-8
116974620081,2,3,-3,-2,-1,-3,-1,-5
116974629047,-7,-9,-2,-6,1,0,-1,-6
116974629047,2,0,-2,6,-2,0,0,-3
116974643952,2,-7,-2,-6,-2,-1,1,3
116974643952,5,6,0,1,-2,0,-3,-1
116974645577,-1,-1,1,2,1,0,-1,5
116974645577,-10,10,1,-4,0,-2,0,-23
116974666403,8,0,2,1,0,0,1,1
116974666403,2,0,2,2,0,0,1,2
116974668051,6,3,-4,4,-2,-1,-2,0
116974668051,7,1,2,-5,-1,0,-1,0
116974680084,-13,0,-2,1,-2,-3,0,0
116974680084,-30,-12,-2,-4,-1,-2,1,-6
116974688993,9,8,0,0,-1,-2,-3,0
116974688993,0,6,2,2,1,0,0,2
116974703915,4,5,1,-1,-3,-2,0,-3
116974703915,3,-5,-5,-3,0,2,-2,3
116974705508,-1,-2,-2,4,0,-2,-2,-2
116974705508,-5,-6,-5,-9,-2,0,-3,0
116974726434,5,-9,-2,0,-1,-1,-2,-1
116974726434,1,18,-1,0,-1,0,-1,20
116974728054,-11,-9,-2,-1,-1,-2,-2,-14
116974728054,20,6,0,3,1,-1,-1,4
116974740084,-4,-7,-4,2,0,-1,-2,-4
116974740084,2,8,0,-2,-1,-2,-1,-3
116974749109,10,-19,-1,0,-1,0,2,-3
116974749109,-6,-5,-1,-4,-1,-3,1,10
116974763949,8,1,2,3,0,0,1,0
116974763949,2,3,-1,2,-2,-1,0,-6
116974765582,-6,-4,2,5,1,-1,0,-7
116974765582,-1,-1,-4,-8,-5,1,-2,-3
116974786496,-15,-15,-4,-3,-2,-2,-2,-5
116974786496,5,-6,0,-7,-2,0,-2,-2
116974788057,2,-4,-1,2,0,-1,-1,4
116974788057,1,-8,-1,6,1,-1,-2,5
116974825304,-13,0,0,-2,1,-4,-2,-2
116974825304,-7,-6,-2,1,1,1,1,-22
116974826829,-2,10,-1,-5,-1,0,-2,2
116974826829,-1,-9,-1,0,0,-3,-2,-2
116974827673,18,10,1,-1,-1,0,1,-5
116974827673,-5,-7,-1,-1,0,-4,-1,13
116974831538,-3,0,1,-1,0,-1,-2,1
116974831538,-3,3,0,0,0,-1,0,-6
116974846446,9,7,-3,-1,-1,-1,-4,-1
116974846446,-1,-12,1,0,-1,-2,-3,-2
116974848036,3,-4,-4,-4,-2,-1,-1,3
116974848036,1,1,-1,4,-2,0,0,3
116974868910,-3,10,1,-4,1,2,1,1
116974868910,-3,-12,-3,2,-1,-1,1,-6
116974870546,-9,2,-1,-7,-2,-2,-3,-1
116974870546,7,1,-2,13,-1,-2,-3,18
116974883946,-6,-5,-1,0,0,0,0,-9
116974883946,11,8,-1,-3,0,1,-1,1
116974885495,-6,18,5,2,0,0,1,-5
116974885495,-15,1,-1,-3,-3,-2,-1,0
116974905755,-2,-6,-1,0,0,-1,-1,3
116974905755,4,0,0,0,-2,-2,-1,4
116974906539,5,-3,-1,-2,-1,-1,0,5
116974906539,5,6,4,-1,0,1,-3,-9
116974928281,-7,0,-2,-3,-1,0,0,6
116974928281,-5,-1,-4,-4,-3,-4,-2,-8
116974929032,0,18,-2,-1,-1,-1,-2,-1
116974929032,0,-11,-3,-5,0,0,0,-5
116974943254,-5,-6,-3,2,-2,-2,-4,-4
116974943254,1,-1,0,2,-1,-2,-4,11
116974944020,-7,-8,-4,-4,-1,-1,0,-16
116974944020,-1,11,0,2,-1,-2,1,-1
116974965786,0,-1,-1,-3,-1,-2,-2,1
116974965786,15,0,-4,-9,-2,-1,-3,-4
116974966557,1,-2,0,-2,0,0,1,12
116974966557,-24,-9,-1,-4,-3,1,-1,-4
116974988226,-12,-6,0,1,-1,-1,-2,-8
116974988226,-10,0,-2,-5,-2,-1,-1,-7
116974988970,18,-4,0,6,-2,0,-1,-1
116974988970,1,9,-3,-12,-1,-1,0,-4
116975003251,8,0,-1,2,-1,-1,-1,4
116975003251,-5,-2,2,-1,1,-1,-1,0
116975004076,-3,-2,-5,-1,-1,-2,-5,5
116975004076,1,3,0,0,1,-3,-4,-1
116975027253,-1,-2,-3,-5,-4,-2,-3,-3
116975027253,-8,-2,-2,1,0,-4,0,1
116975028036,-1,-1,0,0,-1,0,0,-7
116975028036,0,1,-2,0,-1,-2,0,-1
116975048248,-1,-4,-4,-2,-1,-1,-2,-8
116975048248,13,17,1,2,-1,-1,-1,5
116975049058,-6,-21,-2,-4,-1,-3,-1,3
116975049058,-1,-11,0,3,1,0,-1,-1
116975063278,-9,0,-1,-8,-3,-1,0,3
116975063278,6,-6,-1,1,1,1,0,-2
116975063988,-3,14,3,0,0,1,-1,2
116975063988,-2,-5,-1,0,-1,0,2,-4
116975085722,1,-2,-1,1,0,-2,-1,-1
116975085722,-8,-7,-4,-1,-1,-2,-2,-7
116975086552,-2,-3,-3,-1,-2,-1,0,0
116975086552,-5,-10,-2,3,0,-3,-3,0
116975108242,11,6,4,-5,-1,0,-2,10
116975108242,-5,-1,2,3,-2,0,0,-14
116975109046,-1,-2,-2,-5,0,-2,-2,0
116975109046,4,3,1,10,1,-1,2,0
116975123280,4,-4,-3,-5,0,-3,0,-9
116975123280,-6,1,0,1,-2,0,1,5
116975124066,6,-12,-3,-7,-2,-2,0,-1
116975124066,-4,-6,-4,-6,-4,1,-2,-5
116975145750,0,-18,-1,0,0,-1,1,-1
116975145750,-7,-3,-3,0,-1,-3,-3,2
116975146575,-5,8,1,1,0,-1,-2,-3
116975146575,0,-12,-11,-6,-3,-2,-2,-1
116975168224,-12,0,-3,2,-2,-1,-3,-2
116975168224,-1,3,0,-5,-1,-2,-2,-2
116975169008,9,-8,-1,1,-2,-2,1,4
116975169008,8,11,5,-1,1,-1,0,4
116975183257,0,6,-1,4,0,-1,0,0
116975183257,0,-5,-1,-6,-1,1,0,12
116975184071,2,6,2,0,-1,0,1,-15
116975184071,-2,-2,-1,-2,-2,-2,-2,-5
116975205764,-4,1,-1,-1,0,1,1,-1
116975205764,4,-2,-1,-1,0,-1,-2,-5
116975206543,0,-23,-7,-3,-1,-2,-1,10
116975206543,-9,0,0,-3,-2,0,1,-2
116975228818,-4,6,1,1,0,0,-1,-1
116975228818,13,-1,-1,1,-3,-2,0,-5
116975229504,-10,1,-3,-1,0,0,-2,0
116975229504,-1,-4,-2,0,-2,-2,0,-4
116975243264,-2,-3,-4,-4,-2,-1,-1,1
116975243264,-8,1,3,2,1,0,0,-5
116975244113,9,12,0,4,0,-1,-2,-5
116975244113,-12,-10,-2,-2,-4,0,-1,2
116975265739,-17,-13,0,-8,-1,-2,0,-3
116975265739,-10,-4,-1,1,1,-2,-2,-20
116975266544,-1,-4,-2,0,-1,-1,-3,-2
116975266544,4,3,-1,-1,0,-1,-3,1
116975288195,8,2,-1,3,-1,0,1,-4
116975288195,-6,-5,-3,0,-1,0,0,4
116975288998,-7,4,1,-2,-1,-3,-3,-2
116975288998,-1,-13,-3,-2,-2,-1,0,-4
116975303213,-10,-1,-1,-1,-2,-2,-4,3
116975303213,4,5,-2,-3,-2,1,-1,3
116975304005,-1,3,0,1,-1,1,0,-2
116975304005,-11,1,-1,-3,-1,-1,-1,2
116975325725,2,-4,-3,-2,-2,-1,-1,-1
116975325725,-3,-4,-1,-1,-1,-1,-2,1
116975326535,0,-1,-2,-2,-3,-1,-1,-2
116975326535,1,1,-3,-4,-1,-1,-4,12
116975348227,7,-14,-1,3,-1,0,0,-10
116975348227,-6,1,0,1,-2,-2,0,2
116975349016,0,-4,1,-5,-2,0,-1,-10
116975349016,9,0,4,2,2,-1,1,13
