timestamp,emg1,emg2,emg3,emg4,emg5,emg6,emg7,emg8
89390711240,12,-2,-2,1,-1,2,1,16
89390711240,-19,1,-3,0,0,-2,-4,-31
89390716956,-4,-3,-1,-1,-1,-1,-3,2
89390716956,-15,-3,-1,-2,-1,1,2,1
89390718348,2,-2,-4,-2,-2,-4,-2,-8
89390718348,0,1,3,-1,-1,0,-1,3
89390719188,-1,-2,1,-2,-1,2,-2,2
89390719188,-1,-3,-6,0,-2,-2,1,-8
89390730507,-7,1,-3,-3,-2,-4,-2,-2
89390730507,-17,-5,-2,-3,-2,1,2,13
89390738671,-20,0,0,1,-1,-1,0,-2
89390738671,2,0,7,-2,-2,-1,-2,1
89390744918,2,0,-2,-1,0,0,-2,-6
89390744918,0,-3,-2,-2,-1,-1,0,4
89390759769,4,0,-1,1,-1,-3,-2,-3
89390759769,12,1,-2,1,0,-2,-4,1
89390768596,-10,0,3,1,0,-1,1,-1
89390768596,9,1,-1,-2,-1,-2,-3,-3
89390783655,2,-2,-5,-2,-2,-1,3,-4
89390783655,-1,0,0,-1,-1,-1,-4,4
89390790551,2,-2,2,0,0,-1,-3,-2
89390790551,4,-1,-5,0,0,-1,0,0
89390804580,8,2,3,-1,-1,0,0,0
89390804580,6,-2,-2,0,-1,1,3,20
89390845473,8,-2,2,1,-1,2,-3,10
89390845473,0,-2,-3,-3,-3,0,-6,12
89390846261,-2,-1,-4,0,1,-2,4,0
89390846261,4,1,3,-1,0,-2,0,0
89390847103,3,1,1,0,0,2,0,0
89390847103,1,1,0,1,0,-3,-1,-7
89390850178,-11,1,-2,-2,-3,0,-8,8
89390850178,17,-1,0,-1,-2,1,4,-1
89390857017,-9,-3,-2,-1,-1,-1,2,8
89390857017,-22,-4,-2,-2,-1,-2,-2,-47
89390864506,10,-1,0,-3,-2,2,-3,-4
89390864506,-3,-1,-1,1,0,2,-1,7
89390873532,-4,-1,-3,-5,-3,-2,-1,-9
89390873532,1,-2,0,-1,0,2,2,13
89390886989,-18,-3,0,0,0,-1,0,-14
89390886989,-9,-3,-3,-1,0,-2,-3,-7
89390896004,-3,-4,-4,-2,-2,-3,-3,-6
89390896004,15,-3,-4,-2,-2,0,0,6
89390918341,9,-1,1,-2,0,-2,-2,-2
89390918341,1,-3,-3,-3,-2,-3,-3,5
89390919966,-18,0,2,0,1,0,-1,-3
89390919966,18,2,-2,-2,-1,-2,6,-2
89390932690,-1,-2,-4,0,-2,1,1,1
89390932690,-16,-1,-3,-2,-1,-1,-6,-7
89390939566,11,-3,-1,0,0,-2,-10,10
89390939566,4,1,-1,-1,2,0,-1,-1
89390956139,-3,1,1,-1,0,0,13,3
89390956139,-4,0,-4,-1,-1,0,-8,-11
89390957552,15,1,-2,-2,-1,-3,-1,2
89390957552,-16,-1,0,2,-2,-1,-4,8
89390978633,2,-1,0,-1,-2,-1,-4,4
89390978633,18,1,-1,0,-1,-1,2,3
89390980078,-34,-2,-6,-6,-2,-1,-2,-8
89390980078,2,-2,3,-2,-1,-2,-5,-4
89390992825,4,-3,-9,-3,-2,-4,-5,-16
89390992825,2,-2,-1,-1,0,-2,3,2
89390999518,1,-1,0,1,-2,0,-1,-3
89390999518,-10,-2,0,-1,-2,0,1,0
89391016125,-2,-2,1,-2,-2,-1,-4,9
89391016125,-9,-3,-2,0,-2,-2,-3,-10
89391017577,-5,2,0,0,0,-1,3,-29
89391017577,6,-1,-1,-1,-1,0,0,5
89391038387,0,-1,1,-1,0,-2,-3,-1
89391038387,10,2,0,-1,-1,1,-1,2
89391040043,4,-1,1,0,-1,-2,3,1
89391040043,-12,-2,-1,-1,-1,-2,-4,-5
89391052859,-3,-3,0,2,-1,1,-1,-2
89391052859,-9,-2,-1,-1,-2,0,-1,-4
89391059728,1,-2,-2,-1,-1,-1,-4,2
89391059728,22,0,-3,-2,-1,1,12,8
89391076103,-5,2,0,0,0,0,3,7
89391076103,-8,-3,4,0,-1,-4,-4,0
89391077500,16,-1,-5,-2,-1,-1,-4,5
89391077500,-12,-4,0,0,-1,1,1,-5
89391098480,0,-2,0,-2,0,-2,-3,2
89391098480,2,0,1,-1,-1,0,2,1
89391100081,-5,-1,-1,-2,1,-1,-4,-3
89391100081,-6,0,-1,0,0,-3,-4,1
89391112817,4,-1,0,1,-1,0,1,9
89391112817,13,3,0,-2,0,-1,-2,-5
89391119764,-11,-4,-3,0,-1,-2,-2,4
89391119764,-3,-1,-2,-1,-1,-3,-2,3
89391136213,6,-1,-1,0,-2,0,-1,4
89391136213,-6,-2,-1,-1,0,0,0,2
89391137527,1,0,1,0,0,0,2,-2
89391137527,0,0,-2,0,-1,-3,-3,1
89391158459,-7,-2,0,-2,-1,-3,-2,-11
89391158459,10,-3,-3,-1,-2,-1,-1,2
89391160022,19,-2,-2,-2,-2,-1,-2,-5
89391160022,-13,-2,1,-1,-1,-1,-2,-1
89391172994,-7,-4,-3,-2,-1,0,-2,-7
89391172994,-7,0,-3,-1,-1,-1,-2,2
89391179749,11,0,-1,-1,-1,0,5,9
89391179749,-9,-2,0,-2,-2,0,-2,-2
89391196109,10,1,-1,-1,0,-2,0,3
89391196109,1,-2,-3,0,0,-2,-5,-9
89391197541,-21,-4,-1,0,-1,1,-2,-5
89391197541,3,1,1,-1,1,-1,0,5
89391218358,-28,-4,-3,-3,0,-2,-4,-30
89391218358,-10,-3,-2,-1,-2,0,3,3
89391219980,-4,1,1,-1,-1,-3,-2,1
89391219980,-8,-1,-3,-1,-1,0,0,-7
89391232291,19,1,0,0,-1,0,-2,4
89391232291,-7,0,-1,-2,0,-3,-5,5
89391241054,-5,-2,0,-1,-1,-1,6,-10
89391241054,5,0,-1,-2,-3,-1,-1,1
89391256079,0,-1,-2,-2,-1,0,1,-2
89391256079,-37,-6,-2,-2,-2,0,0,-5
89391257540,6,1,-1,0,-1,-1,1,2
89391257540,0,0,-1,-2,-2,1,-5,-1
89391278636,-24,-4,-1,0,-1,-1,1,3
89391278636,22,2,-2,0,-1,-1,-2,1
89391280075,-16,-2,0,-1,0,-1,-1,-5
89391280075,10,-1,0,0,0,-1,-1,-2
89391292209,4,-2,-1,-1,-1,-3,-3,-12
89391292209,1,-3,1,-2,-1,0,5,31
89391301097,10,3,2,-1,-1,-4,-11,-13
89391301097,3,-1,0,-1,0,-1,2,-1
89391315930,1,-1,-1,0,1,0,6,8
89391315930,4,-2,0,-1,-1,0,-4,4
89391317580,-2,-2,-4,-1,-1,-1,0,5
89391317580,11,-2,-4,-3,-2,-3,-6,5
89391338358,-9,3,1,0,-1,-1,-2,-3
89391338358,-15,-3,-1,0,-1,0,2,-14
89391340007,3,-2,-2,0,0,0,0,2
89391340007,-2,-4,-2,-2,0,-1,-2,-7
89391352022,6,-3,-2,-3,-1,-2,0,2
89391352022,4,0,-2,-1,-1,-1,-1,-7
89391360980,-5,-1,0,-1,-2,-1,-5,2
89391360980,-18,-4,-1,0,-3,1,0,1
89391375802,4,0,-2,-1,0,-1,-4,1
89391375802,-17,-1,-2,-3,-2,-1,1,-8
89391377440,18,0,-2,-1,0,0,1,2
89391377440,11,3,-1,-1,0,1,-2,2
89391398338,-4,-1,-2,-1,-3,-3,0,-6
89391398338,10,0,-1,1,-1,-2,-4,0
89391399989,-22,-4,-1,-1,-3,2,2,16
89391399989,29,6,2,-1,-1,1,0,6
89391412258,9,-2,-2,-1,-2,-1,-2,18
89391412258,9,-2,0,0,0,0,0,-7
89391421122,-41,1,2,0,-1,1,-2,-5
89391421122,-8,0,0,0,0,-3,-2,-3
89391436083,0,0,0,-2,1,-1,-1,5
89391436083,4,-3,-3,-1,0,-2,-3,-2
89391437533,12,-3,0,-2,0,-1,-4,-5
89391437533,-11,-3,-3,-3,-1,0,0,-4
89391458453,-8,1,-2,0,-1,1,-1,-12
89391458453,7,0,0,-1,0,1,-2,-1
89391460036,-18,-3,-3,-3,-3,-1,0,-8
89391460036,9,0,-3,0,-1,-5,-1,-1
89391472163,1,0,-2,-2,-1,-4,-1,0
89391472163,-12,-1,0,-1,1,0,-1,-6
89391481040,21,0,-2,0,-1,-1,2,3
89391481040,-8,0,-2,1,-2,-1,-2,-5
89391496091,-4,-2,-2,-2,-1,-1,-1,-4
89391496091,7,1,-3,-3,-2,-1,-2,3
89391497559,19,-1,1,-2,-1,-1,-1,-1
89391497559,-21,1,1,0,1,-1,0,6
89391518585,8,-2,-1,-1,-1,-1,-4,4
89391518585,-1,-2,-1,2,-2,-2,0,12
89391520061,-2,0,-2,-2,-3,-2,-5,-29
89391520061,-3,-3,-2,-2,-3,-1,-3,-5
89391532027,0,-2,-1,-1,-1,-2,2,0
89391532027,-3,1,1,-1,-1,0,1,-1
89391540989,0,-3,0,0,1,-2,1,5
89391540989,-3,-3,-1,-2,-1,-2,-1,-3
89391555400,-6,-1,1,-2,-1,0,-3,-5
89391555400,2,-3,-3,-1,-3,-3,1,-6
89391562290,0,0,-1,0,-2,-2,-1,5
89391562290,3,-3,-4,-4,-1,-2,-4,-6
89391578609,5,0,-1,-2,-1,-1,-2,-1
89391578609,-7,-2,-1,0,1,-3,2,-4
89391580058,-1,-1,-1,-1,0,-1,-5,4
89391580058,2,0,0,-1,0,-1,0,5
89391592007,-4,-2,0,0,-2,-4,-4,-4
89391592007,0,-1,-1,-1,-1,1,-4,-4
89391601046,27,0,-3,-1,-1,-1,3,0
89391601046,-36,-1,0,0,0,1,0,0
89391616365,-3,-1,-3,-2,-1,-1,-2,-10
89391616365,4,0,1,-1,0,1,0,-3
89391617946,8,0,0,-2,-2,-1,-1,4
89391617946,7,-2,-1,-1,-1,-1,-1,-2
89391638401,0,-1,-2,-1,0,1,1,-1
89391638401,-9,1,0,1,0,-3,-5,-1
89391639939,-20,-1,-2,-2,0,-1,5,3
89391639939,7,1,1,1,-2,-1,3,-1
89391660896,-5,-2,-1,-3,-2,-2,-1,-26
89391660896,1,-3,-1,0,-2,-1,-1,-2
89391662480,-5,-1,1,0,-1,-2,-1,3
89391662480,-9,-5,-3,-2,-1,-1,0,-7
89391675871,7,1,-1,1,-1,-1,-2,11
89391675871,-1,0,-2,-1,-1,-2,0,3
89391677495,-7,-1,-2,-2,-1,-2,-2,-7
89391677495,1,-3,-2,-2,-1,2,1,-1
89391698413,8,-2,-2,-1,-2,-3,-1,7
89391698413,-3,-1,-2,-3,-2,0,4,-3
89391700036,2,1,-1,-1,0,-1,-3,9
89391700036,8,1,0,1,0,-2,-5,-5
89391720885,-40,-5,-2,-1,1,0,-2,1
89391720885,-5,-1,-1,-3,-1,-2,1,-3
89391722514,-6,-2,-2,0,0,-1,1,-4
89391722514,-2,1,-2,0,-1,-1,-1,0
89391735869,5,0,-1,-1,-2,-1,-8,-1
89391735869,-10,-4,-2,0,-1,0,6,-1
89391737459,2,0,-1,-3,0,-2,0,-4
89391737459,4,-1,-1,-1,-2,-3,-4,-1
89391758379,0,1,-1,-1,0,0,-1,0
89391758379,-4,-3,-4,-3,-1,-1,-1,-2
89391760046,7,1,0,-3,-2,0,-8,1
89391760046,-5,-4,0,-1,-1,-3,3,1
89391780876,3,-2,-1,-1,-2,0,2,1
89391780876,12,1,-2,-2,-1,0,-4,1
89391782446,-5,-3,0,1,0,0,-2,-3
89391782446,-1,-2,0,-2,-2,-1,-2,-5
89391795856,1,-1,1,0,0,-1,1,10
89391795856,2,-1,2,0,-1,0,0,-3
89391797467,-5,-1,-1,0,0,-1,-3,-5
89391797467,32,1,-1,-1,-2,-1,0,2
89391817014,-5,1,1,0,-1,0,2,-3
89391817014,-1,-2,0,-1,-1,-1,0,-9
89391826013,-12,-3,-3,0,-2,-3,-4,-21
89391826013,-5,-3,-2,-2,1,1,-1,0
89391840911,11,2,-1,-3,-2,-1,1,0
89391840911,-10,-2,0,-2,-2,-1,-2,-2
89391842465,1,-1,-2,-1,-3,0,3,4
89391842465,-8,-1,-2,-3,0,-1,-4,-3
89391863362,-6,-4,-3,-1,-1,1,-3,-10
89391863362,5,3,1,-3,-2,-4,-8,4
89391864954,-13,-6,-2,-1,-2,1,6,5
89391864954,18,1,-1,-2,-1,-1,-6,3
89391876976,-1,-1,0,-1,-3,1,5,3
89391876976,40,3,-1,-3,-3,-2,-3,0
89391885970,-7,-2,2,1,1,0,1,1
89391885970,-11,-1,-2,-3,-1,0,-2,5
89391900882,7,1,0,0,-1,-2,-2,-4
89391900882,-10,-5,-4,0,0,0,-1,-5
89391902501,13,3,0,-3,-2,-2,-3,14
89391902501,0,-1,-1,0,0,-1,-2,-1
89391923379,-6,-1,-2,-2,-2,-3,-2,6
89391923379,-12,-4,-1,-1,-1,1,3,18
89391924980,13,5,0,-1,-1,-1,-1,2
89391924980,-9,-2,1,1,-2,-3,4,-1
89391937045,5,-2,-2,-3,-1,-2,-7,-3
89391937045,-6,-1,1,-1,-1,0,-4,1
89391945985,-23,-3,-3,-2,-2,-1,-4,-4
89391945985,13,3,2,-1,2,-1,1,-1
89391960823,2,0,0,0,-1,-2,0,2
89391960823,-22,-2,-2,-1,0,1,-1,-5
89391962396,3,-2,-1,-2,-1,-1,0,-2
89391962396,-12,0,-1,-2,-1,-2,-4,-7
89391983560,28,1,3,0,-3,0,-2,-2
89391983560,-20,0,-4,1,-1,-1,-2,0
89391984981,3,-5,2,-2,-3,-3,0,-3
89391984981,-3,-2,0,-1,-2,-1,-1,1
89391997037,2,-2,-4,-1,0,-1,-2,11
89391997037,6,1,2,-1,-1,-1,3,-6
89392005996,1,2,-3,-1,-2,-2,-1,-1
89392005996,-7,-2,-2,0,-1,-1,-4,-2
89392021076,-8,-3,0,-2,0,-1,2,-4
89392021076,-2,-1,0,0,0,0,-3,-7
89392022464,-7,-2,1,-2,-1,1,-2,0
89392022464,-6,0,-3,-2,-1,-1,1,-1
89392043484,-7,-1,0,-1,-2,-1,-2,-2
89392043484,-2,-1,-2,-2,-2,-3,0,-1
89392045058,5,-1,0,-1,-1,-2,-1,-2
89392045058,0,-4,1,-1,-2,-1,-2,-1
89392057064,-3,-3,-2,0,-1,1,-1,-3
89392057064,-1,-2,0,-3,-1,0,-3,-1
89392066087,5,-1,0,-1,-1,-2,0,-2
89392066087,-6,-2,0,0,1,-1,0,0
89392080934,-4,-1,-1,-1,-2,-2,-1,-2
89392080934,14,-2,-3,-3,-4,-1,-4,-1
89392082535,-2,-3,-1,0,-1,0,-2,-1
89392082535,-5,-3,-2,-2,-2,0,-1,-2
89392103604,-1,0,0,1,0,-3,-2,-3
89392103604,-2,-3,-1,0,-2,-1,-3,-5
89392105084,-2,-3,2,1,-1,0,-1,0
89392105084,1,-2,-3,-1,-4,-2,0,-2
89392117238,-7,-2,-3,-5,-5,-3,-4,-4
89392117238,-2,-1,-2,-3,-1,-3,1,-3
89392126089,4,1,-1,0,2,3,-3,-1
89392126089,-8,-1,2,1,2,4,8,3
89392140353,-2,-1,-2,1,-3,-3,-3,-1
89392140353,1,2,1,0,-1,-1,1,1
89392147253,1,0,-3,-2,-5,-3,-6,-3
89392147253,0,-2,-4,-6,-14,-16,-9,-4
89392162700,-3,-3,-6,-8,3,-4,10,-2
89392162700,-5,-2,0,1,3,22,-1,-3
89392171060,-5,0,-1,1,25,23,1,1
89392171060,7,-1,1,4,4,4,2,2
89392186128,-3,0,1,-1,-23,-25,-7,-2
89392186128,7,-2,-1,-2,-12,-23,-9,5
89392187510,-1,0,-1,2,12,21,3,0
89392187510,-5,-3,-4,-2,11,12,-2,-3
89392200408,-1,2,-1,-3,-9,-8,-5,-3
89392200408,-1,-1,-4,-7,-15,-29,-4,-4
89392207168,-3,0,-2,-6,-39,-38,-20,-6
89392207168,-7,-6,-5,0,19,32,18,-15
89392223407,2,5,6,12,63,66,12,6
89392223407,7,1,2,9,20,22,5,5
89392225024,27,1,-1,-7,-31,-39,-10,4
89392225024,-41,-7,-5,-13,-52,-60,-12,-11
89392246154,-7,-3,-1,-5,-34,-16,-17,-6
89392246154,1,-2,-2,1,44,30,9,-4
89392247510,2,0,0,6,21,19,7,1
89392247510,6,0,-1,1,-3,5,2,7
89392260196,14,1,-1,-3,-20,0,8,1
89392260196,-12,0,0,0,17,-2,-22,-2
89392266950,-11,-6,-3,-3,2,-11,17,3
89392266950,13,5,2,-1,-13,-9,-15,-3
89392283624,-10,-5,-2,-1,-2,-8,13,7
89392283624,-3,0,0,-2,-21,-8,0,-9
89392284993,-15,-5,-7,-12,-26,-33,4,-12
89392284993,6,-2,-2,-6,-14,-23,-16,-2
89392306121,4,-4,-3,4,35,50,-19,-6
89392306121,-6,-2,4,3,48,44,29,0
89392307508,0,1,5,20,28,50,-7,5
89392307508,11,5,4,-5,-1,15,10,16
89392320238,-7,-6,-8,-13,-65,-121,-18,-6
89392320238,-3,0,-2,-3,-70,-45,-13,2
89392327183,-4,0,-4,9,79,82,15,-6
89392327183,5,-1,3,11,52,45,-15,11
89392343584,2,0,4,17,2,31,12,2
89392343584,-3,-5,0,8,47,-31,-12,-11
89392345077,4,4,-2,-28,-75,-39,0,5
89392345077,4,-2,-5,-6,-53,-32,-5,-12
89392366134,-8,-3,-3,-22,-3,2,-2,-2
89392366134,-6,-2,-4,-9,-47,-40,-11,2
89392367572,8,-1,4,10,15,-6,1,2
89392367572,-10,1,-1,-34,36,65,18,-5
89392380265,3,5,1,20,10,-2,-5,1
89392380265,-4,-10,-4,-5,-21,4,4,-3
89392386956,0,-2,-2,14,3,-13,-11,2
89392386956,-6,3,4,15,19,-1,14,7
89392403584,5,8,9,0,-9,-1,-6,-6
89392403584,0,-5,-11,-21,-4,-1,-3,1
89392405026,-2,-3,-7,-2,-23,-21,-6,1
89392405026,5,1,6,11,-1,-14,2,-4
89392426115,-10,-5,-5,-5,26,21,4,-1
89392426115,2,4,8,30,9,12,5,1
89392427488,-4,1,4,-16,-17,-6,-5,-6
89392427488,5,2,3,-10,4,-3,-8,-1
89392441496,-1,-8,-8,3,-7,-5,2,4
89392441496,-12,-4,-3,-9,-8,4,0,-2
89392448610,-7,-5,-3,5,0,-1,0,-3
89392448610,8,5,0,8,7,-6,-2,3
89392462497,-17,-7,0,-8,-2,-2,-1,-2
89392462497,8,9,-1,3,-7,0,2,4
89392471118,-17,-5,-2,2,7,2,-5,-6
89392471118,-2,-7,-8,-1,-11,-13,-3,-3
89392485849,3,4,0,-6,-2,0,-6,-5
89392485849,32,7,3,1,3,11,0,9
89392487485,2,4,-6,-7,3,0,1,-3
89392487485,2,0,-11,-5,-12,-5,6,-3
89392499477,-12,-6,7,1,4,0,-13,5
89392499477,2,0,5,0,8,9,-6,-2
89392508510,-33,-22,-7,-1,-3,-1,14,5
89392508510,3,26,-4,1,-4,-8,-9,-12
89392523388,17,-10,-13,-2,6,4,9,6
89392523388,-11,4,17,-3,-8,-1,0,-4
89392525079,0,-2,1,-1,-3,-3,-7,-3
89392525079,-25,-50,-16,5,2,-1,-2,-3
89392545793,-8,9,12,3,3,0,-5,-1
89392545793,4,6,-8,-8,-5,-4,2,-1
89392547443,1,8,4,-2,-3,0,4,0
89392547443,5,-1,-9,-3,-2,-4,-4,5
89392559530,1,3,-3,-4,0,1,2,-16
89392559530,-2,-13,-10,-3,-4,3,-23,4
89392568583,21,7,1,-1,-2,-6,23,36
89392568583,-13,4,19,2,-2,-4,5,-40
89392583595,5,-2,-28,-1,0,0,7,-1
89392583595,-8,4,2,2,1,9,-8,-13
89392585061,1,-5,-8,-5,0,-5,-4,0
89392585061,-3,5,3,-2,-3,-6,-20,9
89392605894,8,2,8,4,1,1,74,17
89392605894,-3,-1,-7,-3,-1,-4,-5,-17
89392607422,4,4,2,-1,-1,-2,-22,-15
89392607422,5,-1,2,2,-2,-5,8,3
89392619584,-9,-1,1,-3,0,2,-20,-6
89392619584,-4,-5,-4,-2,-1,-6,-2,10
89392634585,8,1,5,-1,-1,-1,15,-10
89392634585,5,1,2,2,-1,1,-9,25
89392644765,7,-5,-4,-4,-2,-3,-17,-3
89392644765,-5,-2,-1,0,-3,-1,-16,-13
89392646385,-1,1,1,-1,-1,3,-18,2
89392646385,-4,-2,-5,2,3,13,30,-1
89392665896,-1,0,3,1,-1,-9,-18,6
89392665896,8,-4,-4,-4,-1,-5,32,8
89392667519,-11,-8,-2,-1,-2,-3,-14,-11
89392667519,0,0,-4,-6,-6,0,-87,-3
89392679561,-3,1,2,1,5,-2,51,-4
89392679561,-10,-2,1,5,4,8,3,2
89392688514,5,0,-5,-7,-7,-2,36,0
89392688514,-1,0,1,0,-4,-7,-19,5
89392703425,-5,1,3,2,7,-3,-37,-5
89392703425,-1,-5,-6,-14,-4,-9,16,3
89392704947,0,0,-4,-12,-23,-23,-19,-6
89392704947,20,3,1,-4,0,14,18,0
89392725931,5,6,5,11,33,34,2,1
89392725931,5,0,0,16,5,16,15,2
89392727554,-3,7,11,6,19,5,13,6
89392727554,-5,-3,-1,1,-10,-22,26,-3
89392748418,-3,-9,-11,-14,-51,-34,-24,-2
89392748418,1,0,1,-5,-2,0,3,3
89392749958,4,1,0,10,56,25,-48,-8
89392749958,-10,-1,5,6,-9,0,34,6
89392763428,4,-3,-3,-14,5,16,33,-1
89392763428,-1,-2,1,-1,-27,-30,-15,-5
89392765037,1,5,-6,-18,-52,-21,-13,-3
89392765037,-8,-15,-1,4,23,11,-5,-3
89392785871,-3,-7,-17,-8,-1,-1,-23,-5
89392785871,-1,0,-1,7,-14,-18,-12,-1
89392787465,0,0,1,15,11,8,3,-1
89392787465,3,0,-2,2,16,15,5,3
89392799546,1,6,14,3,-9,11,0,0
89392799546,-2,-2,-2,-13,24,17,5,3
89392808548,-3,-4,-4,-8,-36,-26,-7,-8
89392808548,-3,2,6,-2,-5,-11,1,-3
89392823351,-5,-6,-6,12,28,-5,-5,-1
89392823351,-6,-6,-6,0,10,14,1,0
89392824972,-1,2,11,21,10,7,4,1
89392824972,1,1,-7,-52,-48,-18,-7,-3
89392846001,-4,-3,-3,-6,4,-6,-11,-5
89392846001,-4,-4,-7,-6,-12,-6,-8,-4
89392847530,2,-11,-11,3,1,-6,1,-3
89392847530,0,4,-1,10,13,10,7,3
89392859707,1,4,5,-5,-8,-2,-3,0
89392859707,0,7,8,14,12,2,-1,1
89392868562,-5,-6,-3,-10,-2,7,6,1
89392868562,0,-4,-1,41,18,-1,-5,-3
89392883431,-6,-10,-25,-50,-47,-18,-7,-2
89392883431,-5,-1,-5,-4,-1,-1,-2,-2
89392885089,-1,-4,-10,2,0,4,1,0
89392885089,0,4,3,2,11,-1,-3,-2
89392905856,0,7,9,8,11,1,-2,0
89392905856,-1,-4,0,1,-5,1,-2,-1
89392907457,-2,0,-8,-10,-1,2,1,-3
89392907457,-5,-10,-7,-4,-4,-1,1,-1
89392919698,-5,-1,6,13,2,-2,-3,-3
89392919698,5,3,-7,-6,-2,0,1,-2
89392928493,-5,-3,0,3,4,2,0,-1
89392928493,2,8,3,-2,-4,-6,-3,0
89392943325,-3,-7,-1,-3,-5,0,0,-1
89392943325,-3,-1,1,-13,-4,-4,-2,-2
89392945041,-3,-1,0,1,10,3,1,1
89392945041,0,-3,-2,13,-8,-2,0,-1
89392965445,4,0,2,-18,-4,-3,-1,1
89392965445,-1,1,2,-2,0,-2,-2,-7
89392966037,1,-2,-1,-11,-5,1,-1,-2
89392966037,-19,-3,-1,-1,5,-2,0,-11
89392987933,24,5,-1,20,3,-3,-4,21
89392987933,-16,-10,-2,-3,-3,1,-1,4
89392988518,-6,-24,-3,4,1,3,-1,-3
89392988518,2,9,-8,-6,-1,-3,-2,-6
89393002904,-5,-8,3,3,0,-1,1,-3
89393002904,-4,-4,-7,-3,-1,0,0,-3
89393003577,2,15,-8,0,-2,0,-5,-3
89393003577,-12,0,6,-7,-6,-7,4,3
89393025326,-13,-14,-3,8,8,5,5,-7
89393025326,6,10,11,8,2,-1,-1,2
89393026044,-1,7,-2,-5,-5,-4,-7,7
89393026044,13,0,-2,-7,-4,1,-3,1
89393047894,1,8,3,4,0,0,9,1
89393047894,5,0,-3,-2,-1,0,0,-1
89393048528,-44,-3,0,-2,-2,-2,8,-9
89393048528,18,0,1,-1,1,1,-1,17
89393062897,-5,-5,-1,5,-1,1,-1,-1
89393062897,2,-4,-3,-4,-4,0,-3,15
89393063568,1,0,5,-3,-1,2,0,-37
89393063568,-10,-10,-10,-2,-3,-4,0,12
89393085277,-11,1,4,6,1,-4,-11,-12
89393085277,10,-2,-3,-3,-3,2,4,10
89393086022,3,-5,1,0,-1,-6,-32,-1
89393086022,-10,-2,-1,0,1,-1,28,-6
89393107670,12,2,-3,-3,-1,1,-19,-5
89393107670,-1,0,2,0,-3,-11,-24,-1
89393108676,-2,-4,1,-4,-6,-6,27,9
89393108676,10,3,-3,-3,1,-1,-9,-10
89393122950,0,3,1,2,6,10,-8,2
89393122950,-4,-9,-3,-2,-1,3,-19,-11
89393123508,14,2,-1,1,1,-3,25,10
89393123508,-30,-2,-2,-8,-6,-3,-14,3
89393145401,-8,-3,-4,-2,-2,-5,27,-11
89393145401,2,0,1,-1,1,-2,-1,-1
89393146013,13,-2,0,1,2,6,-3,7
89393146013,7,-1,0,1,-1,4,2,-3
89393167876,2,3,-4,-11,-9,-5,-4,1
89393167876,-18,-4,-2,-2,-2,-11,26,-10
89393168487,7,4,0,-1,-5,-2,24,-2
89393168487,10,-1,2,7,9,1,-3,0
89393182749,-11,0,-1,7,6,14,-54,-15
89393182749,-7,-4,-1,-7,-12,-15,-10,-7
89393183667,15,-3,-3,-4,-2,-2,-23,22
89393183667,8,-1,-4,-3,-3,0,60,-5
89393205436,8,3,4,-3,0,-13,33,17
89393205436,-18,-3,0,8,10,9,-82,-47
89393205957,-9,-2,0,2,-4,-1,33,0
89393205957,-4,-3,-1,-2,3,5,-12,2
89393227855,16,1,-2,2,-4,-2,-28,3
89393227855,25,3,0,-2,-11,-1,38,11
89393228534,-6,-5,1,11,30,11,-15,-4
89393228534,9,0,1,-9,-19,-4,-34,-6
89393242679,-14,-6,-4,-10,-10,-5,13,-5
89393242679,8,4,6,-7,-6,0,13,7
89393243515,5,3,-3,11,15,3,-18,-6
89393243515,-5,-3,0,6,7,-1,-6,1
89393265397,0,-2,0,7,-1,-2,12,0
89393265397,-7,-2,-4,2,16,6,7,5
89393265956,-4,-2,1,3,1,4,-8,1
89393265956,-3,-4,-5,-9,-11,-11,-19,-7
89393287833,-2,-1,-2,-3,-6,-5,-3,-3
89393287833,-2,2,-1,2,2,8,-2,3
89393288614,-7,-3,-1,-8,-8,-8,5,-7
89393288614,1,-1,-1,0,-1,1,-10,-1
89393302621,-2,3,3,34,12,0,4,-2
89393302621,-1,-4,-12,-80,-43,-4,0,1
89393303411,-3,-10,-14,9,-16,-7,-6,-3
89393303411,-3,-2,-2,5,17,-6,-9,-3
89393325174,0,0,-2,-3,4,4,1,1
89393325174,-2,0,3,31,14,2,11,3
89393326044,-5,-9,-19,-32,-19,-3,-4,-2
89393326044,1,0,-6,-7,-21,-6,-3,-2
89393347760,-4,7,12,-3,1,-3,0,-2
89393347760,-2,-3,2,20,19,-3,11,2
89393348524,-3,-8,-9,-15,-20,-5,-9,-4
89393348524,0,4,8,17,23,9,1,-1
89393362930,-3,-7,-11,-1,-1,-3,1,-1
89393362930,1,1,-4,4,-9,-4,0,-2
89393363594,-2,2,1,-16,-13,-3,-8,-3
89393363594,4,6,7,-3,1,-5,3,1
89393385475,-2,-2,1,-5,-10,-4,3,-4
89393385475,-2,-2,1,16,12,3,0,0
89393385995,2,3,5,0,9,5,-1,2
89393385995,-2,-3,-1,-13,8,-2,1,-3
89393407737,0,-1,-9,-1,-19,-5,-2,0
89393407737,0,0,2,17,8,4,4,2
89393408497,4,10,11,-8,1,-4,-4,-1
89393408497,-7,-11,-2,-11,-9,-1,-3,0
89393422919,-5,-1,3,-6,11,2,-1,-1
89393422919,-4,2,2,9,1,-1,2,-1
89393423603,1,4,10,0,0,2,-1,1
89393423603,-3,-6,-11,-13,-12,0,0,-1
89393445165,1,2,2,7,9,7,3,1
89393445165,4,7,0,-9,-9,-9,-1,0
89393446171,-6,-11,2,0,4,0,-3,0
89393446171,-4,2,1,18,-1,-2,-3,-2
89393468047,4,-6,-4,-5,-1,1,1,1
89393468047,-1,-3,-4,-14,-6,0,1,1
89393468508,3,6,-2,1,4,-1,-1,-1
89393468508,7,-4,-3,-1,-4,0,-2,-1
89393482799,-6,0,-2,-11,-5,-1,1,0
89393482799,13,3,3,0,1,3,-5,0
89393483591,-19,-7,-3,6,2,0,12,-1
89393483591,1,-1,-1,2,-3,0,0,0
89393505368,-8,4,1,-2,-4,-6,-8,-13
89393505368,3,-4,-3,2,4,5,9,12
89393506040,3,-9,-3,5,1,-1,-8,22
89393506040,19,9,2,-4,-1,1,-3,1
89393527659,-18,-8,-9,-4,1,-2,-4,-9
89393527659,-15,0,4,-5,-7,-1,20,-14
89393528454,5,1,3,5,4,2,-16,5
89393528454,-2,-14,-9,-2,1,-1,-17,-7
89393542679,3,11,0,-2,-2,-4,19,3
89393542679,0,1,-6,-2,-2,-5,-12,2
89393543448,2,2,-2,-1,-1,-1,-1,-4
89393543448,-7,-1,-3,1,-1,-2,2,-3
89393565129,4,-5,-3,-1,-1,-2,-5,1
89393565129,-7,-6,-5,-4,-1,0,-7,-1
89393565907,0,6,5,1,1,0,2,-6
89393565907,-4,-1,0,1,-2,0,13,3
89393587628,7,-2,1,-3,-1,-1,-6,3
89393587628,-2,-4,-2,2,1,0,6,-1
89393588383,6,-2,-7,0,-3,-5,-9,-1
89393588383,2,1,5,0,-1,1,5,-1
89393602696,4,-4,0,-4,-2,4,-19,13
89393602696,-7,2,-2,2,0,-7,33,2
89393603414,13,0,-4,-1,1,-6,-10,-45
89393603414,9,3,0,-4,-6,-2,17,15
89393625165,-1,0,1,-1,-1,-2,-14,-3
89393625165,-6,2,-1,1,3,2,6,-1
89393625909,-3,-2,-1,1,0,4,2,8
89393625909,-3,0,1,-1,1,-1,2,-6
89393647774,-2,-2,-3,-4,-4,-3,-15,3
89393647774,11,-3,-1,-3,-6,-1,-11,-5
89393648559,-6,3,4,3,-1,-3,5,2
89393648559,-6,-1,-1,2,2,2,-14,-3
89393662114,-14,-4,-3,-2,1,4,6,-2
89393662114,-2,-3,-2,-1,-1,-3,-13,-7
89393670413,13,2,0,-3,-8,-6,0,17
89393670413,-17,-2,-3,0,-1,-1,31,-11
89393685163,-2,-4,0,5,9,5,22,-5
89393685163,-2,-7,-4,-2,-1,-5,-43,0
89393685927,-11,1,0,-1,-2,1,53,-6
89393685927,0,-2,-2,-4,-3,-3,-14,3
89393707837,5,-2,-3,-2,-5,-6,-6,-5
89393707837,-4,-2,-2,-1,-1,0,12,-6
89393708593,-5,-1,-4,1,-1,-3,-17,-5
89393708593,15,-2,-1,0,0,2,-12,-1
89393722120,-2,2,-1,-2,0,0,4,2
89393722120,2,-2,-1,-1,-2,0,-9,-1
89393730439,-5,0,0,-2,-1,1,-14,-3
89393730439,3,0,-2,-1,-1,-2,-1,0
89393745417,-1,-2,-2,-3,-4,-3,3,-7
89393745417,0,-2,-2,4,2,-3,0,2
89393746023,1,1,-2,0,0,0,-3,-2
89393746023,-12,-2,0,-2,-1,0,-2,0
89393767637,3,0,4,3,4,1,2,4
89393767637,-4,1,5,-4,-6,-5,-7,-2
89393768420,-5,-3,-15,-2,-3,-2,-4,-2
89393768420,-7,-3,-3,-4,-2,-5,-12,-3
89393782176,0,-4,-3,0,1,2,2,-3
89393782176,4,-1,3,3,6,6,-1,2
89393790221,-2,-1,8,0,-1,-3,-2,-1
89393790221,-3,0,0,0,-3,-4,0,-4
89393805469,3,1,1,-3,-7,-7,-1,-3
89393805469,-4,-1,-4,-2,-3,-1,-10,-5
89393806039,-2,-3,-4,-2,-1,-1,-1,2
89393806039,-5,-3,-9,-3,-2,-2,-9,-1
89393828066,0,2,4,1,1,0,-1,0
89393828066,-1,-2,3,0,-4,1,4,1
89393835165,-3,2,6,-3,0,1,-8,-3
89393835165,-1,-3,2,2,1,1,3,1
89393842031,-2,0,-8,-5,-1,-2,-8,-5
89393842031,0,0,-5,-5,-6,-3,5,1
89393850241,-1,-3,2,2,0,-2,-3,-2
89393850241,-1,2,0,-1,8,8,-4,1
89393865229,-1,-4,-6,0,-3,0,4,-1
89393865229,-1,1,-1,-1,-3,-2,-8,-2
89393866004,0,1,2,-1,-4,-2,14,6
89393866004,-2,0,5,6,-1,-6,-15,-5
89393887801,0,-2,-4,-2,-1,-2,11,5
89393887801,1,-5,-1,0,-3,-1,-8,-2
89393888454,-3,-1,-15,-14,-2,0,9,1
89393888454,-3,-1,-6,-2,-1,-1,-8,-2
89393902050,-1,0,2,-4,-3,-2,-9,0
89393902050,-1,-1,6,7,3,-2,0,0
89393910244,1,-2,2,0,0,-1,-23,-4
89393910244,-4,-5,-15,-8,-5,-1,44,5
89393925224,1,-1,0,-1,-3,-5,-7,-7
89393925224,-2,1,-2,0,2,0,1,6
89393925971,-1,-1,16,0,-2,-1,-12,-3
89393925971,-3,-5,-17,-7,-4,-1,-5,-3
89393947716,26,-4,-1,1,1,0,0,-2
89393947716,-13,-2,6,3,4,1,6,3
89393948445,4,3,-16,2,5,4,5,3
89393948445,0,3,14,1,-3,0,-6,1
89393962009,-3,-7,-4,3,-6,-5,-2,-1
89393962009,3,-2,-13,-20,-7,-6,-2,-5
89393970175,-4,-4,0,1,-2,-4,-6,-2
89393970175,2,4,3,1,2,1,-5,-2
89393985112,-10,0,2,0,0,0,-2,-2
89393985112,1,-2,4,2,-2,1,-6,-4
89393985961,-6,-4,-18,-14,-3,-1,5,-4
89393985961,-2,1,13,-1,-1,-3,0,-1
89394007704,-5,0,17,16,1,5,-6,1
89394007704,-3,-5,-29,-15,-3,-3,2,-1
89394008457,3,1,-2,6,-1,0,2,-2
89394008457,-1,1,15,9,1,-1,-8,-3
89394030921,-4,0,-18,-33,-2,-1,2,0
89394030921,2,2,11,5,-2,-3,1,-2
89394031678,-1,0,-2,0,1,-1,-2,-2
89394031678,1,2,12,7,0,-1,-1,2
89394045138,0,2,2,7,6,2,3,0
89394045138,-4,0,-6,-3,1,4,6,-2
89394046154,-3,-2,5,-1,-1,-4,-5,-6
89394046154,-5,-2,-4,-4,-3,-2,-3,-7
89394067790,22,0,-2,0,-3,-3,-7,7
89394067790,-28,-5,0,1,-1,-5,-7,8
89394068607,10,7,16,15,1,3,26,2
89394068607,-8,-9,-21,-23,-5,-4,-14,-6
89394090881,-11,-2,-7,-6,-3,-4,-3,-7
89394090881,20,-3,-6,-5,1,1,-1,2
89394091858,-5,-2,4,0,-2,1,-24,-6
89394091858,-8,-2,14,13,0,2,16,7
89394105263,-6,-2,-22,-7,-4,-5,13,0
89394105263,2,3,3,15,-1,0,-6,-6
89394106077,-5,0,-2,-12,0,-1,-3,0
89394106077,8,3,20,1,2,0,-5,-3
89394127831,-9,-3,5,4,-3,0,-5,3
89394127831,-3,1,0,3,-1,-2,8,-5
89394128492,-11,-5,-6,3,-4,-3,-4,-7
89394128492,6,-2,-7,-2,-1,-4,3,6
89394150890,20,3,4,2,2,3,-4,-4
89394150890,6,1,3,-4,0,0,11,7
89394151628,-13,0,-1,0,-1,-2,0,-14
89394151628,-12,-5,-15,-6,-3,-3,-8,-3
89394165382,5,-7,-5,-1,-4,-2,6,3
89394165382,12,0,-1,-5,-2,1,1,-19
89394166005,-1,0,2,1,0,5,-9,1
89394166005,-4,-4,-11,1,-2,-2,17,-1
89394187761,-5,3,4,-1,1,-4,-9,-5
89394187761,2,-5,3,-2,-1,-2,-5,19
89394188697,-11,-4,-3,-2,-1,3,7,1
89394188697,24,1,-4,-2,-1,-5,-16,23
89394210808,-47,-3,7,1,0,0,-11,-47
89394210808,4,-1,-3,-2,2,6,-17,-6
89394211606,-44,0,0,-2,-1,-5,29,12
89394211606,22,0,-3,0,0,3,-2,-2
89394225146,-6,-1,1,-2,-2,-1,5,9
89394225146,9,1,-2,1,-1,-4,-14,0
89394225924,-2,-3,-5,-3,-1,0,-4,-8
89394225924,-10,-2,3,4,2,1,-1,0
89394247877,4,-1,-4,-4,-2,-6,-3,3
89394247877,-15,-2,1,-4,0,-1,7,-10
89394248566,21,-1,2,0,-2,-3,-2,10
89394248566,-7,0,-2,0,-1,-3,5,10
89394271068,-15,-4,-6,-7,-3,0,-4,-13
89394271068,10,-1,-12,-2,-2,0,4,13
89394271747,18,0,0,-1,0,0,5,4
89394271747,7,1,-1,2,-2,0,-7,-8
89394285429,-49,-3,-1,-2,2,1,7,-1
89394285429,0,2,15,7,1,-2,4,5
89394285934,5,-7,-37,-18,-5,-8,-16,-2
89394285934,-12,-3,-1,0,-1,0,12,-13
89394307738,34,5,5,4,-2,0,2,24
89394307738,-26,0,3,5,-1,0,3,-33
89394308456,3,0,-2,-20,0,-1,-8,-11
89394308456,-3,-1,-3,-1,-1,-4,-4,-14
89394331068,6,0,-1,1,1,0,0,5
89394331068,-1,-1,0,-2,-1,-2,-1,7
89394331640,2,0,10,9,-1,0,-5,-14
89394331640,-9,-3,-11,-5,-2,-2,-3,-7
89394345209,11,3,4,0,-1,-1,-1,-4
89394345209,4,-1,0,1,-3,0,-4,-5
89394345917,-7,-3,-7,3,-2,-1,-1,5
89394345917,3,2,1,-5,-1,0,-3,1
89394367644,6,-3,-11,1,-3,1,-2,1
89394367644,-4,-4,-4,-2,-4,-3,8,6
89394368431,10,4,12,6,1,-3,-9,1
89394368431,-7,-2,10,3,1,1,-5,-3
89394391033,-3,-5,-9,-6,-3,-1,3,-8
89394391033,-10,-3,-8,-4,0,-3,0,-1
89394391757,36,3,6,2,-1,-1,9,16
89394391757,3,2,-1,1,0,-1,-4,6
89394405347,1,-1,8,4,0,0,-4,4
89394405347,-5,-1,-2,-5,-2,-2,-3,-2
89394406021,-7,-4,-1,1,-1,0,-2,-1
89394406021,0,-1,2,-1,0,2,1,5
89394427950,8,1,-1,-1,1,0,0,-9
89394427950,-12,-1,0,-2,-2,0,4,-3
89394428499,1,4,5,4,1,0,-3,-2
89394428499,-2,-4,-5,4,-1,1,-1,-1
89394450866,4,-3,6,3,-2,-3,0,4
89394450866,3,-1,-17,-10,0,-1,-6,-5
89394451847,-14,-4,-2,0,-3,-4,-3,-10
89394451847,-5,-3,-11,-12,-5,-5,-2,-4
89394465365,5,2,10,10,0,-2,-1,3
89394465365,0,1,7,1,-2,1,2,3
89394466010,-29,-4,-4,-3,-1,-3,-16,0
89394466010,5,1,3,4,-2,-2,0,4
89394487667,-21,-1,-7,-4,-2,-2,1,-22
89394487667,8,-3,-5,-5,-2,-3,-5,2
89394488428,-1,-3,-2,0,-1,-2,-6,-14
89394488428,-6,-1,0,-1,0,1,0,-7
89394511112,0,-1,1,-2,1,-2,-5,10
89394511112,5,-1,2,1,-1,-3,-4,2
89394511739,3,3,3,1,-1,0,-1,-3
89394511739,-16,-2,0,-2,0,-1,-2,-1
89394525305,15,2,-2,-4,-1,0,1,3
89394525305,4,-1,-3,2,0,-1,-1,1
89394526058,1,0,13,5,-1,0,4,7
89394526058,11,-6,-24,-12,-4,-3,-2,9
89394547638,-4,-1,-7,-6,-3,-1,1,3
89394547638,-12,-1,12,2,1,-2,-6,-7
89394548405,1,-3,-21,-8,-2,-1,1,3
89394548405,28,-2,-2,0,-1,-3,-2,-23
89394571109,-12,0,0,2,1,1,-4,-1
89394571109,15,1,-1,-1,-1,-2,3,3
89394571743,3,0,11,5,-2,-1,3,0
89394571743,-21,0,-3,-5,0,-3,-4,-29
89394585242,8,0,-1,-3,0,-1,-2,8
89394585242,-18,-1,2,0,0,0,-11,-6
89394586217,24,3,2,1,0,1,15,16
89394586217,-9,-1,1,-1,-2,-2,-2,1
89394607741,-1,-2,0,-1,-1,0,1,-8
89394607741,-13,-2,-4,-1,-2,-2,2,3
89394608591,-11,-3,-5,-3,-3,-1,-12,-16
89394608591,8,5,3,1,0,1,3,15
89394630944,-4,-4,2,-3,0,-3,5,-1
89394630944,12,-2,-5,-2,0,-2,-8,0
89394631697,11,1,-2,-2,0,1,-1,-4
89394631697,-41,-3,0,2,-1,0,0,-3
89394644765,5,-5,-3,-3,-5,-3,-1,0
89394644765,0,-1,-7,-3,-1,-1,0,-4
89394653033,9,-1,1,-2,0,1,5,5
89394653033,4,-3,2,-1,0,1,-6,-1
89394667635,10,-1,-5,0,0,1,0,21
89394667635,-20,-2,-1,-3,-1,0,-2,-34
89394668425,-8,0,6,-1,0,-2,6,2
89394668425,7,-2,-3,-1,0,1,-1,2
89394690908,1,1,-5,-2,-3,-4,-5,3
89394690908,10,1,2,-1,-1,-3,2,0
89394691749,-7,1,2,0,1,-1,-2,8
89394691749,1,0,0,-1,-2,-1,4,-1
89394704672,2,3,-1,0,0,-1,-14,-4
89394704672,-3,-2,-2,-1,-2,0,20,7
89394712904,-9,-1,-2,-2,-1,-1,-7,-2
89394712904,5,1,6,1,-1,-1,-2,5
89394727808,-7,-1,-1,-1,0,0,1,0
89394727808,-20,-3,-4,0,-2,-2,-8,-2
89394728521,-1,-1,0,0,-1,-3,-2,-3
89394728521,-1,0,2,-2,0,-1,-1,-1
89394751053,-6,1,3,0,0,0,2,-5
89394751053,10,1,0,0,-2,0,-1,6
89394751661,-7,-8,-11,-6,-3,-3,-1,3
89394751661,-15,0,0,1,-1,-3,-10,-17
89394764520,-1,-4,4,4,0,-1,1,-8
89394764520,13,1,-6,1,0,-1,0,9
89394780510,-4,-2,-2,-3,-1,-1,0,2
89394780510,6,-1,-2,0,-3,-3,1,5
89394788587,-6,-1,0,-1,-3,-1,0,-2
89394788587,2,-2,2,3,-2,-2,-4,4
89394789220,-7,-2,0,3,-1,-1,1,-4
89394789220,6,-1,-8,-4,0,-1,1,3
89394811027,-5,-2,-3,-3,-1,-2,-1,-3
89394811027,1,-1,0,-1,-1,-1,-1,1
89394811686,3,1,-2,-3,-1,-3,-5,-5
89394811686,1,0,3,0,-2,-1,2,3
89394824524,-3,-3,-4,-2,-1,-1,1,2
89394824524,2,-1,-2,-4,-2,-3,-3,-2
89394832721,0,2,1,0,-2,-2,-2,-6
89394832721,-16,-3,-2,-1,0,-2,0,3
89394848429,-12,-1,-2,-1,-1,-1,-1,-4
89394848429,15,2,0,0,0,1,-1,3
89394849135,-4,-1,-1,0,-1,1,2,-2
89394849135,6,0,1,2,-3,0,-1,-6
89394870886,3,-1,0,-1,0,-3,1,1
89394870886,-14,-2,2,-1,-2,-1,-3,-4
89394871616,36,3,4,1,-2,-2,-4,10
89394871616,18,-1,-12,-2,1,1,-1,5
89394884529,7,-1,-3,-9,-2,-1,-3,9
89394884529,-22,-2,-5,2,-2,-1,-4,-29
89394892709,-4,-2,0,-1,-1,-1,7,-5
89394892709,-5,-3,6,-1,-1,-1,-8,4
89394907904,3,2,-1,1,-2,-1,7,10
89394907904,14,0,-3,-3,0,-1,-3,2
89394908504,-11,1,0,2,2,4,0,-2
89394908504,-16,-3,3,3,0,-2,2,-6
89394931006,10,3,-4,-1,-2,2,1,-1
89394931006,-3,-1,0,-5,-4,-2,-3,2
89394931749,-10,-5,-8,-2,-2,-4,-4,-4
89394931749,4,2,1,1,0,2,6,8
89394945031,-1,-2,2,1,-2,-5,-7,-7
89394945031,-4,-7,-2,1,2,-1,1,4
89394952775,-1,-2,0,1,1,2,0,1
89394952775,1,0,-4,-5,-2,-2,-2,1
89394967673,-3,-1,0,-2,-1,0,-3,-7
89394967673,1,-1,-3,-2,-2,-3,-3,0
89394968446,-7,1,1,-2,0,-2,-1,-3
89394968446,-2,-2,-2,-3,-2,-1,1,-1
89394990917,-2,0,-1,0,-2,0,-1,-1
89394990917,6,1,-2,-2,0,0,0,7
89394991711,-2,-1,-4,-3,-2,0,-2,-4
89394991711,-2,-2,-3,-3,-2,-3,-1,-2
89395013297,0,-3,-2,-1,0,0,-1,-4
89395013297,-6,-4,-2,-2,-2,-1,1,3
89395014088,0,1,-1,0,-1,-1,-1,-2
89395014088,3,-1,2,0,-1,-1,-1,0
89395027408,-4,-2,-2,-1,-1,-1,0,1
89395027408,-9,-1,-1,-1,-1,-1,-2,-6
89395035188,19,1,1,-3,-2,-1,-1,1
89395035188,-21,-5,-3,-2,-1,-1,1,-3
89395050853,-9,-2,-3,-1,0,-2,-3,-15
89395050853,3,0,1,-2,-2,1,1,8
89395051634,-2,-4,-1,-1,0,-1,-1,-2
89395051634,-3,1,0,0,0,-1,-1,-5
89395073371,8,-1,-1,-1,0,0,-1,4
89395073371,-3,0,-2,-1,-1,-1,0,0
89395074146,-11,-2,-2,-1,-3,-2,-2,-4
89395074146,15,-1,-2,-1,-2,-1,-1,0
89395087417,-6,-3,0,-1,-3,1,0,-4
89395087417,7,0,1,-1,0,-1,-2,1
89395095120,-8,0,0,-2,-1,-2,-3,-4
89395095120,0,-1,-2,-1,-3,-3,-1,4
89395110789,12,-1,-1,-1,0,-1,-2,-1
89395110789,-6,-1,-1,-2,-2,-2,-1,-4
89395111576,-1,-1,1,2,-2,-1,-1,2
89395111576,-1,0,-1,2,0,1,0,-1
89395133347,-8,-3,-4,-6,-1,-3,-1,-2
89395133347,6,-2,-3,-1,-2,-1,-1,2
89395134994,-25,-5,-3,-2,-2,-1,2,-2
89395134994,26,5,0,1,0,0,0,-4
89395147056,-4,-2,0,1,0,-2,-2,-3
89395147056,-4,0,0,-1,-1,-1,-2,5
89395156138,1,-1,0,-2,-1,0,0,-12
89395156138,-29,-4,-3,-4,-4,-3,-5,3
89395170821,-1,-1,-3,0,-1,1,0,-3
89395170821,15,-1,0,-1,0,-1,-1,2
89395172433,-18,-4,-4,0,-1,-3,-2,-2
89395172433,-5,-3,0,-4,-1,-1,-1,-4
89395193317,18,3,0,0,0,0,1,12
89395193317,-8,-3,-2,-1,-1,-1,0,-3
89395194942,15,-1,-1,-1,-1,0,-2,3
89395194942,1,-2,1,0,0,0,-1,-1
89395207035,-18,-3,-1,-2,-1,-2,-1,-3
89395207035,2,0,-2,-2,-1,1,1,-3
89395215995,4,0,-2,-3,-1,-1,-4,-10
89395215995,4,3,8,13,4,0,1,-2
89395230780,-10,-6,-8,2,-6,-4,-2,-6
89395230780,-2,-3,-7,-29,-5,-2,1,-1
89395232370,5,-2,0,-1,-1,-2,-2,32
89395232370,39,3,3,-1,-1,1,0,-5
89395253382,-4,5,5,9,5,2,0,1
89395253382,-4,-3,0,6,-2,-3,-2,-5
89395254977,0,-2,-3,-4,-2,-2,2,3
89395254977,4,-2,-7,-4,1,-1,-1,3
89395267650,-14,-2,-1,0,-2,-3,-4,-1
89395267650,19,4,4,4,-1,2,3,3
89395274480,-8,1,2,0,0,-1,1,3
89395274480,-8,-5,-6,-1,-3,-2,-1,-3
89395291324,0,-5,-2,-6,-2,-2,-2,5
89395291324,-10,-2,-2,2,-1,-2,-5,-2
89395296960,5,0,0,0,-2,-1,-1,-9
89395296960,-15,-2,-3,-6,-1,-3,-2,-5
89395313334,5,1,0,-3,-1,1,1,3
89395313334,-1,-1,-1,4,1,-2,-1,-6
89395314941,13,0,-4,-1,-4,-3,-3,0
89395314941,-11,-3,-1,-4,-4,-3,-1,0
89395327428,2,-2,0,-3,-1,-1,-1,-3
89395327428,-1,-2,-2,4,1,-1,-2,-1
89395335972,-6,-1,-3,-1,1,-1,-2,-6
89395335972,-16,-4,-2,-4,-1,-3,-2,-5
89395350817,15,2,0,3,-1,0,-1,10
89395350817,7,1,0,1,-2,-1,-2,1
89395352452,-10,-5,-4,-5,-3,-2,-2,-8
89395352452,5,-3,-2,-1,-1,-3,-2,1
89395373344,31,2,0,1,1,0,1,-3
89395373344,-14,-1,-2,-3,0,0,1,4
89395374970,-1,5,0,-1,2,1,1,-2
89395374970,5,2,-5,29,1,1,-1,3
89395387699,-14,-11,-6,-59,-16,-8,-8,-14
89395387699,-4,0,2,6,3,3,3,1
89395394496,-6,0,-2,-3,0,-1,-4,-5
89395394496,-2,1,5,5,0,0,0,9
89395410856,-8,-1,-2,12,4,-1,1,0
89395410856,-6,-2,-2,-4,-4,-5,-7,-7
89395412536,3,-1,1,-2,-2,0,2,0
89395412536,-2,0,-2,-6,0,-1,-3,-6
89395433361,-7,-1,-2,8,0,-3,1,0
89395433361,0,-2,-2,-7,-1,-1,0,0
89395434979,-12,-3,0,8,0,0,1,-2
89395434979,15,0,-2,-9,-2,1,-2,0
89395447722,-5,-1,1,3,1,1,0,-3
89395447722,-2,0,1,7,-1,-1,0,0
89395454521,2,0,-2,0,-1,-1,-1,-2
89395454521,-7,-3,-2,-9,-4,-2,1,1
89395470855,-10,0,0,3,1,-1,-2,-17
89395470855,19,0,-3,-1,0,0,1,17
89395472432,-3,2,0,0,0,-2,-2,-6
89395472432,-6,-3,0,-8,-1,-1,2,-2
89395493291,5,3,0,6,-1,0,-1,3
89395493291,2,-1,-1,-1,-3,-2,-4,9
89395494929,2,-2,-4,-3,-1,-2,0,0
89395494929,0,1,-1,-1,0,-1,-2,-4
89395507055,-17,-1,0,3,2,2,1,-2
89395507055,-7,-1,-1,-3,-2,-2,-2,-9
89395516002,4,-2,-1,-1,0,-1,-4,5
89395516002,-10,-3,-1,-2,-1,-2,-2,-4
89395530841,-7,-1,3,9,-2,-1,-6,0
89395530841,2,-2,-10,-16,-4,1,4,-5
89395532453,0,0,1,3,1,0,-3,-8
89395532453,-3,-1,-2,-4,-2,-1,1,17
89395553325,14,0,-4,-2,-2,-3,-2,-13
89395553325,8,3,4,6,3,0,-1,0
89395554941,2,-3,-1,-2,-3,-1,1,3
89395554941,-11,-2,-4,-5,0,-3,-1,-6
89395566968,9,0,0,2,-1,-1,-1,8
89395566968,-7,-2,0,1,-1,0,-1,-5
89395575977,-11,-1,-2,-1,-3,-2,-3,-3
89395575977,12,1,1,-1,-2,0,1,1
89395590787,-5,-3,-3,-3,-1,-2,0,2
89395590787,-6,-3,0,0,2,-3,-1,-8
89395592390,6,-2,0,-2,1,-3,1,2
89395592390,-5,-2,-2,-2,-3,-2,-2,-7
89395613348,1,1,-2,-1,-1,0,2,4
89395613348,8,0,-2,0,-3,-1,-4,-4
89395614914,-33,-2,0,-1,0,1,0,2
89395614914,6,-1,-3,-2,0,-3,-5,-3
89395627000,3,-1,-3,0,0,-1,2,-2
89395627000,-4,-1,0,0,-3,-1,1,10
89395635942,27,2,0,-1,-1,-1,0,2
89395635942,-3,1,1,-2,-1,-1,-3,-27
89395650813,-2,-1,-1,-3,0,0,-1,5
89395650813,-21,-4,-2,0,-2,-2,-4,-19
89395652427,4,-1,-1,-1,-2,0,4,3
89395652427,-1,-4,-2,-2,-2,0,-5,6
89395673386,0,-2,0,0,-1,-2,-2,-1
89395673386,-8,-2,0,2,0,-1,-2,-5
89395674974,-4,-3,-1,-2,-2,-1,-3,-3
89395674974,4,-2,-1,0,-1,1,0,1
89395686927,-7,0,0,0,-1,-1,0,-2
89395686927,0,-2,-2,-1,0,-2,-1,3
89395695961,-1,-1,-3,-1,0,-3,-2,-6
89395695961,-2,0,1,0,0,0,1,3
89395710847,5,2,-1,0,-1,0,-2,-1
89395710847,-1,-1,-3,-1,0,-1,-2,1
89395712439,0,-1,-1,-2,-2,-2,-4,-6
89395712439,-15,-4,-1,-2,-3,-1,0,-4
89395733344,43,2,-2,0,1,-1,-1,10
89395733344,-11,0,3,0,0,2,2,-2
89395734973,2,-1,-1,-1,-1,-1,-1,1
89395734973,9,1,-2,-3,-1,-1,1,14
89395746987,-51,-7,-5,-3,-3,-3,-6,-44
89395746987,3,-1,1,1,0,0,-1,0
89395756006,8,-1,-2,-1,0,-3,0,3
89395756006,6,0,-2,-2,-2,0,0,3
89395770848,-6,0,0,-2,-2,0,-2,4
89395770848,-1,0,-3,-1,0,-2,-2,0
89395772467,-16,-1,-1,-1,0,0,-3,-12
89395772467,11,-2,-3,-1,-2,-2,1,8
89395793321,-2,-1,0,-1,0,0,-2,2
89395793321,-11,-1,-2,-1,-2,-2,-3,-3
89395794940,22,2,-2,-1,-3,1,2,11
89395794940,-7,-1,-1,-1,-1,0,-3,-6
89395806999,2,-2,-1,-2,-1,-3,-1,17
89395806999,5,0,0,-2,0,-2,-1,-2
89395816002,-7,-2,-2,-1,-2,-2,0,-2
89395816002,-3,-3,0,-1,-2,-1,1,-4
89395838345,-11,0,-2,0,-1,0,-2,-7
89395838345,0,-2,-1,0,-1,-2,-1,0
89395839925,-5,-2,0,-2,-2,-2,-2,-2
89395839925,14,-1,0,0,-2,0,1,7
89395853322,-37,-5,-3,-3,-2,-3,-3,-37
89395853322,-23,-3,-4,-2,-2,-1,-3,1
89395854979,3,-1,-1,-1,-2,-1,-3,-1
89395854979,-20,-1,0,-2,-1,-3,-4,-14
89395867022,25,5,2,0,0,1,1,15
89395867022,8,-3,-2,-2,-2,-2,-1,-3
89395875982,-6,-1,-2,0,-1,-3,0,-5
89395875982,-10,-1,-1,-2,-2,0,-2,0
89395890136,3,-2,-1,-2,-2,0,1,5
89395890136,6,0,-1,-3,-1,-1,1,9
89395896985,2,-3,0,-1,0,-1,1,7
89395896985,5,0,1,0,1,1,-2,-3
89395913378,1,-2,-3,-3,-3,0,0,5
89395913378,11,0,-1,-2,-2,0,-5,-4
89395914978,-21,-2,-1,-3,0,-1,-1,-5
89395914978,14,-2,-1,-3,-2,-2,-1,-8
89395935852,1,0,-2,0,0,-1,2,2
89395935852,-28,-5,-2,0,-3,0,-6,-31
89395937449,9,-1,-3,-2,-1,0,0,3
89395937449,4,1,-1,0,0,-1,-2,1
89395950163,40,3,-1,-1,-1,-1,-2,3
89395950163,4,2,4,1,2,0,5,8
89395956966,-2,1,-1,-1,0,-2,-3,-4
89395956966,-12,-2,-1,0,0,-1,-2,-3
89395973304,-3,-2,-1,-2,-2,-1,1,3
89395973304,11,-2,-1,-1,-2,-1,-1,13
89395974918,-3,0,-1,-2,-1,-1,2,-2
89395974918,9,0,0,0,0,-1,0,2
89395995834,-11,-1,-1,-1,-1,0,-1,-1
89395995834,-16,-1,1,-1,-1,-3,-1,-5
89395997443,16,0,-1,-1,0,1,-1,1
89395997443,-7,-2,-2,-2,-2,-3,0,1
89396010201,-7,-1,0,-3,-1,-1,-1,-1
89396010201,-2,-4,-3,-2,-1,0,1,-8
89396016973,-4,-2,-3,1,-2,0,-2,-4
89396016973,10,2,-2,1,0,-2,-3,3
89396033315,-24,-1,-2,-1,-1,-3,-3,-23
89396033315,18,-1,-3,-2,-3,-2,-2,-5
89396034947,-9,-2,-1,-1,-2,-1,0,2
89396034947,20,0,-1,-2,1,0,-1,0
89396056280,-18,-2,2,1,0,-2,4,10
89396056280,-4,2,-1,-1,0,-2,0,-1
89396057925,1,-2,0,-1,-1,-3,-2,-6
89396057925,-2,-2,0,-1,-2,-2,-4,7
89396070201,9,-4,-5,-3,-3,-1,-3,4
89396070201,10,1,0,1,0,0,-1,0
89396076973,-3,-1,-1,-2,-3,-1,0,2
89396076973,-16,-5,-3,-1,-1,-1,-2,-5
89396093358,-1,-1,0,-1,-3,-1,-1,1
89396093358,-5,-1,-4,-3,0,0,0,1
89396094963,6,-1,-1,-2,-2,-2,-4,2
89396094963,-6,0,-1,-1,1,1,0,-6
89396115847,-4,-3,-4,-4,-3,-1,-1,1
89396115847,16,0,-2,-1,-3,-1,0,6
89396117461,-4,-2,2,0,-1,-1,-1,0
89396117461,-11,-1,0,-1,-1,-1,-1,-2
89396130194,1,2,1,1,1,1,1,10
89396130194,-2,-4,-3,-2,-2,-4,-5,-20
89396137016,-4,2,1,0,1,1,0,-5
89396137016,1,1,-1,0,-2,0,0,3
89396153303,5,-2,-2,-1,-1,1,-1,-4
89396153303,-43,-4,-1,0,-3,-2,0,3
89396154948,8,2,-2,-2,-1,0,-1,2
89396154948,-21,-2,-2,1,0,-1,0,-8
89396175759,14,1,-1,-2,1,-3,-2,2
89396175759,1,1,1,-1,0,-1,-2,-5
89396177444,11,1,-1,-2,0,0,-1,5
89396177444,-8,-2,1,-1,-3,-1,0,1
89396190193,-3,-2,-1,0,0,-3,-3,-2
89396190193,10,0,-2,-1,-1,0,-2,4
89396196992,-13,0,-2,0,-1,-2,-3,-6
89396196992,14,-2,-3,-1,-1,0,-2,-1
89396213351,-14,-3,0,1,-2,-1,-1,2
89396213351,15,2,2,-1,1,1,3,-2
89396214953,1,-6,-3,-4,-2,-3,-1,23
89396214953,-3,-3,-1,-1,-2,-1,1,1
89396235836,-2,-2,-1,1,-1,-2,-1,-5
89396235836,-3,0,2,2,0,1,2,-4
89396237427,-3,-2,-2,-1,-1,0,-1,-2
89396237427,-4,0,0,-2,0,-3,0,-9
89396250157,-5,0,-2,0,-1,1,0,2
89396250157,47,1,0,-1,0,-1,0,2
89396256935,-3,0,-1,-1,0,0,0,-3
89396256935,-7,-1,-1,-2,-2,-1,-1,-2
89396273311,-7,-1,1,2,2,0,-2,-5
89396273311,3,-1,-4,-2,0,0,-1,5
89396274915,11,-5,-4,-3,-3,-4,0,-8
89396274915,-2,-1,-4,-4,-1,-1,-2,-4
89396295837,1,-1,-2,-3,-2,-1,-2,10
89396295837,-24,-5,-4,0,-2,-1,-1,-1
89396297452,9,-1,-1,0,-1,-2,-3,-9
89396297452,-3,0,2,0,0,0,0,2
89396309448,9,0,0,-2,-1,0,0,-5
89396309448,-12,-1,0,-1,1,-1,-3,1
89396318464,-11,-2,0,-2,-2,-2,-1,-2
89396318464,8,-1,-1,-1,-1,-1,1,1
89396333283,4,-1,-5,-1,-2,-1,-2,1
89396333283,-24,-2,-1,-1,-2,-1,-3,-31
89396334884,-7,-1,0,1,-1,0,0,0
89396334884,1,-2,-2,-1,0,-1,-3,-2
89396355849,-8,-2,-3,-2,-2,-1,0,-9
89396355849,6,-3,-1,-2,-3,-2,0,18
89396357439,1,0,-2,-2,-1,-2,-2,-5
89396357439,-7,-2,0,0,0,0,0,-7
89396369469,15,-1,0,-2,-1,-1,-2,1
89396369469,1,-1,0,-2,-3,-3,-2,3
89396378496,-6,-2,-1,-1,0,0,-3,-6
89396378496,3,1,-1,-2,0,0,-2,4
89396393326,-6,-2,-1,0,-1,0,0,-4
89396393326,0,-2,-1,-3,1,-1,-1,17
89396394950,9,-1,-2,-1,-1,1,-1,-3
89396394950,-22,0,0,-1,-2,-1,-1,0
89396415799,-3,0,1,0,0,0,0,1
89396415799,10,0,-4,-3,-2,-2,-1,-5
89396417428,-8,2,1,1,0,0,-3,-11
89396417428,15,-2,-3,0,-1,-2,3,11
89396429447,-21,1,-1,-1,-1,-2,-6,-26
89396429447,3,2,-2,1,1,-2,1,5
89396438497,-9,-5,-1,-2,0,-1,-2,3
89396438497,16,2,-2,0,0,-1,1,0
89396453348,6,0,3,-1,-1,-1,-1,2
89396453348,-1,-3,-2,0,-1,0,-1,-2
89396454959,-9,-4,-4,-3,-3,-1,-1,-4
89396454959,-4,-1,1,0,0,-1,-3,-2
89396475820,4,-1,-3,-1,0,0,1,7
89396475820,-6,-3,-1,1,-3,-1,-1,-6
