timestamp,emg1,emg2,emg3,emg4,emg5,emg6,emg7,emg8
83976790554,8,-4,3,1,0,0,-2,-9
83976790554,-2,6,-2,-7,-2,1,2,11
83976792062,6,-1,2,14,1,-2,-4,1
83976792062,8,-1,-3,-3,-4,-3,2,9
83976805461,-7,3,0,-7,-1,-2,-2,-17
83976805461,2,-2,0,3,2,-1,-4,-5
83976807076,-17,-34,-6,-15,-3,-1,0,1
83976807076,-6,-18,0,1,1,-1,-6,-7
83976819024,1,-2,-3,-1,-1,-2,4,4
83976819024,3,-3,-2,3,0,0,-2,-4
83976828069,-6,10,0,2,0,0,1,-18
83976828069,-1,9,-1,-5,-1,-1,-3,1
83976842912,-6,-9,-3,2,0,0,-2,0
83976842912,-3,5,0,-2,-1,-3,-3,-8
83976844536,-3,10,-2,0,-1,0,1,20
83976844536,-2,-1,-2,-3,0,-1,-1,-4
83976865439,-1,4,1,4,1,0,-1,-2
83976865439,-4,-3,-4,-11,-3,-1,1,4
83976867073,4,3,1,12,1,-1,0,-3
83976867073,-3,2,-1,2,-1,-2,-4,-3
83976879071,0,-3,-2,-8,-2,-2,-1,7
83976879071,3,-3,0,3,-2,-1,4,1
83976888764,-1,1,-1,-2,-1,-1,-1,3
83976888764,-2,4,-3,1,-1,-1,-1,4
83976902257,-3,-18,-2,4,-2,-3,-4,-10
83976902257,7,-17,1,-3,-1,0,1,12
83976903024,6,10,0,-6,1,-1,1,-10
83976903024,-9,3,0,6,0,1,2,0
83976924731,1,-3,-1,-4,0,0,-5,-4
83976924731,-9,3,-1,6,1,0,4,9
83976925594,3,-3,0,-5,-1,-2,-2,2
83976925594,-2,0,0,-6,-2,0,0,-1
83976948182,-4,8,0,6,0,-1,-2,-12
83976948182,1,1,-3,-3,-2,-2,-5,-10
83976948744,-4,1,1,12,1,1,-3,1
83976948744,-2,3,2,-4,0,-1,-2,2
83976962307,1,3,3,-1,-3,-2,3,1
83976962307,2,19,-1,-1,-4,-2,0,-3
83976963083,-11,-2,-3,-7,-2,-1,-3,0
83976963083,6,-5,-2,3,1,-1,-1,14
83976984744,1,2,-1,-3,-2,0,-2,-1
83976984744,-5,0,1,0,0,0,-2,-3
83976985534,13,3,-2,-1,-3,-1,-3,-17
83976985534,-6,18,0,-3,-1,-1,1,4
83977007854,1,1,-3,0,0,-1,3,3
83977007854,-1,-4,-1,-1,-1,-2,-1,-7
83977008683,2,-1,-1,-6,-4,0,0,9
83977008683,-4,-3,1,-2,0,-1,-4,-13
83977022482,0,-1,-1,-7,-2,-1,-2,9
83977022482,1,-3,0,18,1,-3,0,-3
83977023098,0,-1,-3,-17,-3,-3,1,2
83977023098,1,-7,1,-1,-1,-2,2,1
83977044774,-3,4,-3,3,0,0,-3,-5
83977044774,-4,-7,-1,-9,-2,0,-2,-2
83977045551,5,12,2,1,-1,-1,0,17
83977045551,3,-3,-2,-6,-2,-1,0,-19
83977075406,0,3,0,0,0,-2,2,18
83977075406,0,-4,-1,0,0,-2,1,4
83977076228,-4,0,0,5,0,-1,-4,-7
83977076228,1,-5,-3,-11,-3,-1,2,2
83977082221,8,2,-1,1,-2,0,-2,-3
83977082221,-12,-35,-4,-5,-2,-2,-1,3
83977083033,-3,-4,2,0,0,0,-1,-1
83977083033,-3,2,-1,-7,-2,-2,-2,-13
83977104686,0,0,0,6,-1,-3,0,-5
83977104686,2,-8,-2,0,1,0,-1,0
83977105532,-4,-6,-2,-10,-1,-1,-1,-15
83977105532,-4,-9,-3,17,0,-3,-4,-4
83977127926,7,-1,0,-10,-2,0,0,19
83977127926,1,10,0,-2,-3,-2,0,-6
83977128732,-2,2,-1,-6,-2,-2,0,-3
83977128732,3,5,0,1,-2,-2,1,8
83977142054,-8,4,2,-1,-3,0,-7,-20
83977142054,7,2,-1,-3,-2,-1,-2,22
83977149790,-3,-1,-2,-4,-1,1,5,-6
83977149790,-4,0,-2,2,-4,-2,-1,5
83977164814,-4,-5,-2,0,0,-2,0,-9
83977164814,0,1,0,-3,0,0,-7,-10
83977165551,2,-3,-3,7,-1,-2,1,11
83977165551,-5,2,0,1,3,0,1,-6
83977187493,0,-3,-3,-1,-3,-1,1,-3
83977187493,-3,-1,-2,-11,-2,-1,-5,-13
83977188071,-2,-24,-3,2,0,-1,-3,-2
83977188071,-6,-1,0,1,0,-1,-3,8
83977203807,-5,-6,3,1,-3,0,1,11
83977203807,-4,9,-2,-1,-2,-2,0,-7
83977204625,12,12,0,-3,-1,-1,-2,3
83977204625,-13,-9,-1,0,-1,-1,0,2
83977224950,-3,-2,0,8,2,-1,-2,-11
83977224950,6,2,-1,-9,-1,-2,2,19
83977225581,-1,4,0,-3,1,-1,1,-11
83977225581,4,-1,-2,-5,-1,0,-2,-1
83977248011,-4,3,-2,7,1,-2,-5,-1
83977248011,-3,2,0,-3,0,0,2,-1
83977248725,-8,-5,0,17,1,-2,-6,-13
83977248725,4,0,-1,-8,-1,0,0,0
83977262291,0,-2,-6,-7,-3,-1,-4,-5
83977262291,-3,-4,2,5,-1,-1,-2,-5
83977263081,-4,9,-5,-7,-3,-2,-1,-2
83977263081,3,-20,-3,5,1,1,0,-4
83977284786,-2,-1,2,-9,0,-1,3,6
83977284786,2,-2,0,8,1,-1,-3,-11
83977285642,-10,4,-3,-7,-3,-3,-2,13
83977285642,4,9,-1,1,-1,-2,2,4
83977315594,-3,-2,-2,-6,-1,-4,-4,-9
83977315594,2,2,-3,-3,-1,1,6,4
83977316313,-2,-5,1,1,-1,1,-5,-2
83977316313,2,0,0,7,1,-1,0,10
83977322343,-4,-12,-2,2,-2,-1,1,-12
83977322343,0,1,-2,1,0,-2,-5,-9
83977323127,0,-2,1,0,-2,0,-1,1
83977323127,0,17,2,-9,-4,-2,-2,-7
83977344972,0,2,-6,-8,-3,-1,-1,1
83977344972,-1,-2,1,2,3,1,0,0
83977345542,-1,-5,-2,3,-2,-2,-1,-6
83977345542,-2,1,-1,0,-1,-3,-4,7
83977368040,2,0,0,-1,-2,0,0,5
83977368040,0,-2,-2,-5,-4,-2,4,2
83977368796,-2,1,-1,-2,-2,0,-5,-1
83977368796,-4,-5,-2,2,-2,0,-1,0
83977382528,0,0,0,2,2,-1,-2,0
83977382528,-9,-8,-3,3,0,-2,-2,-1
83977383172,0,-2,2,-3,0,-1,0,-4
83977383172,0,16,0,-6,-2,0,2,-6
83977404819,13,-2,-3,-6,-2,0,-7,-9
83977404819,1,-8,-1,3,0,-3,5,11
83977405633,3,-2,-2,-3,0,0,-1,-1
83977405633,-3,0,-3,-3,-2,-1,-4,-5
83977428158,1,8,1,9,2,0,3,0
83977428158,-3,4,-2,-11,-4,-1,-5,-7
83977428845,-1,0,1,2,-3,-1,0,0
83977428845,4,-12,-3,-14,-4,-2,-3,-2
83977442462,-6,-3,0,12,3,-2,1,1
83977442462,0,-1,-1,-3,-2,-2,-2,-4
83977443108,-3,-3,1,6,0,0,1,-1
83977443108,0,-1,0,-6,-1,-1,-2,4
83977464942,-4,-2,-2,-22,-3,-1,-3,-11
83977464942,0,7,3,-7,1,0,-4,-4
83977465608,-3,-19,-8,25,3,-13,0,5
83977465608,-2,-6,1,1,0,9,-1,-7
83977488075,-1,-1,0,-9,-3,-4,1,10
83977488075,-2,-7,-1,5,-7,-1,-4,-5
83977488803,-1,5,0,-10,-2,2,-4,-3
83977488803,-1,-4,0,20,3,-6,0,-3
83977510493,-4,-2,-2,-1,2,4,5,-2
83977510493,-1,5,-3,-4,-5,-6,-6,-2
83977511258,-2,1,-2,-12,1,2,-5,-3
83977511258,1,1,-2,12,3,3,1,0
83977524921,3,7,4,13,-6,-4,-1,-1
83977524921,0,-1,0,10,5,6,-2,-10
83977525578,0,-3,-1,-2,0,0,4,10
83977525578,0,-6,-2,-9,-6,-7,-2,-10
83977547262,0,8,-1,-9,-4,1,2,10
83977547262,1,-6,-1,12,5,-10,-3,1
83977548116,-1,-3,1,-2,1,9,-2,0
83977548116,3,3,1,-11,7,1,2,8
83977562281,-4,0,-3,4,-6,-11,-2,-5
83977562281,3,5,-1,1,-3,2,-2,-1
83977563136,0,5,1,0,-3,-3,2,0
83977563136,-8,-11,-6,-13,-11,-9,-4,-2
83977584796,-1,-4,-4,8,0,-7,-7,-8
83977584796,-16,-3,-1,-3,7,15,1,3
83977585588,11,1,2,3,4,9,3,-2
83977585588,-2,-3,0,-4,-3,4,-2,-15
83977607507,1,22,0,-4,-3,3,12,18
83977607507,4,-1,-4,-6,-8,-17,-9,2
83977608039,-5,3,-3,-2,-2,-11,-8,2
83977608039,-7,6,-2,-7,-5,-1,6,-14
83977622471,4,-3,1,7,7,6,-9,3
83977622471,5,16,-1,-7,-2,5,13,0
83977623120,-7,-25,-4,-1,0,-4,-12,-12
83977623120,2,1,1,2,0,5,9,12
83977644971,-13,-11,-3,-7,0,15,5,-5
83977644971,5,3,2,-9,-8,-14,-11,-2
83977645582,5,4,-5,-3,-2,6,7,16
83977645582,10,0,0,5,1,-6,-5,14
83977667271,2,10,4,-3,-2,-17,-8,-31
83977667271,-11,-11,2,6,14,11,9,26
83977668062,0,9,4,0,-3,0,3,-5
83977668062,-5,-2,-2,1,-5,1,0,6
83977682253,0,-1,-2,-13,-4,18,-2,5
83977682253,-3,-5,-3,0,-5,-44,-16,-32
83977683045,13,2,-4,1,-6,7,1,-31
83977683045,2,17,2,4,9,5,-4,13
83977704779,-4,-27,-2,-17,-2,5,11,-11
83977704779,4,-1,-2,2,-6,4,14,12
83977705506,-5,-7,-2,3,-3,6,-5,-8
83977705506,1,11,0,4,4,-9,-18,-21
83977727262,0,-14,-5,-22,-5,-21,-14,30
83977727262,-1,-3,1,-4,-5,3,5,-10
83977728052,-10,5,3,3,0,-3,3,6
83977728052,4,-2,-4,-5,-3,9,7,-12
83977742228,-7,-4,-3,-5,-3,-15,-9,-3
83977742228,4,0,-4,9,5,23,-11,22
83977743002,-9,-6,-5,-23,-10,-42,17,4
83977743002,-1,-8,-2,0,-5,44,12,3
83977764778,1,-1,0,13,11,-21,-6,-11
83977764778,3,2,1,-10,5,39,2,-15
83977765559,-3,14,1,9,-8,-33,-14,10
83977765559,-8,-11,-7,-3,-8,-18,-16,-3
83977787286,-4,-2,-3,3,-3,14,14,11
83977787286,-1,2,3,-6,0,2,-11,-3
83977788060,-16,-3,-5,5,16,19,5,8
83977788060,-4,-5,0,-4,-6,-21,-6,-10
83977802249,-6,-2,4,-2,-7,1,3,-1
83977802249,-6,-1,-3,2,-4,-19,-5,2
83977803041,3,-2,1,-8,-2,1,-16,2
83977803041,-4,6,-1,0,-5,-9,20,-4
83977824998,1,0,1,4,2,7,-1,-13
83977824998,1,-3,2,-4,4,6,-4,-3
83977825601,5,-3,-1,5,7,11,7,0
83977825601,1,-1,3,3,8,-14,-11,5
83977847473,1,3,-1,6,2,17,4,-11
83977847473,-6,-8,-5,-12,-24,-36,7,-5
83977848128,-3,-3,-5,-10,-17,16,-14,8
83977848128,1,-6,-1,-5,10,-6,-7,-1
83977861807,-2,-2,-6,-10,-11,-14,3,20
83977861807,-2,8,-4,30,12,10,-5,-14
83977869993,4,-7,4,0,10,-16,17,1
83977869993,2,-2,1,-2,11,15,-5,4
83977884811,-4,-1,4,-8,-22,-8,-15,2
83977884811,3,1,-3,-6,4,19,12,4
83977885617,2,11,14,-2,5,-4,5,3
83977885617,2,-8,-6,-2,1,-1,-1,-4
83977907472,-1,-1,1,5,-6,-20,-13,-10
83977907472,2,-5,-5,-4,3,7,1,20
83977908167,-3,-4,-6,10,2,24,1,-26
83977908167,3,-4,-7,1,1,-19,-20,5
83977921917,4,3,-3,-3,6,7,17,-2
83977921917,-3,-3,-3,-6,-13,-30,-13,-2
83977930019,-4,-4,-11,-12,2,5,-10,-30
83977930019,-10,-15,-5,1,-9,-7,-1,10
83977944795,-17,-4,-9,9,7,25,-10,-26
83977944795,-14,-1,1,-18,-6,-35,-10,-8
83977945607,6,-2,3,-11,-11,2,7,23
83977945607,4,-3,6,18,0,7,8,-14
83977967520,17,-3,2,10,7,3,18,28
83977967520,3,-6,1,-24,-8,5,-1,-10
83977968083,5,1,-4,17,11,-11,-12,-13
83977968083,3,5,4,-30,-9,4,12,27
83977981779,-5,4,-6,4,-5,-3,24,10
83977981779,-3,6,5,13,13,11,-12,-3
83977989959,-4,0,4,-5,-19,-13,-10,-7
83977989959,-7,-4,-6,11,18,31,3,-10
83978004791,-3,3,6,5,-4,-11,-16,-22
83978004791,5,-5,-3,15,2,-16,7,20
83978005572,-5,-3,-7,-25,-5,-5,-7,-7
83978005572,-4,2,-1,8,0,21,19,6
83978027528,6,-2,-1,29,19,-24,-15,3
83978027528,-1,1,3,8,-12,14,8,-17
83978028064,0,-4,-7,-60,-6,-8,-10,9
83978028064,-2,1,1,0,-9,-2,0,-23
83978041735,-2,-1,-2,24,2,7,5,7
83978041735,3,-1,-8,-40,13,-8,-21,-26
83978050036,-1,2,5,38,-10,9,7,24
83978050036,-1,-9,0,-12,-7,-6,7,9
83978065026,-2,-4,-12,-11,-2,-7,-10,-10
83978065026,0,0,0,32,11,14,-3,18
83978065640,-5,-5,1,6,-3,-4,2,-17
83978065640,3,0,-6,-50,-5,-7,-9,-8
83978087581,5,1,1,-1,-3,7,-6,60
83978087581,-2,-3,-8,-66,-5,2,12,-10
83978088091,-3,-4,-5,41,-6,-7,-8,-10
83978088091,-3,1,-1,17,-9,-24,-3,4
83978101693,-2,-2,4,-11,8,-5,-11,-19
83978101693,10,-1,-2,5,-17,12,7,5
83978109959,3,2,3,-19,14,-6,1,13
83978109959,-6,7,-5,19,3,-14,-21,-63
83978124922,-3,-20,-1,-18,-13,13,28,10
83978124922,-25,-13,-2,16,-1,-3,-16,-30
83978125596,3,-9,-6,7,11,-1,4,11
83978125596,9,7,10,12,-5,-5,5,52
83978147346,-1,7,4,-8,2,9,-25,-23
83978147346,-32,-2,0,9,-11,-27,0,-33
83978148144,14,-16,2,-5,14,14,26,38
83978148144,-47,-8,-8,-8,-3,-1,-32,-69
83978161819,8,4,0,-4,1,21,11,17
83978161819,11,0,-5,-3,-19,-61,-14,80
83978169980,-3,10,1,1,5,29,4,9
83978169980,-22,3,3,2,3,-13,-10,-1
83978184938,-3,5,-3,2,5,9,0,-18
83978184938,1,-9,-2,-1,0,15,2,8
83978185648,11,8,0,5,3,22,-8,9
83978185648,30,-23,-5,0,-11,-52,24,53
83978207302,6,13,2,-12,0,10,5,-13
83978207302,24,-19,-2,4,-1,-4,11,63
83978208153,-12,-3,-4,0,9,38,-6,-44
83978208153,1,6,-4,-7,-4,6,20,41
83978230659,11,-3,3,9,0,-29,10,35
83978230659,-4,11,3,-5,-1,26,9,-76
83978231259,7,3,3,-11,-18,-24,-8,-35
83978231259,-3,7,-1,3,10,30,-2,0
83978244962,-5,-18,-5,-3,-2,-23,-16,4
83978244962,33,10,3,16,15,33,19,60
83978245577,13,5,6,-1,-4,-5,16,56
83978245577,6,2,4,-2,-2,24,12,-3
83978267480,-20,-9,-6,-9,-12,-33,-15,-19
83978267480,14,-14,-5,1,7,-4,-1,-3
83978268136,-2,0,-1,5,5,-17,-13,-19
83978268136,2,0,-5,-8,3,42,-7,-6
83978290644,-24,-11,-5,-3,-5,-12,-3,-44
83978290644,6,10,2,0,-10,2,14,49
83978291327,-6,4,-6,-1,-7,-16,19,-12
83978291327,-1,-7,-4,0,6,6,0,-14
83978304987,-10,9,-2,-17,-8,-2,-25,-44
83978304987,3,6,-3,5,1,-5,-1,25
83978305572,-28,-14,-3,0,-1,-11,-43,-48
83978305572,6,0,-4,3,-11,5,9,12
83978328819,8,4,2,2,9,4,18,11
83978328819,-14,-1,3,0,7,20,-10,-40
83978329521,-9,-4,-6,-11,-26,-17,5,-6
83978329521,5,1,6,5,24,-40,-43,15
83978350701,9,6,2,2,0,8,-12,8
83978350701,-30,-6,0,-5,-3,9,-14,-71
83978351327,0,-2,-2,4,-5,-6,3,-3
83978351327,-16,-4,-6,-21,-7,18,-6,-39
83978364986,9,-3,-1,13,-1,-36,2,21
83978364986,-4,1,5,4,1,0,-16,-13
83978365543,-3,1,2,2,8,6,19,-3
83978365543,2,3,-2,2,-8,-5,-5,4
83978387322,-4,-5,-3,-3,9,13,-6,-6
83978387322,-4,1,-6,-3,-9,-11,-4,-12
83978388080,-4,0,-8,-9,-9,-18,-8,-16
83978388080,13,2,-5,5,-4,5,15,66
83978410576,0,1,-10,-14,4,11,-9,-12
83978410576,-7,-2,-1,-2,-5,-15,-6,-6
83978411291,-1,-2,0,10,8,22,-7,9
83978411291,1,-1,11,14,-4,-24,-2,-17
83978425043,-1,-1,-2,-26,-13,16,12,4
83978425043,-3,-3,0,-6,6,-10,-13,-12
83978425588,5,0,-1,10,6,-6,3,15
83978425588,-3,-4,1,-20,-10,-8,12,-20
83978448115,0,3,8,7,-8,11,0,8
83978448115,1,1,-2,-17,-5,12,11,2
83978448834,-1,9,0,1,0,-8,5,3
83978448834,1,-1,-2,-4,4,0,-7,-6
83978470512,-2,0,4,34,9,9,-1,-7
83978470512,-1,0,-3,-1,0,-13,5,14
83978471325,-2,-2,0,1,-5,5,-2,2
83978471325,0,-3,-1,-1,-3,-9,-4,-8
83978484848,0,-3,-3,2,-2,-4,-12,-2
83978484848,-1,2,1,8,7,-2,2,-5
83978485607,1,-6,-2,-16,-5,-1,1,-1
83978485607,-3,-1,-1,-5,1,1,-3,-11
83978507310,2,0,0,-17,-7,6,4,-2
83978507310,-7,-1,0,27,-2,-22,-3,-14
83978508091,20,3,-4,-11,-1,1,1,59
83978508091,2,-2,-4,6,12,4,-5,-4
83978530645,6,18,3,5,-6,16,12,1
83978530645,24,6,2,-13,-3,-2,-2,1
83978531280,-3,-10,5,2,2,-20,-2,-7
83978531280,-2,-2,-1,-5,-17,-3,10,-10
83978545006,-2,-4,-6,6,6,4,7,9
83978545006,-8,-3,0,-6,0,27,-3,-6
83978545573,4,-3,-1,-3,0,-25,-3,-11
83978545573,-8,0,-2,11,6,19,16,-5
83978567455,22,-3,2,-11,5,-4,-11,8
83978567455,6,-3,0,-1,-5,-14,9,22
83978568053,-14,-3,-1,8,-5,6,-19,-31
83978568053,-3,-3,-1,0,0,-8,-2,-15
83978590687,-10,-4,1,-1,-4,0,1,14
83978590687,-5,-4,-6,6,7,1,-4,-11
83978591290,3,-6,0,-8,-7,12,4,0
83978591290,2,-4,-2,-1,-2,-8,16,6
83978604960,-15,-6,2,1,-2,-8,-18,-29
83978604960,-8,4,1,-14,-2,-8,-10,-22
83978605609,-14,0,4,4,1,-13,23,-17
83978605609,2,3,2,10,3,16,-10,-4
83978627345,-1,-4,-1,-11,5,3,1,-14
83978627345,1,-8,-2,-2,-6,-4,9,-3
83978628155,9,1,10,-4,-4,3,-22,35
83978628155,-2,0,22,-4,-5,-23,-5,6
83978650549,-6,2,11,6,5,14,11,-11
83978650549,4,1,4,7,3,4,7,27
83978651283,-7,-4,-12,-8,-8,4,2,-20
83978651283,4,2,-9,-2,2,-3,-14,-24
83978664872,8,0,-5,2,-4,-9,4,26
83978664872,5,-17,-11,-1,-3,6,4,-12
83978665614,-3,1,-11,0,5,-12,-6,5
83978665614,-18,-1,-19,-2,-4,0,-7,-7
83978687299,-3,-5,-16,-11,-4,-21,-25,7
83978687299,-14,4,-7,8,0,23,30,-36
83978688019,12,4,-6,-2,7,-1,7,56
83978688019,2,-7,-5,-4,3,27,-7,-1
83978710460,-11,-5,-6,14,-16,-20,-9,-10
83978710460,-11,3,-2,-3,-8,-33,-10,3
83978711213,-3,-6,-1,-22,-3,9,-12,-19
83978711213,1,-10,-1,-3,-2,-16,4,-1
83978724538,-2,0,-3,-11,5,12,10,0
83978724538,5,2,3,7,1,17,-3,14
83978732304,-5,-3,3,6,1,-2,0,-16
83978732304,1,-1,-3,-14,-5,0,-4,22
83978747328,-8,9,2,-3,-3,-14,-1,-23
83978747328,7,-1,1,-2,-4,7,4,-10
83978748060,-23,-1,0,4,2,-6,-29,-78
83978748060,4,5,4,0,3,2,19,45
83978770407,-12,2,0,-7,-5,-6,-4,-16
83978770407,0,-4,0,7,1,5,2,23
83978771256,-5,-5,0,-4,-11,-4,-20,-5
83978771256,2,-4,1,-7,-7,-18,-4,-17
83978784082,-4,-16,4,15,15,9,9,-15
83978784082,-5,25,4,-15,6,-3,3,19
83978792212,20,-20,-4,12,-3,13,15,67
83978792212,9,4,8,6,0,-1,-6,-22
83978807234,16,-9,1,4,-3,-6,-3,13
83978807234,3,-9,0,-6,-10,-2,-14,-5
83978807995,-3,1,1,-5,8,1,13,-36
83978807995,17,10,0,8,6,13,-4,8
83978830426,-21,-15,-1,2,-2,-7,1,33
83978830426,11,-1,-3,28,6,-3,-1,-21
83978831285,-4,16,-5,-30,-9,-5,1,-8
83978831285,-5,-4,-8,-2,-10,-7,-10,10
83978844086,17,25,-3,-16,-4,10,-8,-12
83978844086,-11,-4,1,2,3,-27,-8,-17
83978852257,-9,13,6,19,5,10,7,33
83978852257,-17,2,-4,-5,-10,-19,-32,-13
83978867291,35,3,-3,-4,-1,14,34,47
83978867291,16,14,7,-7,10,12,0,-3
83978868080,3,-2,0,6,5,17,8,-11
83978868080,-8,-2,2,2,-2,-30,-11,-27
83978890410,-18,-6,0,5,-6,-16,-13,-18
83978890410,10,-4,-3,6,1,11,4,0
83978891210,-4,2,-2,-22,1,1,-7,-5
83978891210,9,7,4,4,1,18,16,5
83978904080,-6,-15,-5,-13,-11,-15,-16,-34
83978904080,-15,-8,-5,-2,0,-16,1,22
83978912263,-5,1,-1,12,-3,8,-3,2
83978912263,3,-8,-9,-17,-3,3,5,28
83978927280,-2,3,-2,-6,4,3,1,-17
83978927280,-2,1,1,-1,-7,4,-6,36
83978928095,-8,-7,1,8,-4,-20,-7,6
83978928095,-22,-7,-1,18,11,2,7,4
83978950477,3,2,1,-4,3,7,6,4
83978950477,-6,-5,-8,-22,-1,5,-12,-22
83978951231,-6,-16,-6,-8,-18,-6,-3,-54
83978951231,31,-13,-3,-33,-2,-1,9,73
83978964068,24,6,-2,0,-1,-2,-12,3
83978964068,-12,-3,-3,-3,-2,0,13,-24
83978972286,18,11,4,0,6,-3,10,16
83978972286,-10,13,4,14,-2,1,-3,-39
83978987218,6,10,3,3,-1,4,5,4
83978987218,9,0,0,11,1,1,1,34
83978988006,-6,5,8,31,12,0,1,-14
83978988006,-10,-5,-7,-58,-21,-2,-5,-26
83979017937,-17,0,-2,20,2,-6,5,-1
83979017937,-5,7,-5,-3,1,3,-10,-35
83979018696,-5,-8,-6,-12,-3,0,1,22
83979018696,5,-4,-4,20,4,-9,0,-52
83979024030,-10,-4,-3,11,-1,8,0,51
83979024030,2,5,-2,-19,-5,-4,1,-2
83979032281,3,-1,-3,-3,-3,-1,-7,-2
83979032281,3,2,2,8,4,5,1,-3
83979047240,-3,-4,-8,-38,-11,-7,-8,-43
83979047240,8,-22,-3,29,-1,-2,-5,-5
83979048057,3,11,5,-12,0,0,0,5
83979048057,-12,2,1,32,4,-1,-1,-11
83979070376,-12,-5,4,3,5,-4,-2,-10
83979070376,16,7,4,-32,-11,-1,-2,18
83979071209,-9,-7,-2,-7,0,-3,-1,-12
83979071209,2,0,5,20,5,1,-3,-8
83979092950,10,5,5,9,0,2,5,-1
83979092950,-2,3,1,-4,-7,-1,3,22
83979094562,-6,8,-2,2,-3,-5,-5,-25
83979094562,7,1,1,-4,7,4,9,46
83979106536,-20,-28,-8,10,2,0,-2,-3
83979106536,-4,-1,4,5,-2,-5,-6,-36
83979115568,-3,-4,-2,8,2,0,1,-1
83979115568,13,8,-4,-8,-7,-3,-5,-3
83979131841,-2,-13,2,1,1,1,1,-1
83979131841,-13,-8,-4,8,7,-2,-1,8
83979133489,3,-1,0,-11,0,0,-1,9
83979133489,1,9,-1,6,-5,0,-5,-9
83979153143,3,11,1,-17,-1,-3,-2,-3
83979153143,-5,-5,-4,-7,-3,0,-1,-9
83979154727,-7,14,-1,4,3,0,3,9
83979154727,-7,-7,1,8,1,-1,-2,-4
83979166555,-6,3,-1,-10,-5,-3,-2,-4
83979166555,-10,-5,-3,-2,3,1,-2,-2
83979175552,6,0,2,1,-1,-3,-3,1
83979175552,-8,-4,-3,-7,-5,0,-2,-4
83979190487,9,9,3,2,-3,-2,1,-7
83979190487,-11,-27,-4,-4,-2,-1,-1,-7
83979192057,8,-7,-2,4,-2,-1,-8,-6
83979192057,-6,-7,0,-5,0,0,7,9
83979212979,23,-2,-1,8,2,2,-1,-2
83979212979,-6,26,0,9,0,-3,-6,-12
83979214769,3,-6,-2,-3,-2,1,1,4
83979214769,-7,-5,-5,-10,-2,0,-2,-3
83979226759,9,7,-1,8,-2,-3,0,7
83979226759,-5,-4,1,-7,-2,0,0,-1
83979235598,-2,-3,-1,6,1,0,0,5
83979235598,1,0,-6,-12,-6,-4,-6,0
83979250485,-6,-21,0,-1,-6,-2,1,5
83979250485,1,-2,-1,10,6,-1,-4,-2
83979252112,-13,-7,-4,-1,-13,-5,-3,-4
83979252112,-8,-4,1,8,2,0,0,-8
83979272961,-1,5,-1,-1,1,-1,1,6
83979272961,-14,-6,-3,-3,-5,-3,-3,15
83979274621,0,5,3,-4,3,3,6,5
83979274621,-5,8,1,-6,-2,-1,-6,-12
83979286700,-8,13,-3,2,-1,0,-1,9
83979286700,13,-21,0,6,4,0,-4,-30
83979295626,11,2,-3,-5,-2,-2,5,27
83979295626,-7,-6,-1,2,0,-1,0,1
83979310646,4,5,1,-1,-1,1,-1,-10
83979310646,-6,4,-1,-15,-4,0,-1,3
83979312115,8,-4,-5,-8,-6,-2,-7,-5
83979312115,-3,-15,-2,7,-3,-3,-1,-2
83979340428,-6,-1,-5,-15,0,-1,-4,-1
83979340428,2,9,0,0,-3,-1,0,3
83979342026,-22,-14,-7,9,0,-3,-3,-9
83979342026,-4,2,0,-2,-1,-2,-3,-6
83979346648,-2,-2,1,-32,0,-1,0,-9
83979346648,-5,7,0,3,-4,-4,-2,14
83979355520,-2,-16,-1,-7,-4,0,2,-7
83979355520,2,-1,-2,-2,1,0,0,-6
83979370446,-1,3,3,17,0,-3,-3,2
83979370446,-15,0,-1,4,-1,-2,-3,-5
83979372042,3,-11,-2,-12,-1,0,1,-9
83979372042,3,3,3,2,0,1,2,5
83979392918,5,2,6,7,3,0,0,-4
83979392918,-19,20,-1,-6,0,0,1,5
83979394770,13,25,-1,-8,-2,-1,-2,8
83979394770,-10,-7,0,-2,4,2,-2,-3
83979406664,-10,-5,-3,23,-2,-2,1,-1
83979406664,24,2,1,-6,-4,-1,-3,-12
83979415546,1,6,1,4,1,-1,1,0
83979415546,6,2,1,-2,1,0,0,4
83979430438,-7,-3,-3,-6,2,2,0,4
83979430438,21,-1,-1,-9,-7,-2,2,-5
83979432029,-6,4,-2,7,0,0,-2,-8
83979432029,5,-11,-1,2,-3,-2,-2,-2
83979452959,-5,-10,-3,-9,0,1,0,-6
83979452959,4,-4,1,6,1,-3,-2,14
83979454556,-4,7,2,-2,-3,0,1,19
83979454556,-2,14,-4,-5,-4,-2,-2,1
83979466533,6,-7,-2,3,-1,1,2,2
83979466533,-8,9,2,0,3,1,0,-1
83979475657,14,1,1,-1,-3,-2,-1,-9
83979475657,-11,7,-1,10,-3,-5,-4,-6
83979490428,-10,2,-3,-12,-1,-1,-5,4
83979490428,20,5,1,11,-1,1,3,2
83979492045,-4,-16,0,0,-2,-1,-3,-8
83979492045,4,18,-5,-6,-2,0,-1,4
83979513099,-3,6,2,2,1,-1,-1,22
83979513099,-5,-4,-1,-3,-5,-2,-2,-4
83979514519,-15,-12,-6,3,-3,-2,-1,-14
83979514519,14,3,3,0,1,-2,1,3
83979535440,-1,7,1,-4,1,-4,0,-5
83979535440,-19,7,1,-1,3,0,-3,-6
83979537115,-4,3,1,-10,-4,-1,2,2
83979537115,-3,3,1,7,1,-1,0,7
83979550489,-8,2,-1,2,0,-1,-4,-44
83979550489,14,-13,1,-5,1,-1,0,-10
83979552152,4,-6,-2,0,1,-1,-3,-21
83979552152,-2,-16,-3,-5,-1,-1,2,26
83979573053,1,3,-1,0,-2,0,-2,-33
83979573053,-1,-7,-2,-1,0,0,4,17
83979574799,-11,3,-1,1,0,0,-3,-2
83979574799,-18,-4,-2,-7,-5,-1,-5,-25
83979586603,-15,-3,-3,0,-1,-1,1,8
83979586603,-4,5,-3,-6,-3,-1,-4,-6
83979595649,8,-17,-7,0,2,-4,-3,8
83979595649,-23,-2,3,-3,2,0,1,-6
83979610608,-2,-36,-8,11,-5,-2,1,-1
83979610608,13,-3,-1,-4,-1,-1,1,11
83979612076,-12,5,-1,3,0,1,-2,-4
83979612076,6,-1,0,-3,-2,-4,-2,-5
83979632941,-4,4,-2,3,0,-1,-7,-8
83979632941,22,4,2,14,5,0,3,-17
83979634545,-5,2,6,-4,0,0,1,-6
83979634545,0,-17,-5,-7,-2,-1,-2,12
83979646564,11,11,2,-5,-2,2,0,4
83979646564,-10,-8,-3,-7,2,0,-2,-1
83979655582,3,4,2,-2,-4,-2,-2,-5
83979655582,13,-13,-2,2,0,-1,1,-10
83979670447,5,4,-1,-10,-2,-1,-3,12
83979670447,-18,5,-2,-4,-1,1,2,4
83979672016,10,-12,0,10,2,0,-2,4
83979672016,-18,-5,-5,-9,-6,-3,1,6
83979693097,-1,15,1,-4,0,-1,-2,-2
83979693097,-13,-31,-3,0,3,-2,-1,-10
83979694643,0,13,1,15,-1,-2,-2,0
83979694643,11,-1,-4,-6,-3,-1,-2,56
83979706583,-5,11,-1,9,-4,-1,-2,-13
83979706583,-13,-5,-12,-17,-10,-5,-5,-29
83979715577,13,22,0,1,1,0,2,12
83979715577,-4,-17,-1,21,2,-1,-5,-26
83979730617,3,-15,-2,-6,3,-2,2,28
83979730617,2,7,4,-4,-2,0,-2,-1
83979732104,-7,-16,-4,1,-4,-2,1,-5
83979732104,4,10,-2,-11,4,0,-2,-9
83979760407,-26,-8,-3,11,-8,-5,-4,-13
83979760407,4,-2,-4,-12,-6,-1,-8,-2
83979762043,-11,15,-2,-13,1,-2,4,4
83979762043,-7,3,1,-10,-3,-1,-4,-27
83979766873,3,6,-7,-3,1,-1,3,7
83979766873,3,-20,1,17,1,-1,-3,6
83979775558,-20,-6,0,-16,-2,-1,-2,0
83979775558,-4,-3,1,16,-1,-2,-2,-12
83979790405,6,-6,1,-1,5,0,0,16
83979790405,4,9,-5,-28,-13,-2,1,9
83979792016,26,2,-1,14,4,-1,-6,-7
83979792016,2,-2,1,-1,-2,-1,-1,-10
83979812906,2,2,-1,-4,-1,0,1,0
83979812906,-22,-3,0,9,2,-1,1,-6
83979814596,-4,-11,-2,-10,-4,-2,0,2
83979814596,6,-2,-2,-7,-3,1,-2,-5
83979826528,7,-3,-2,19,2,-1,-1,6
83979826528,5,-24,0,-1,3,-2,3,5
83979835590,-20,-16,-6,-12,-4,-1,-5,-39
83979835590,3,8,-2,13,-2,-1,0,21
83979850400,-9,-21,-5,-8,-4,-1,-2,-21
83979850400,11,6,3,6,3,0,6,21
83979852028,3,1,-3,0,0,-2,-4,-8
83979852028,2,0,2,-26,-4,-2,-2,-9
83979873193,-2,-6,-4,-10,-4,-1,-1,3
83979873193,-7,11,1,7,6,-1,-3,-9
83979874582,7,-1,-2,1,-6,-1,3,14
83979874582,6,1,-1,11,-1,-1,-1,-3
83979886576,-3,2,2,-8,-1,0,1,11
83979886576,-4,-14,-3,0,1,1,-5,-8
83979895579,-2,0,-1,-7,1,0,-2,-22
83979895579,-7,-9,-1,-2,1,0,1,4
83979910431,20,7,3,3,0,-1,-2,-14
83979910431,-28,-19,-3,2,-4,-1,1,9
83979912119,0,-1,2,5,1,2,0,24
83979912119,-4,-28,-3,-2,1,1,2,-10
83979932868,12,0,0,1,-1,0,-1,-5
83979932868,9,14,-1,-10,-2,-2,-1,-3
83979934492,-2,7,0,9,-4,-3,-1,8
83979934492,8,33,0,-17,-3,0,-2,-4
83979946595,6,-4,0,5,5,0,-2,5
83979946595,14,1,-2,-8,-11,-2,-1,-4
83979955581,-11,-11,-2,6,1,-1,-5,-5
83979955581,-4,6,-3,2,2,0,6,-5
83979970434,-6,-5,-3,2,-6,-2,2,32
83979970434,1,4,-3,-4,-1,-2,-3,-2
83979971999,21,3,0,-10,-1,0,-3,-6
83979971999,-9,-4,0,10,0,-1,0,19
83979993105,-14,-9,-2,11,1,-3,-3,9
83979993105,-2,14,1,-12,-3,0,0,-12
83979994630,-2,-13,0,-2,3,2,6,15
83979994630,2,-23,-4,-7,-8,-3,-6,-11
83980006570,6,5,2,-13,-2,-1,3,2
83980006570,-18,17,-2,9,0,0,-5,-9
83980015584,-9,-3,3,-3,0,-1,-3,-8
83980015584,0,-2,-3,-3,-3,-3,0,-2
83980030678,-18,2,-2,-7,-1,-1,-4,-7
83980030678,-9,-5,-2,0,0,-1,-2,-33
83980032085,10,1,-2,-2,-2,-2,3,11
83980032085,-6,6,-1,8,3,0,-2,0
83980052986,6,14,3,-15,-8,0,0,-5
83980052986,-15,-27,-2,0,0,-4,-5,-9
83980054590,-5,4,-2,-5,-2,-1,-2,3
83980054590,-11,-2,-2,-3,-2,-2,-5,-7
83980066550,2,4,-1,-7,-1,0,4,-4
83980066550,9,2,3,7,0,-1,0,6
83980075586,-8,-2,-3,0,0,0,5,-1
83980075586,-11,-7,-3,3,-2,-3,-3,-5
83980090444,7,-21,-1,-3,-1,-2,-4,-1
83980090444,-4,-13,-3,4,-1,-3,0,5
83980092047,-6,-4,-1,6,1,-1,-4,-22
83980092047,3,5,3,0,0,0,0,15
83980112889,4,11,-1,-3,-4,-1,0,-4
83980112889,6,6,-1,-1,1,-1,-1,12
83980114508,-6,1,0,10,-1,-1,-3,-3
83980114508,0,0,5,-6,1,2,6,-4
83980135398,19,1,-1,-13,-1,0,0,-2
83980135398,2,15,2,12,-3,0,1,10
83980137065,0,-7,-4,-12,-4,-2,-2,3
83980137065,7,7,1,6,1,-1,-3,-11
83980150406,-1,-4,1,5,2,-1,-1,0
83980150406,2,-2,-2,1,-1,1,3,-2
83980152084,-12,5,-3,-11,-3,-2,-9,-44
83980152084,-2,2,-2,-5,-3,0,6,2
83980172903,-6,-7,-1,7,0,-2,1,-7
83980172903,1,-3,0,-9,-3,1,-2,5
83980174515,-13,-5,-2,3,0,-3,-4,0
83980174515,12,-2,-4,-2,0,-3,-3,3
83980195407,-7,-10,-6,-2,-4,-2,-3,-4
83980195407,9,-3,1,-1,0,-2,0,16
83980197032,20,4,2,-10,1,-1,0,12
83980197032,13,-1,-1,11,-1,-2,-4,-4
83980210410,-5,13,0,6,-2,0,1,5
83980210410,1,-29,-2,-6,-1,-1,-4,-5
83980212074,-21,-26,-6,1,-3,-3,1,11
83980212074,0,-1,-3,-22,-1,-1,-2,0
83980232961,2,-1,3,10,-2,-2,-4,-5
83980232961,-3,11,1,-4,0,0,1,23
83980234540,21,5,-2,3,-2,0,3,10
83980234540,-1,0,1,3,1,2,4,-5
83980255448,-11,-10,-2,-7,-2,1,-3,8
83980255448,-4,1,-2,-4,-2,-1,-2,-7
83980257025,-7,-6,0,5,-1,-1,1,9
83980257025,8,17,-5,4,-1,-2,-3,15
83980269791,0,-3,-4,-12,-1,-3,-1,-24
83980269791,4,24,1,9,-1,-3,-2,-2
83980276554,0,2,-1,-6,-3,-2,-1,7
83980276554,-7,-3,-4,3,-4,-2,-2,-8
83980292890,1,6,1,-2,1,0,2,2
83980292890,11,-25,-8,-6,-2,-1,0,-1
83980294520,6,4,-1,1,-1,-1,0,4
83980294520,-6,-5,2,2,2,-2,-2,-5
83980315461,7,4,-3,1,-6,-2,-2,-2
83980315461,-5,-1,-1,-5,0,0,1,-4
83980317055,27,9,4,7,1,1,0,-5
83980317055,-9,-10,-4,-11,-2,0,-3,-11
83980329788,-2,21,-2,-4,0,-3,-5,16
83980329788,-1,-5,3,-2,-1,0,6,-11
83980336575,-5,0,0,2,-2,-3,-3,9
83980336575,-2,1,1,3,-2,-2,-1,-14
83980352947,-1,0,-2,0,0,-1,-3,-6
83980352947,10,5,-1,-6,0,0,-2,-3
83980354527,1,11,-1,-2,-1,0,1,6
83980354527,-4,-7,2,7,-3,-1,-2,6
83980375473,-8,-3,-1,1,0,1,-1,-6
83980375473,4,-23,-3,4,1,-2,-2,-1
83980377083,-8,-8,-2,-8,0,0,0,-7
83980377083,9,2,-2,8,-3,-3,-4,2
83980390028,-3,7,1,-1,0,-1,0,-6
83980390028,-34,6,-8,1,-4,-5,-3,-4
83980396688,11,3,0,5,1,0,-1,8
83980396688,-6,-6,-3,-3,-1,1,2,-1
83980412908,-5,-25,-3,-9,-1,-3,-3,11
83980412908,-6,9,-1,8,1,0,1,7
83980414512,-31,-23,-6,-6,-7,-4,-1,8
83980414512,13,7,3,-1,-2,-1,0,2
83980435695,-4,-8,-4,-5,-1,0,1,-2
83980435695,1,10,1,-2,1,0,-2,-4
83980437056,-6,12,0,7,0,-2,0,-10
83980437056,-1,5,-2,-15,-1,-1,3,6
83980449806,7,-6,-6,-8,-4,-1,-2,-5
83980449806,-15,-11,0,5,-2,-1,-2,7
83980456676,0,2,-2,-1,0,-1,-5,-4
83980456676,-10,-1,-2,-2,-2,-1,-4,-8
83980472963,-2,1,0,4,0,-1,2,9
83980472963,13,10,-2,-6,-2,-1,-5,-43
83980474603,6,6,5,-2,2,0,3,4
83980474603,8,-5,-1,-2,-1,-2,-3,0
83980495461,-9,-8,-2,-2,-1,1,-2,-4
83980495461,8,5,1,-2,-1,-2,1,-2
83980497187,-6,-2,-2,-4,-1,-1,-5,-3
83980497187,1,-8,-3,0,0,0,5,3
83980509850,1,1,0,0,2,0,0,-6
83980509850,-5,-15,-3,-6,-7,-3,-2,5
83980516731,-1,0,1,-4,-2,0,1,-4
83980516731,0,2,2,-8,-1,-1,-3,-4
83980532900,-3,-7,-1,14,-2,-2,2,14
83980532900,-3,4,-1,-8,-1,0,0,5
83980534529,-9,10,-2,0,1,-1,4,-5
83980534529,10,-12,-2,-1,-2,0,-3,10
83980554604,-6,5,2,5,2,0,1,-14
83980554604,23,12,3,2,1,0,-2,3
83980563068,-2,6,-2,-6,0,-1,-4,-6
83980563068,0,0,-4,-5,-4,-1,4,11
83980570023,-17,-8,-4,-12,-3,-3,-4,-8
83980570023,2,-1,-2,8,0,0,1,15
83980576805,0,-13,-3,0,-3,-3,-4,-29
83980576805,-1,3,-4,-2,-1,-2,0,14
83980592921,-1,6,1,-2,0,1,-1,11
83980592921,-1,-11,-2,-4,-2,-1,-1,1
83980594512,-9,-6,-1,-6,-1,0,3,-6
83980594512,1,-25,-2,12,-1,-1,-6,-14
83980615401,5,6,-5,-4,-2,-1,2,3
83980615401,-2,-3,0,0,1,-1,-2,1
83980616946,3,-3,-1,0,-2,-2,-3,18
83980616946,4,8,3,-2,0,1,2,-11
83980629131,7,-3,0,-1,-2,1,4,0
83980629131,-3,1,-1,-7,-3,0,-1,-3
83980638090,-2,-5,-2,14,-2,-4,0,1
83980638090,-1,2,0,2,3,-2,-4,-7
83980652947,-3,0,1,0,1,0,-1,-8
83980652947,8,7,2,-4,1,0,0,7
83980654779,22,-6,-1,-7,-4,-1,-4,-5
83980654779,-29,-5,-3,2,0,-3,-2,-16
83980675585,-1,-4,2,6,-2,-1,-1,4
83980675585,-9,-5,-2,-1,0,-2,-1,-3
83980677070,-2,6,-2,-10,-2,-2,1,8
83980677070,-21,-4,-4,0,-4,-1,-3,-8
83980689240,1,-5,-3,-8,-2,-2,-4,-10
83980689240,-14,-5,-5,-2,-2,-1,-3,-18
83980698071,-7,-4,-4,-1,0,1,-1,22
83980698071,0,-2,1,-4,1,-1,-3,0
83980712937,7,0,-2,7,0,-1,-3,-8
83980712937,-5,7,5,2,-2,-2,-4,5
83980714553,0,1,-4,-8,0,0,4,-2
83980714553,-1,29,0,-4,-2,0,-3,2
83980735418,-10,-4,0,6,1,-1,-2,2
83980735418,5,19,2,3,0,0,-4,-11
83980737035,-10,-4,0,2,-1,0,-2,7
83980737035,1,7,2,6,-1,0,-2,-1
83980749106,13,-2,-3,-4,-1,-1,-4,-5
83980749106,-7,0,-1,3,0,0,-2,-7
83980765579,-4,1,-1,-15,-4,-1,-1,-11
83980765579,2,-9,-1,-1,-2,0,1,6
83980772901,6,1,0,-3,-2,-1,-1,15
83980772901,-2,-13,-3,1,1,-2,4,0
83980774514,4,10,4,12,1,-1,-2,-6
83980774514,13,-3,-3,-13,-4,-3,0,3
83980795522,-16,-6,-2,7,-1,-2,-1,-6
83980795522,1,1,-2,2,0,-1,1,3
83980797091,3,-8,-3,-1,1,-2,-1,-6
83980797091,-2,1,1,-3,-1,0,0,12
83980809087,1,1,2,-6,-2,-1,0,-2
83980809087,-4,-10,-4,0,-1,-1,-2,4
83980818081,5,3,3,5,1,-1,-2,-3
83980818081,1,-14,-4,-7,-2,-2,0,-4
83980833025,-10,-19,-2,-7,-2,-1,-1,0
83980833025,1,4,4,1,0,0,-1,6
83980834619,2,1,-1,-10,-3,-3,-2,-8
83980834619,3,-5,-5,12,0,-3,-4,6
83980855452,-4,8,-1,-3,-2,2,3,-11
83980855452,-2,-3,-3,-8,-2,-2,1,-30
83980857068,5,-3,1,11,2,-1,0,21
83980857068,-7,6,2,-10,-4,-3,1,-5
83980869270,-8,-1,-1,0,-1,-1,-3,15
83980869270,-5,-7,-6,-1,-2,-4,-3,-3
83980878109,3,-3,-1,-3,-1,1,1,-7
83980878109,-5,-5,2,7,1,0,-2,1
83980892931,15,0,-1,1,-1,-2,0,-2
83980892931,-1,-1,-2,-13,-4,-3,0,7
83980894528,-6,15,-1,1,0,-1,-3,-5
83980894528,0,3,0,3,3,1,-1,-1
83980915393,11,-10,-1,-2,0,-2,-1,-3
83980915393,7,7,0,-5,-1,1,2,16
83980917003,-5,2,-2,-3,-4,-1,0,-8
83980917003,-19,0,0,0,-3,-2,-7,-10
83980929048,19,3,-2,7,0,-1,-3,-5
83980929048,-2,-5,0,-4,-3,-1,3,7
83980938079,8,-8,-2,-1,0,-1,-2,-7
83980938079,-8,2,-2,2,1,-1,-1,5
83980952925,-20,9,-4,-4,-1,-3,0,7
83980952925,3,-3,0,-4,-3,0,-3,1
83980954520,-1,-4,-1,4,-2,-1,-2,-3
83980954520,4,-2,0,0,1,1,0,-6
83980975533,-2,-12,-1,-5,-2,-1,-2,-10
83980975533,-2,6,-1,-1,-2,-2,-1,-3
83980977119,-8,-33,-4,-2,-4,-2,-3,-7
83980977119,5,-7,4,-4,-3,-1,2,2
83980989302,6,7,-4,-4,-1,1,-7,-13
83980989302,7,-13,-5,5,-1,-2,-2,20
83980998081,-4,-3,1,4,0,1,2,-5
83980998081,-1,3,-1,-1,0,1,-3,-7
83981013502,-28,-20,-4,-7,-3,0,-2,-13
83981013502,-1,8,2,-1,-3,-1,-1,0
83981015146,-7,5,-1,0,-2,-2,-1,2
83981015146,13,4,0,-9,-1,-2,1,0
83981035415,11,11,0,1,0,0,0,1
83981035415,-11,-9,-1,3,2,-2,-4,-8
83981037120,-5,-12,-1,-5,-1,-2,-2,7
83981037120,3,-24,0,5,-1,-3,1,-4
83981058324,-2,2,0,-1,-1,-1,-1,-1
83981058324,-4,-2,1,3,1,-1,1,-3
83981059592,-1,10,-5,-11,-4,-2,0,-1
83981059592,-10,2,-2,4,-2,-1,-8,-6
83981073191,12,6,-1,-7,-3,-3,1,-40
83981073191,0,7,1,23,0,1,3,18
83981074526,8,3,0,-6,0,2,-1,0
83981074526,-12,-2,-5,-11,-2,0,-3,-8
83981095409,6,3,2,5,-1,-1,0,3
83981095409,4,0,0,-6,-4,-1,-3,-7
83981097033,-12,-12,-4,-8,-2,-2,-1,0
83981097033,-17,2,0,0,0,-2,0,-2
83981118120,-15,-12,-2,-8,-1,1,-4,7
83981118120,-5,-1,-1,2,1,-1,-1,-3
83981119577,-8,1,-1,4,-1,-1,-2,9
83981119577,4,-5,-1,7,1,-1,3,-2
83981132966,-1,1,-4,-7,-2,-1,1,9
83981132966,-4,-3,-1,-8,0,0,-2,-5
83981134474,0,2,1,5,-3,-2,-3,-10
83981134474,4,8,1,-7,2,0,-1,-1
83981155464,12,0,1,7,-2,-3,1,13
83981155464,-5,-29,-4,-5,-2,-1,-9,-8
83981157110,11,3,2,-1,0,-1,8,7
83981157110,-4,4,1,5,-2,0,-1,2
83981177955,-5,-4,2,2,1,-1,1,0
83981177955,-2,-15,-4,-8,0,0,-1,-12
83981179509,10,2,-4,-8,-3,0,-1,7
83981179509,-4,-7,-4,3,-4,-1,1,-2
83981192509,4,7,0,5,3,-1,-1,13
83981192509,-10,7,0,0,-1,0,-4,-5
83981199309,0,4,2,2,-1,-1,-2,-11
83981199309,9,-7,-3,-5,0,-1,1,2
83981215439,-3,2,-2,3,-2,0,-3,8
83981215439,18,-16,0,-3,-1,-2,4,1
83981217040,-7,-5,1,5,1,-1,-1,-1
83981217040,-4,-6,-5,-15,-2,-1,-2,-1
83981237962,13,-6,-1,3,0,-2,-4,-1
83981237962,2,13,2,-1,-2,-1,-2,-3
83981239594,1,-1,-1,-1,-1,0,-8,-4
83981239594,12,2,-2,-4,-2,-3,5,0
