timestamp,emg1,emg2,emg3,emg4,emg5,emg6,emg7,emg8
82015617067,-3,0,-1,11,6,1,-2,-2
82015617067,0,1,3,25,1,0,0,1
82015617901,0,-1,-2,-24,-3,-4,0,0
82015617901,2,0,2,18,2,-2,-3,-3
82015640314,0,-5,1,-6,-1,-2,-1,2
82015640314,-6,-3,-3,-6,-3,-2,-1,-3
82015641051,-2,-5,-2,19,-2,-2,-8,-10
82015641051,4,1,-1,-17,-3,1,5,17
82015654551,2,2,-1,5,-1,-2,-2,-2
82015654551,14,16,2,-6,-1,0,-4,5
82015655326,-8,-3,-2,2,-2,0,4,0
82015655326,8,14,1,-5,0,1,-4,-5
82015677031,1,-5,2,20,9,1,-3,-1
82015677031,1,3,-5,-27,-13,0,4,9
82015677826,-7,-2,-1,14,0,-3,1,4
82015677826,12,8,5,-4,4,0,-2,-4
82015700278,1,-4,-5,12,-8,-1,1,1
82015700278,7,9,4,23,6,-1,-4,-9
82015701005,-10,-2,0,9,-2,1,-1,0
82015701005,-9,-9,-3,1,-4,-2,-4,-4
82015714545,-12,-16,3,2,7,-2,0,-2
82015714545,6,-6,-6,-27,-9,-4,-2,-1
82015715392,2,-3,0,17,-1,-2,-2,-2
82015715392,1,0,-1,1,3,-2,-4,2
82015737040,-4,-2,-9,-25,-10,-4,-4,-10
82015737040,-11,2,0,47,7,-1,0,1
82015737873,3,-9,-2,-37,-11,-2,-3,-3
82015737873,-19,-22,-1,7,0,-1,-6,-8
82015760271,13,1,-3,7,-4,0,2,7
82015760271,-11,0,1,5,4,0,-2,-8
82015761076,-1,-3,1,5,-1,1,3,4
82015761076,-3,-3,-2,0,-3,-1,-3,-7
82015774526,1,-1,-5,-10,-3,-2,-1,5
82015774526,10,-4,3,10,5,1,-1,-6
82015775333,1,10,4,12,5,-1,-6,-7
82015775333,1,-2,-10,4,-8,-3,1,4
82015797045,-9,-12,-2,-3,1,-1,-1,-3
82015797045,-6,-6,-2,-10,-2,0,-1,-2
82015797870,1,-8,-6,-12,-1,0,-4,-2
82015797870,0,-13,-3,-11,-3,-1,0,-2
82015820271,-5,2,-3,-24,-6,-2,-5,0
82015820271,-1,-17,-5,2,2,0,1,0
82015821050,16,9,4,-25,-3,-1,3,3
82015821050,-15,-5,-2,-13,-5,-3,-4,-2
82015834564,-7,7,5,43,4,1,2,1
82015834564,18,4,2,-33,-4,-1,-2,-1
82015835413,-1,4,1,33,3,-1,1,2
82015835413,-1,1,-2,-16,6,2,-1,-8
82015857125,-1,4,0,-32,-8,-2,-2,-4
82015857125,-9,2,-2,-6,-1,-2,0,2
82015857913,1,19,-1,6,1,-1,-2,-5
82015857913,-1,2,2,17,0,0,0,2
82015880318,-3,-4,-5,2,0,-3,-1,-1
82015880318,-4,-5,-2,-2,-2,-1,-3,-3
82015881073,-11,-4,-2,7,4,-1,-2,1
82015881073,-1,-1,0,-17,-13,-1,0,-2
82015894521,0,1,0,16,3,0,-3,-1
82015894521,-3,5,0,14,2,-2,-1,-1
82015895338,10,-1,4,-45,-10,-1,0,4
82015895338,-4,-2,-4,7,2,-2,0,-3
82015917025,8,1,2,10,2,0,1,1
82015917025,-4,3,1,-3,2,-2,-2,1
82015917847,-5,-8,-7,20,-2,-2,-3,-2
82015917847,4,0,1,5,-1,0,-1,-2
82015940267,-7,-18,-2,6,6,0,0,-4
82015940267,15,9,-2,-45,-16,-1,-2,-1
82015941058,-8,-21,-4,1,0,-1,-2,1
82015941058,12,7,3,1,0,0,1,1
82015954602,-7,-22,-4,-3,-1,-1,-1,-2
82015954602,-13,12,6,16,6,0,2,2
82015955412,-5,4,-1,-6,-2,-1,-1,-3
82015955412,-9,-3,-1,10,-1,-2,2,-1
82015977084,13,8,4,-8,-2,1,-1,-2
82015977084,-16,-15,-5,-10,-5,-2,0,-4
82015977869,1,5,-1,3,-2,-3,-1,-2
82015977869,-10,-2,-2,2,2,-1,-1,-1
82016000215,0,7,-1,-4,-1,-1,-3,-1
82016000215,-5,-1,-2,0,0,0,-2,-2
82016001020,-1,-11,-3,3,1,0,-1,-2
82016001020,6,5,2,20,6,1,0,2
82016014574,-7,1,0,-18,-12,-2,0,1
82016014574,5,2,-4,-5,-2,0,0,0
82016015359,2,4,-4,-1,-2,-2,-1,-3
82016015359,-10,-2,-1,-9,1,0,0,1
82016037076,10,4,-1,6,0,-2,-1,2
82016037076,-5,-37,-4,-4,0,-2,-3,-1
82016038796,-4,4,0,-2,0,0,1,0
82016038796,11,5,1,-4,-3,-1,-1,-5
82016061086,0,4,-2,-12,-1,-1,0,0
82016061086,-2,1,2,16,-1,0,-1,-2
82016062872,-2,14,-1,-14,-4,-1,0,-1
82016062872,1,-1,0,8,0,-1,-1,-4
82016074586,-23,4,-4,-10,0,-3,-1,-3
82016074586,0,0,-3,12,1,-2,-2,-2
82016075379,-1,-2,0,-2,-1,1,-1,-1
82016075379,-7,-4,1,19,4,1,-1,0
82016097148,1,-1,-6,-16,-10,-3,-3,-2
82016097148,-7,-3,0,-11,0,-2,-2,-1
82016097869,-1,1,-1,0,-3,-2,-2,0
82016097869,5,-2,-3,-16,-3,-4,0,1
82016120264,-7,-8,4,30,5,0,1,-1
82016120264,-11,-4,-6,-34,-6,-1,-2,-2
82016121016,3,-3,-1,4,-1,-3,-1,0
82016121016,-4,7,-2,-3,-2,0,-1,-2
82016134611,3,4,1,-9,-1,0,-1,1
82016134611,4,10,4,15,1,2,0,1
82016135374,5,-8,-4,6,1,-1,0,0
82016135374,-16,-6,-4,4,-4,-2,-2,-3
82016157062,3,1,1,-29,2,-1,0,0
82016157062,2,0,-4,26,-4,-2,0,-1
82016157861,11,12,1,0,1,-1,-2,0
82016157861,21,-17,2,-13,0,1,-1,2
82016180277,1,-5,-5,19,-4,1,0,0
82016180277,2,5,3,-2,5,0,1,-1
82016181085,-4,-2,6,26,8,1,1,-1
82016181085,-2,0,-7,-12,1,-3,-2,-1
82016194578,1,7,3,-20,-7,-3,-2,-2
82016194578,3,-3,-6,2,-6,-6,-3,-3
82016195425,-4,-3,-1,23,2,-2,0,-2
82016195425,-5,-1,1,-21,4,3,-1,0
82016225289,12,8,1,23,15,-2,-3,0
82016225289,0,6,2,17,-1,-3,-2,-1
82016226069,-5,-5,1,14,8,1,1,-3
82016226069,-5,3,1,-1,-11,-2,0,1
82016240321,1,-4,0,4,1,-1,0,1
82016240321,-4,-6,-5,16,-5,-5,-1,-3
82016241058,0,0,-1,-59,-17,-6,-4,-2
82016241058,-3,-25,-4,27,17,6,0,3
82016254543,-2,2,-4,5,-5,5,2,1
82016254543,0,-3,1,12,9,1,-3,-3
82016255338,-3,-2,-3,-45,-11,-2,3,1
82016255338,-8,4,-2,-4,-15,-5,0,-2
82016277060,3,-2,-3,17,3,-13,-2,1
82016277060,7,-3,4,24,8,9,-2,-1
82016277827,-4,6,-1,10,8,6,-1,14
82016277827,14,22,1,-41,-7,-5,3,8
82016299592,-12,-31,-2,11,4,10,-6,-50
82016299592,-2,13,-2,-32,-13,-11,8,77
82016300355,22,13,4,28,4,-1,-6,-26
82016300355,-16,-1,-3,-45,-18,-8,0,11
82016314514,0,5,2,9,7,7,-1,0
82016314514,-20,-4,-9,-53,-7,2,0,-31
82016315295,2,-2,0,-27,-6,-2,-9,0
82016315295,2,-2,-3,40,8,-8,0,2
82016337052,-1,4,0,-8,-8,-15,-9,1
82016337052,-3,-5,0,-47,-14,13,4,-5
82016337868,5,-5,0,-9,18,9,-3,12
82016337868,5,-4,-5,-15,9,12,3,-17
82016359594,-11,-4,2,19,-1,2,1,1
82016359594,3,-22,-11,-37,-15,-16,-4,2
82016360378,-7,-1,0,20,8,-16,-4,-1
82016360378,0,1,0,22,-11,-7,4,8
82016373935,-5,-7,-7,-65,-18,-4,2,-1
82016373935,-4,1,3,-6,-11,7,2,-8
82016382071,-1,-2,-4,-14,6,-11,0,2
82016382071,-6,-3,-2,10,25,26,7,-6
82016397350,10,8,-2,11,-3,4,-13,5
82016397350,-14,6,0,31,6,-3,6,-28
82016397950,-2,-8,-4,-8,-11,30,11,2
82016397950,3,3,5,53,14,-17,-5,-10
82016419775,6,0,-12,-93,-24,-10,17,15
82016419775,-6,-5,-3,34,4,24,-13,5
82016420468,-11,-5,-3,-11,-21,-87,-18,-25
82016420468,-7,-1,-3,5,-12,32,-7,-14
82016433969,2,3,6,36,15,-24,4,18
82016433969,8,2,3,19,21,24,20,1
82016442104,-2,-3,-4,11,-10,32,-11,0
82016442104,-2,-19,-2,-11,-17,-62,-32,0
82016457360,-5,2,-3,-35,-25,-10,6,-17
82016457360,1,1,-1,30,30,65,33,-11
82016457912,-2,-5,4,9,-18,-64,-10,11
82016457912,6,6,-2,-14,24,31,-8,-2
82016479600,-3,-5,-1,30,-1,17,-1,1
82016479600,1,0,6,-8,-2,-19,-14,-1
82016480419,-7,0,-14,-38,-13,-7,-8,-13
82016480419,-10,-3,-1,-15,-26,-11,7,-13
82016493914,3,1,3,-3,29,46,17,38
82016493914,6,0,-2,2,-6,-30,-15,15
82016502289,-12,-5,2,35,10,-5,-11,-11
82016502289,6,0,-4,-40,-8,1,14,43
82016517296,4,2,3,22,12,-8,3,-10
82016517296,1,0,3,-4,-31,-14,-4,-9
82016517905,1,-20,-5,40,1,14,15,4
82016517905,0,5,3,-15,0,15,-6,11
82016541091,-2,3,9,41,50,41,3,8
82016541091,2,-4,0,-37,-22,-34,-17,-12
82016541820,-2,0,-11,-7,-5,-14,-6,-14
82016541820,-6,-1,-3,-9,-19,-5,-3,-18
82016554011,-3,-8,-3,-2,-15,-2,11,-8
82016554011,9,9,5,-1,45,-11,17,22
82016562185,2,5,12,22,-21,41,10,15
82016562185,-5,-3,-11,-10,-18,-34,-26,-27
82016577247,-1,4,-2,-15,-33,-36,-32,7
82016577247,-5,-6,-4,5,22,13,19,-29
82016577880,-5,3,5,6,20,41,24,17
82016577880,3,-3,-2,4,8,4,12,9
82016599801,1,11,1,23,-6,-30,-22,-14
82016599801,-3,-8,-10,-15,-20,-6,-17,-19
82016600403,-2,1,-1,-12,26,18,15,23
82016600403,0,4,3,4,-3,-8,-17,-11
82016613963,-6,-5,-11,-39,-33,-14,-1,-8
82016613963,3,2,6,0,11,10,9,9
82016622300,2,4,2,-7,-10,29,7,-15
82016622300,4,0,5,10,16,0,0,30
82016637277,-4,-6,-2,39,17,-7,16,-4
82016637277,-19,-2,-6,-59,-17,-20,-41,-96
82016637990,5,-2,-4,13,-2,-17,-6,71
82016637990,-2,-2,-3,-8,-23,13,16,-8
82016659588,-16,-5,-1,38,28,14,-1,-13
82016659588,9,0,-2,28,-7,-12,-6,25
82016660357,-6,-19,2,-35,17,-3,-5,-24
82016660357,2,-2,-1,2,-20,11,16,9
82016682758,0,-5,-12,-45,-15,0,-1,13
82016682758,-2,0,8,50,13,-13,-9,1
82016683557,-3,4,-3,6,-7,7,-2,-16
82016683557,4,4,3,25,11,3,1,22
82016697072,-2,-9,-8,-23,-40,-2,-9,-5
82016697072,-2,-6,-12,-18,-3,-9,11,26
82016697887,9,-4,-1,43,19,-9,-1,1
82016697887,2,5,6,2,3,2,0,-6
82016719573,3,4,-7,-17,-10,-1,-8,-2
82016719573,9,22,1,-54,-11,4,2,21
82016720348,-8,-8,-6,39,6,2,-6,-31
82016720348,-5,-3,5,11,14,-14,-14,-26
82016742814,8,7,1,-8,19,2,8,12
82016742814,4,-7,-5,32,-13,6,8,27
82016743517,-3,2,3,-30,8,-4,-4,-9
82016743517,-2,0,-4,-20,-21,-4,-4,-20
82016757058,-2,-1,7,5,-6,-7,-8,-9
82016757058,-3,-2,-3,20,18,9,-5,-6
82016757845,-6,4,-4,-67,-40,-18,-9,-10
82016757845,-7,-14,-12,74,21,2,3,-6
82016779543,4,4,2,-22,25,21,13,13
82016779543,5,12,6,-43,-16,3,7,7
82016780352,-5,-2,-18,1,-20,-10,-10,-9
82016780352,-6,4,0,5,-2,-8,-1,-11
82016802866,-15,-7,0,13,21,-1,0,3
82016802866,-1,-1,0,-9,-19,-1,-10,-8
82016803597,0,1,7,38,11,0,1,-16
82016803597,-5,2,-2,-48,3,-2,2,17
82016816926,3,-4,2,14,-13,3,-3,53
82016816926,0,-6,6,8,6,0,5,7
82016824609,3,5,7,10,24,6,4,-3
82016824609,2,-6,-5,21,3,-3,-1,8
82016839817,-2,-1,-1,-10,-27,-14,-13,-27
82016839817,-4,-5,-2,18,5,-10,-18,4
82016840468,3,5,1,-23,-31,2,14,16
82016840468,4,-13,-2,-24,4,3,2,-7
82016862919,2,3,0,-20,-7,1,-3,-18
82016862919,-7,-3,0,26,-2,-10,-11,-7
82016863559,-4,0,-9,26,27,0,0,-5
82016863559,1,2,4,-44,-33,-2,0,9
82016877315,1,3,5,3,-2,-7,-8,-14
82016877315,-4,-10,4,59,15,-2,0,-9
82016877916,-5,-3,-2,-5,-15,4,-1,0
82016877916,-1,0,-10,7,4,-3,-1,5
82016899779,3,-3,-2,-8,17,7,8,-6
82016899779,-3,1,0,-27,-7,2,3,-4
82016900425,-2,-3,0,8,0,-3,-4,-17
82016900425,-1,1,0,-4,21,8,0,-13
82016923004,-2,-2,-4,-18,-10,-2,-1,0
82016923004,-7,-3,-3,2,-4,-13,-24,-6
82016923660,9,0,-3,-34,-2,9,22,28
82016923660,1,14,4,-11,5,4,-3,-9
82016937230,0,-3,-1,39,2,-3,-2,-1
82016937230,-4,-2,-5,-17,2,-4,1,3
82016937887,1,0,3,6,16,10,-6,1
82016937887,-1,3,4,-15,-24,-9,1,8
82016959803,3,0,0,18,7,4,5,1
82016959803,3,-2,-2,9,6,-1,4,1
82016960477,-1,2,-1,4,-16,-4,-6,-2
82016960477,-4,0,6,-55,-1,-3,1,-14
82016982836,-3,-7,1,0,-13,-7,-4,-6
82016982836,1,-7,-10,2,16,8,6,7
82016983581,-4,-3,-2,9,-5,-8,-4,-12
82016983581,-3,-4,-2,18,6,4,-4,-7
82016997280,0,3,-5,-11,0,-1,-6,6
82016997280,-2,8,2,-15,-15,-1,1,-8
82016997917,-4,-2,1,-18,14,4,2,4
82016997917,-7,3,-4,43,-1,-5,-3,-3
82017019551,-4,-1,2,-9,3,-2,-2,-7
82017019551,-1,3,-3,-2,-9,-1,-3,-8
82017020339,0,-6,3,-17,-10,-2,-6,0
82017020339,-1,-8,-10,45,5,-4,-3,0
82017042824,-1,2,0,-20,-2,-4,-4,-5
82017042824,2,1,12,5,-8,-4,-3,6
82017044502,-6,14,3,26,0,-4,-8,-13
82017044502,5,-15,15,-87,-13,-1,4,0
82017057140,15,-22,-10,63,15,6,7,6
82017057140,6,0,15,43,9,10,8,20
82017057859,26,21,19,-37,-15,-14,-19,-12
82017057859,-9,1,9,107,10,4,-1,-93
82017079603,1,10,5,48,20,15,20,26
82017079603,10,-22,-8,-31,-11,-5,0,14
82017080433,23,2,-4,0,9,2,1,5
82017080433,-49,-13,-2,-3,2,-4,-14,-19
82017102761,9,20,-7,-57,-17,-12,-14,7
82017102761,-50,-18,-22,18,18,11,8,-52
82017103566,83,23,8,-16,-2,7,11,28
82017103566,-25,-12,-6,-20,-3,-1,10,32
82017117184,-4,-11,-5,4,-5,-8,-12,-46
82017117184,-13,-5,-21,19,-9,-6,1,104
82017117942,-10,-5,6,-32,-15,-3,1,-23
82017117942,-33,-9,0,-18,-3,-2,2,16
82017148008,-7,3,9,23,7,3,-7,-14
82017148008,13,6,-6,-17,2,-5,-14,-78
82017148572,-24,-26,-8,-14,-6,-1,5,55
82017148572,28,22,-2,28,24,5,-11,-2
82017162981,-12,9,-9,-2,-14,-7,4,-8
82017162981,-17,-6,4,-3,0,-2,-1,13
82017163620,-4,13,2,-26,-17,-4,4,7
82017163620,51,-5,-25,-38,-24,-20,1,26
82017177132,-2,8,3,69,29,14,-20,-17
82017177132,10,-2,-13,-81,-17,7,22,9
82017177956,-25,9,2,49,13,12,1,-43
82017177956,38,-1,20,50,-8,0,16,32
82017199682,0,-14,-18,-76,-19,-38,-9,-29
82017199682,25,10,9,60,3,-12,-21,26
82017200416,-27,-25,-19,-37,-11,-6,-7,-18
82017200416,-9,5,-7,31,20,38,3,-10
82017222998,0,-6,0,31,11,12,29,15
82017222998,1,7,23,-8,4,4,-4,-20
82017223593,-6,-9,-19,37,-17,-40,-5,8
82017223593,-7,1,-6,-6,4,-4,-14,1
82017237235,13,13,16,-72,-17,20,-5,6
82017237235,16,9,9,-38,9,-1,4,-2
82017237900,-13,-9,6,19,19,23,2,5
82017237900,-8,-7,-19,20,-13,-21,-5,-14
82017259765,-15,-12,27,-84,-30,-13,0,-8
82017259765,-25,-2,-1,49,-8,-12,-6,3
82017260361,-25,-19,-16,-21,-29,-16,-10,-27
82017260361,22,12,4,19,12,-7,-5,-2
82017282770,0,7,-4,38,10,6,3,24
82017282770,3,-14,-15,-27,-6,3,0,-4
82017283559,10,0,9,-1,10,10,7,9
82017283559,-13,10,7,14,2,2,0,-3
82017297145,-9,-4,-9,-12,-9,-2,-1,3
82017297145,35,23,1,34,1,-3,-3,-15
82017297937,-3,11,0,31,14,5,-2,-3
82017297937,-21,-10,6,-29,-5,1,1,6
82017319780,1,0,-8,17,0,-8,-6,0
82017319780,-9,-5,-4,-9,-5,0,-1,-6
82017320448,-2,0,-1,3,2,2,-4,0
82017320448,13,-1,-6,-21,-6,-3,-2,-4
82017343037,10,4,5,17,7,-1,0,0
82017343037,-10,-1,2,14,1,0,-1,-13
82017343617,-17,-11,-4,2,-1,0,-3,1
82017343617,6,6,3,-14,-6,-3,-1,-5
82017356652,-11,-9,-4,23,6,-2,0,-1
82017356652,-5,-6,-4,-32,-12,-2,0,0
82017364835,0,2,0,2,3,-4,-5,-8
82017364835,0,-1,1,-4,3,0,0,3
82017379696,-2,-2,-1,17,4,1,-2,-1
82017379696,-1,3,-5,-23,-7,-4,-1,-7
82017380420,5,-2,-2,-22,-5,0,1,1
82017380420,-2,-3,2,3,6,2,-5,4
82017402784,0,-4,2,-3,-7,0,0,1
82017402784,-1,-2,2,23,5,-1,3,-2
82017403573,-14,-13,-4,12,4,3,-4,-3
82017403573,-3,0,0,2,-3,0,1,2
82017416646,8,-4,-8,5,-2,-4,-5,-6
82017416646,1,3,3,-8,-3,-1,0,-2
82017424855,-1,-2,-2,2,-1,-4,1,1
82017424855,-2,-2,-2,5,0,-2,0,-2
82017439807,1,-2,0,16,2,0,-3,-1
82017439807,0,0,-1,-21,-9,-2,-1,-3
82017440486,-4,3,-5,6,2,2,-1,4
82017440486,18,11,7,-9,2,-1,-1,-1
82017464336,-2,-3,-7,-20,-5,-3,0,-2
82017464336,-13,-10,1,18,5,2,-1,-2
82017467217,-5,1,1,2,-8,0,-3,-4
82017467217,-8,-5,-4,-14,-2,-4,3,1
82017477706,-5,1,-2,-38,-15,-6,-2,0
82017477706,8,11,1,9,9,4,-1,-1
82017484570,6,-8,-1,18,-4,-2,1,0
82017484570,-7,-4,-2,-3,-1,-5,-1,-3
82017499780,-5,-2,0,20,4,9,2,-1
82017499780,0,2,-1,-11,3,5,-4,-1
82017500388,1,1,0,-4,0,-12,-3,-2
82017500388,-3,0,-5,-5,-2,7,1,3
82017522765,-16,-11,0,18,1,-8,-2,-4
82017522765,-32,-18,-10,-42,-19,-7,-3,-6
82017523540,1,2,-1,2,3,0,-4,-6
82017523540,-7,-6,-1,6,-3,-4,0,2
82017536406,4,6,-1,4,2,3,0,-3
82017536406,2,-1,0,4,0,0,0,2
82017544664,1,-3,-3,5,1,-1,-2,-1
82017544664,-6,-2,-3,-12,-3,-3,-2,-3
82017559672,-2,-4,-1,-1,0,1,-1,-1
82017559672,6,0,0,4,-1,-2,1,0
82017560420,13,8,3,0,-2,-2,1,0
82017560420,4,-4,-6,13,-2,-3,-9,-4
82017582962,-2,1,1,5,6,-4,1,1
82017582962,3,1,1,2,0,4,4,1
82017584495,-6,-2,-6,-44,-14,-2,4,-4
82017584495,-3,-5,-1,18,5,-1,0,1
82017596658,0,-2,0,1,-3,-14,-8,-3
82017596658,-2,-2,-2,-1,0,5,-3,-3
82017605412,-1,-1,1,-3,4,7,0,0
82017605412,1,0,0,-11,-3,-5,1,-3
82017619194,-9,-6,-4,1,-1,2,2,0
82017619194,6,2,0,10,1,-9,-5,-7
82017628016,0,0,0,5,2,10,2,6
82017628016,-4,-1,0,-9,-4,-10,-6,-5
82017642978,4,2,0,6,1,2,0,2
82017642978,10,-3,-2,0,-6,0,-1,-2
82017644455,-1,3,-1,0,-2,-3,-5,0
82017644455,-3,0,0,3,-3,4,3,-2
82017665351,0,-2,-2,-17,-2,-2,-4,-1
82017665351,3,2,-1,-2,-1,-7,0,2
82017666917,-5,-12,2,16,12,1,2,-2
82017666917,-4,-2,-4,-1,-17,4,-1,1
82017678933,-2,-1,-1,5,-3,-2,-1,-3
82017678933,-5,-3,-2,15,3,3,1,1
82017687953,-1,1,-1,-19,-2,-3,-5,-4
82017687953,1,0,1,-6,0,-2,1,2
82017702866,-2,-4,-1,0,-2,6,-1,1
82017702866,-2,-1,-2,6,-4,-4,0,3
82017704485,-1,3,0,-7,0,-6,-1,-3
82017704485,4,0,-3,-17,-1,2,2,-1
82017725322,2,3,-2,-8,-4,-1,-2,-1
82017725322,-1,-4,0,26,2,-6,0,-1
82017726865,-6,1,-4,2,-2,2,-1,-2
82017726865,1,0,2,-1,0,6,1,-1
82017738874,-1,-4,-3,1,-1,-9,2,2
82017738874,-2,5,-2,-17,-2,-3,-9,-3
82017747904,-2,-3,-2,10,-5,-9,-2,0
82017747904,-6,-3,-3,-12,-2,1,-3,-1
82017762793,1,1,-2,-5,2,11,3,-1
82017762793,0,-2,1,-2,0,1,2,0
82017764429,2,0,-3,-12,-1,11,0,1
82017764429,-2,-3,-3,17,3,-19,-4,-9
82017785486,0,-2,-2,-1,-13,-5,-1,2
82017785486,-2,-1,-4,6,1,-1,2,1
82017786958,0,-1,-2,0,-2,2,-1,3
82017786958,3,8,0,-46,-5,4,1,-4
82017807838,-29,-2,-3,11,1,-1,-4,-8
82017807838,-3,-13,-3,7,-3,-7,-4,-2
82017809409,-1,-1,0,33,0,-1,-1,0
82017809409,-2,0,-2,-13,-1,0,-4,4
82017822825,4,5,-4,3,-2,-6,0,-3
82017822825,15,15,0,-5,-2,5,0,-2
82017824362,1,2,5,36,10,-1,2,5
82017824362,-3,-12,-14,-25,-13,-7,-5,-4
82017845541,4,-3,1,-12,-4,-2,-1,-4
82017845541,-6,-1,-4,-9,-2,1,0,-4
82017846888,2,-2,-2,-7,-5,-5,-4,-3
82017846888,1,1,-2,14,-4,-3,-5,-1
82017858999,2,3,2,13,3,3,-1,17
82017858999,-1,1,2,-62,-9,-1,-2,1
82017867946,-7,-1,2,-12,-4,-6,-5,0
82017867946,-3,-1,8,9,4,2,-6,16
82017882978,-8,-6,0,7,0,-5,-13,-27
82017882978,1,-2,4,9,3,-1,-8,6
82017884498,0,-4,1,-21,1,-1,16,9
82017884498,0,3,3,15,2,0,1,-10
82017905297,3,-1,3,-2,2,1,2,-5
82017905297,3,10,2,9,3,-1,-3,-5
82017906881,-1,-5,-4,-22,-2,-3,-4,-14
82017906881,-8,-3,1,14,3,1,5,-12
82017918958,4,18,2,-4,1,-1,3,-8
82017918958,-7,-11,-5,-8,-1,-1,6,-8
82017927911,10,13,-4,5,-4,-3,-3,-4
82017927911,-6,-26,-2,9,4,1,-3,-15
82017942845,4,-2,-7,-8,-4,0,6,14
82017942845,-25,-24,-6,6,-1,0,1,0
82017944326,17,0,-1,32,7,1,-6,3
82017944326,-13,1,-9,-65,-25,-4,-11,-2
82017965288,-7,2,5,9,3,0,-23,-11
82017965288,-1,1,2,-1,0,-2,6,13
82017966868,-14,-13,-5,5,-7,-8,-8,-36
82017966868,3,18,12,16,9,2,-2,0
82017979061,24,-1,6,-6,1,1,15,32
82017979061,19,5,-1,1,0,-2,4,-18
82017987953,-18,7,-1,-10,2,1,-5,10
82017987953,-25,-23,-7,10,2,0,7,13
82018002907,3,8,-7,-10,-4,-3,-7,1
82018002907,2,1,-1,11,3,-1,-4,-6
82018004599,10,-2,-2,-11,-2,0,9,15
82018004599,10,2,-1,12,3,2,-1,8
82018025307,3,0,-6,-5,-1,-1,4,6
82018025307,-3,8,8,2,-2,-1,-2,5
82018028684,-2,-23,-4,-11,-5,-2,-1,2
82018028684,2,5,4,7,2,0,2,-12
82018038936,-4,-11,-1,3,1,-2,-1,-17
82018038936,0,0,-7,-10,-6,2,3,11
82018047862,-9,-10,-1,-6,-3,-1,-6,-13
82018047862,9,-2,-2,-1,0,-1,-1,0
82018062722,-7,-11,-4,-2,-1,1,4,1
82018062722,-4,-5,-1,4,-1,-2,-6,-3
82018064337,-6,4,-2,-1,-1,1,-2,2
82018064337,8,-1,-4,9,-1,0,1,7
82018085159,0,-3,-5,5,2,-1,1,6
82018085159,-7,-1,-4,-4,-8,-2,-3,-12
82018086770,-6,20,-2,-4,-5,-3,-4,6
82018086770,-18,-32,-7,2,-1,-3,0,1
82018098896,-9,-4,-3,-5,-5,-1,-4,-13
82018098896,6,13,3,8,3,1,0,0
82018107888,-11,-2,2,-2,0,-1,0,6
82018107888,4,6,-2,2,-2,0,4,5
82018122750,-13,-21,-4,-1,-1,-3,-3,-5
82018122750,-7,-7,-5,-5,-2,-4,-4,-2
82018124360,2,-2,1,-7,-2,0,-1,-7
82018124360,2,23,-1,-1,-2,-2,-2,-1
82018145514,7,-9,2,-10,-3,1,-2,0
82018145514,10,-3,-4,-6,-1,0,-2,1
82018146877,14,4,4,9,5,-1,0,6
82018146877,7,7,4,-2,1,0,-1,0
82018158934,14,21,3,0,-3,-1,-1,-6
82018158934,-9,-14,-1,13,0,-1,-1,4
82018167852,2,19,-1,-6,-4,-1,0,-2
82018167852,-6,1,-1,7,1,0,-1,-2
82018183048,-7,-12,-3,-2,0,-1,-2,-5
82018183048,-4,-6,-4,0,-2,-3,-2,0
82018184394,3,-2,-1,12,-3,0,0,-3
82018184394,-5,12,4,-8,0,-1,-1,-3
82018204347,3,25,3,0,0,0,0,1
82018204347,6,4,2,8,-1,-1,-3,2
82018212874,-6,-7,-1,-8,-3,0,-1,-1
82018212874,-10,-2,0,7,-1,-1,-2,-5
82018218915,-1,-6,-4,-3,-1,-3,0,10
82018218915,-16,-1,0,-8,-2,-3,-4,-5
82018227919,-4,-16,-2,-6,-2,-2,-1,3
82018227919,1,-4,2,5,2,-1,0,-2
82018242751,3,-4,0,-2,-2,0,-1,-2
82018242751,-1,3,-2,1,3,0,-1,-1
82018244375,1,-5,-6,-7,-2,-2,-2,-4
82018244375,13,9,-3,7,-2,-1,-1,1
82018265221,-15,-1,3,-5,0,2,2,0
82018265221,19,19,-1,-6,-1,-1,-1,-1
82018266960,-7,3,3,-6,0,-1,-2,6
82018266960,5,-1,-4,12,0,-2,-3,-2
82018279152,2,10,3,6,1,0,2,0
82018279152,7,-8,2,-1,0,0,1,-1
82018287951,8,3,0,20,1,-2,-1,-5
82018287951,1,-2,0,-26,-6,1,-2,-1
82018302780,-4,-8,-2,-1,-1,-2,-3,-2
82018302780,0,-10,-4,-4,-3,-3,-1,0
82018304372,-1,-3,0,-5,-1,-3,1,-1
82018304372,-1,-5,-5,2,0,-2,-3,-4
82018325463,-3,-34,-6,-14,-4,1,-1,-2
82018325463,-2,-25,-1,-1,0,-1,0,0
82018326895,4,9,-3,-1,1,0,0,-4
82018326895,-15,-19,-3,-4,-1,-2,-1,1
82018339132,20,11,3,4,0,0,0,1
82018339132,-8,3,0,2,0,0,-2,1
82018347946,-14,-15,-2,-10,1,2,0,-5
82018347946,2,6,1,-3,-5,-1,-1,-1
82018362969,-11,-3,-4,0,-3,-1,-1,9
82018362969,-15,-3,-2,-3,-2,0,-1,-2
82018364463,1,0,-1,0,-2,-1,-2,-5
82018364463,8,0,-3,0,-1,-1,-3,2
82018385292,-3,3,-3,-1,-2,0,-2,-6
82018385292,1,6,2,2,1,0,0,0
82018386959,-5,-3,5,7,1,-2,0,2
82018386959,-7,16,-2,4,0,-2,-3,-10
82018399134,0,-19,-2,-5,-2,-4,-1,4
82018399134,-3,0,-1,-6,-3,-3,-1,-5
82018407946,-1,0,-2,-4,-1,-1,-2,-4
82018407946,11,10,1,-5,0,-1,-1,-3
82018422973,-8,3,2,3,1,-1,-1,-3
82018422973,8,0,0,1,0,-1,0,4
82018424400,2,3,-3,-3,-3,-1,-1,-1
82018424400,-8,-41,-3,-1,2,-1,-1,-3
82018445485,14,-3,-3,-8,-4,-3,-2,6
82018445485,-4,-2,-2,3,-2,-1,-2,-2
82018446918,1,3,-1,-2,-2,-1,-1,-1
82018446918,-26,-8,1,-5,-1,-2,-2,3
82018467980,8,20,2,0,-1,-1,-2,-8
82018467980,-5,-12,-3,-2,-1,0,-1,1
82018469418,-4,-28,-5,-6,-2,-2,-2,-3
82018469418,7,5,2,9,-1,0,1,9
82018482952,9,-11,-4,-2,-1,1,0,-3
82018482952,18,25,2,-7,-1,0,4,1
82018484432,5,7,6,8,0,0,0,2
82018484432,10,0,-3,-3,0,0,-1,-3
82018505443,-18,-6,0,1,0,-2,-2,-3
82018505443,-7,-8,-3,-3,-3,-1,-2,-2
82018506944,-2,-1,1,-4,-2,-1,-3,1
82018506944,4,7,-3,-6,-2,1,1,-1
82018519016,-2,1,-1,8,1,0,-1,1
82018519016,-14,0,1,-6,0,-1,-1,-3
82018527918,4,31,0,-5,-4,-3,-3,0
82018527918,8,17,1,0,1,-2,-1,-2
82018542991,2,2,0,-1,-1,1,-1,-5
82018542991,-2,-6,0,5,2,-1,-1,2
82018544404,1,21,0,1,0,0,0,-2
82018544404,1,1,-2,-4,-3,0,0,-1
82018565517,2,-5,-1,4,0,-2,-2,-8
82018565517,5,14,3,2,-1,-1,0,8
82018566924,2,0,2,-5,-2,-3,-4,-2
82018566924,-11,-5,-3,0,-1,0,0,8
82018587959,-6,-7,-2,5,1,-3,-2,-3
82018587959,-10,-5,-4,-3,-3,-1,-1,-6
82018589369,1,-1,-4,-4,-3,2,2,-1
82018589369,1,-34,1,0,-1,-1,-1,-2
82018602779,-5,0,0,-4,-4,0,-3,1
82018602779,-20,-7,-7,-2,-2,-2,-3,-3
82018604337,18,-3,1,0,2,1,1,6
82018604337,1,1,0,0,0,-1,-4,-12
82018625456,-4,1,0,0,-1,-1,1,15
82018625456,10,3,0,-7,-3,-1,-1,-3
82018626892,-7,8,-5,1,-3,-1,0,-8
82018626892,-13,-21,0,-2,-2,-1,-1,-8
82018647808,-4,5,-2,-2,-4,-2,-2,-7
82018647808,-9,-3,1,2,2,-1,-4,-4
82018649346,2,-12,-10,-2,-1,-1,-3,-1
82018649346,4,0,-1,-3,-4,-1,-1,0
82018662965,-24,-6,-6,-9,-2,-2,-1,-4
82018662965,5,2,0,0,-2,0,0,0
82018664452,-3,-10,-1,-2,-1,-2,-2,-3
82018664452,13,22,3,0,-2,-3,0,0
82018685440,-10,-3,-3,1,0,0,-1,-1
82018685440,8,2,-1,-2,0,0,-1,-3
82018686916,-6,-6,-1,3,-2,-2,1,2
82018686916,-2,2,-3,1,0,-1,-1,3
82018707762,-9,-1,0,-2,-3,-3,-1,-3
82018707762,8,11,1,-1,0,0,-1,5
82018709398,-23,-5,4,-1,0,1,-1,-3
82018709398,0,6,-4,2,-1,0,-1,-2
82018723067,19,-47,-5,-1,-2,-4,-3,4
82018723067,-11,-6,-4,1,-2,-1,-1,2
82018724410,-20,-12,-3,-4,-2,-3,-5,-1
82018724410,5,-7,4,3,1,1,2,-1
82018745489,26,24,4,-2,0,1,0,-7
82018745489,-3,-5,2,6,1,-1,-1,0
82018746919,2,-11,-7,-3,-4,-2,-1,-4
82018746919,-3,4,-1,-2,-3,-1,-1,9
82018767863,-19,-1,-3,0,-2,-1,-1,-9
82018767863,23,9,1,-2,-1,-1,1,2
82018769424,2,4,1,2,0,-1,0,-1
82018769424,7,3,0,-1,-1,-1,-4,-3
82018782335,-1,8,3,1,-2,0,-2,-2
82018782335,-13,-7,-6,1,-3,-1,-2,-5
82018788941,-9,-3,-3,-5,-1,-2,-1,-2
82018788941,5,18,-3,-6,-2,-1,-2,0
82018805308,8,-8,-3,2,0,-1,0,7
82018805308,-11,-8,5,0,-1,0,0,-1
82018806966,8,2,-4,-4,-3,-2,-3,1
82018806966,-9,-3,-1,2,1,-2,-1,-7
82018827775,-1,7,-5,-5,-3,-2,-2,-4
82018827775,-2,-7,-3,-6,-3,-2,-1,-10
82018829328,7,-5,-2,-3,0,0,0,2
82018829328,-2,-4,1,6,0,-1,-1,0
82018842380,-7,-13,-4,-8,-2,-3,-1,-4
82018842380,-9,0,-5,0,-2,-3,-2,6
82018849027,-4,0,2,-2,0,-2,-2,0
82018849027,-4,-4,-3,-2,1,-1,0,-1
82018865483,2,23,3,4,0,0,-2,23
82018865483,-10,-7,-7,-6,-3,-2,-2,-21
82018866942,15,6,2,7,-2,1,1,6
82018866942,-14,3,0,-6,-4,-3,-1,7
82018887755,2,9,6,1,-3,0,-1,-3
82018887755,18,7,2,-2,1,0,-2,5
82018889441,-6,6,-1,1,-1,-1,1,-1
82018889441,21,8,2,0,-1,-1,1,-1
82018902117,-11,-1,-1,0,2,1,-1,-4
82018902117,7,-8,-5,-4,-3,-1,-2,4
82018909103,2,1,-1,-2,-1,-1,-2,-12
82018909103,-2,-27,-3,-3,-1,0,-1,-1
82018925450,-1,-8,-1,-3,-3,-1,-1,-6
82018925450,-7,-3,-3,3,1,-3,-1,0
82018926868,6,0,-1,-2,-1,-1,-3,-1
82018926868,-6,0,-2,-3,-3,-1,-2,-4
82018947791,2,5,-4,-3,-1,-3,-1,-3
82018947791,-8,-6,0,6,1,-1,1,-7
82018949431,-18,-14,-1,-5,-3,-3,-4,-3
82018949431,-14,3,-6,1,2,1,1,-2
82018962285,3,3,2,-3,1,0,2,0
82018962285,7,3,-1,5,0,1,0,11
82018969152,-5,-6,-1,0,-1,0,-1,-3
82018969152,2,-1,-1,0,-1,-1,-2,-2
82018985396,15,16,-3,-6,-2,-3,-4,7
82018985396,1,-2,1,-1,0,2,2,-2
82018986910,8,3,1,-1,-1,0,0,0
82018986910,35,-2,-1,-1,-2,0,1,13
82019007721,-2,1,-1,-2,-2,1,0,-2
82019007721,6,7,4,-3,-1,-2,-2,8
82019009354,2,0,-2,4,1,0,0,-6
82019009354,-2,6,1,-4,0,0,-1,3
82019022043,-9,-9,-1,3,1,0,0,-6
82019022043,-8,-7,-5,-5,-3,-3,-3,-3
82019028870,-15,-5,-1,-4,-2,-1,1,3
82019028870,-16,-6,-1,-1,-3,-3,-3,-13
82019046414,-4,-5,-2,2,1,2,2,3
82019046414,-13,-8,-8,-8,-4,-2,-3,-5
82019049128,6,-15,-4,-1,-2,-2,-3,-5
82019049128,-2,7,1,3,-1,0,0,-4
82019067796,-2,-17,-4,-4,-1,-2,-1,-5
82019067796,-17,-4,4,2,-2,-1,-1,-6
82019069405,3,4,1,2,0,-1,0,1
82019069405,-8,15,-2,-3,-2,-3,-3,1
82019081648,3,-13,-1,2,0,0,0,13
82019081648,10,8,-2,-2,1,0,0,-10
82019090409,-11,-2,0,-2,0,0,-1,-2
82019090409,-8,-4,1,-2,-1,-1,-2,1
82019105485,17,2,-5,3,-2,-2,-2,-8
82019105485,7,5,1,-4,-1,0,1,0
82019106895,6,5,0,-2,-1,0,-1,5
82019106895,0,-41,-8,-3,-2,1,0,25
82019127784,-9,2,-3,-4,-2,-2,-2,-19
82019127784,-6,-5,-7,-3,0,-3,-1,24
82019129375,-4,-2,-2,-6,-3,-1,-3,-80
82019129375,-17,10,-2,-2,-2,-1,1,71
82019141454,-2,9,4,2,0,1,0,-4
82019141454,-26,-21,-4,-3,-5,-3,-7,-13
82019150483,-44,-5,-2,-4,-4,-2,-4,-13
82019150483,3,23,5,-1,-3,-4,-3,-29
82019165492,-14,0,-2,1,-1,-2,-4,-14
82019165492,6,-6,0,1,1,0,-1,-23
82019167119,6,-5,-2,-2,1,0,-2,17
82019167119,4,-4,-1,0,0,0,-2,-22
82019187830,-5,-12,-5,-4,0,0,-1,16
82019187830,-5,10,0,-1,-2,-1,0,-15
82019189453,9,5,0,2,-1,-3,0,15
82019189453,5,-8,-5,0,-3,-3,-1,-7
82019201445,0,5,0,-3,0,-2,0,2
82019201445,5,-2,0,-1,0,0,-4,2
82019210441,3,0,-3,-2,1,-1,-1,16
82019210441,10,-1,1,2,-1,0,-2,-10
82019225309,2,11,-1,1,-2,-2,-2,-5
82019225309,5,1,-2,-6,-3,-2,-1,3
82019226914,0,-6,0,-1,-2,-2,0,15
82019226914,5,2,-3,-1,0,-3,-3,-18
82019247971,-27,-3,-4,-1,-2,-3,-2,-7
82019247971,-5,-10,0,-3,1,0,2,29
82019249375,11,-15,-3,5,-2,0,3,3
82019249375,-13,-8,-3,0,-1,-1,-1,-15
82019261415,6,0,0,-4,-1,-1,0,5
82019261415,1,6,-1,3,0,-1,-2,5
82019270470,10,-12,-3,-5,-2,0,-1,-14
82019270470,3,6,5,1,2,0,3,24
82019285480,-7,-23,-2,0,-3,-1,-4,-8
82019285480,3,-6,-1,-5,-2,3,-1,-18
82019286893,14,26,0,1,-1,-1,2,23
82019286893,0,-13,0,-2,0,-2,-2,-22
82019307993,3,1,-1,3,0,0,2,8
82019307993,-2,5,1,2,0,0,-1,-2
82019309443,-3,10,0,-1,-1,-1,-1,1
82019309443,-3,-2,-1,-2,-2,1,0,-4
82019321419,11,8,7,4,1,-1,-2,12
82019321419,-20,-24,-6,-9,-1,-2,-3,-19
82019330508,-1,-3,0,5,1,-2,-2,4
82019330508,-3,1,-4,-3,-1,-2,-3,-3
82019345234,-2,-4,-1,-1,-2,-2,-2,-10
82019345234,7,10,-1,3,-3,0,0,6
82019346858,5,11,0,-4,-2,0,-1,2
82019346858,-19,-7,-5,-5,-1,-2,-3,-19
82019367764,8,5,1,-1,0,1,1,22
82019367764,4,7,1,1,-2,-2,0,2
82019369308,4,13,1,-1,-1,-1,1,0
82019369308,12,7,4,2,-2,-2,-2,-3
82019381367,-12,-9,-1,2,2,0,0,-10
82019381367,-3,6,0,3,3,-3,-1,0
82019390443,-6,-15,-3,-2,-2,0,-1,2
82019390443,0,-2,-1,-2,0,0,-1,-12
82019405343,-1,38,0,-1,-1,-1,-2,-7
82019405343,2,-13,2,2,-1,-1,0,5
82019406986,-27,3,0,-4,2,-1,-2,-13
82019406986,0,-2,-3,2,0,0,1,5
82019428001,-1,5,-1,-4,1,-1,-1,-10
82019428001,-2,1,-1,1,-1,-1,-2,3
82019429408,10,3,0,-1,-4,-3,-1,4
82019429408,-6,-2,-4,-1,-3,-2,-1,2
82019450481,-1,-10,-2,1,-2,-1,-1,-3
82019450481,-6,1,-2,-1,0,0,-2,-7
82019451946,-5,-12,-2,-1,-1,-1,0,2
82019451946,3,-2,0,-1,1,-1,-2,3
82019465364,3,-10,-2,-1,-1,-1,-2,-1
82019465364,8,1,-3,-4,-3,-2,-1,2
82019466918,-4,-1,-3,-4,-3,-2,-3,0
82019466918,0,-16,-6,1,-3,-2,-3,-21
82019487754,1,10,1,0,0,1,-1,-11
82019487754,-10,-4,-1,0,2,2,2,15
82019489335,5,-4,-3,-2,-2,-4,0,-2
82019489335,0,5,2,-3,-1,-1,-1,5
82019501461,-32,-12,-2,-2,-2,-1,-3,-14
82019501461,16,5,-7,0,-2,-1,1,19
82019510442,-3,-7,-5,-3,-3,-1,-3,-3
82019510442,-2,1,-2,-4,-2,-1,0,4
82019525402,7,0,-1,-1,-3,-5,-2,0
82019525402,-16,24,5,0,-1,0,0,-6
82019526986,-8,-10,-2,-2,0,-2,-3,-1
82019526986,2,2,-5,-3,-2,0,-2,26
82019547762,1,-7,2,1,-1,-1,0,-10
82019547762,2,0,-2,-1,-2,-4,-2,-10
82019549345,0,-1,1,0,-1,-3,0,4
82019549345,-3,0,-3,-1,-1,-2,-1,4
82019570453,15,13,0,-1,0,-1,1,11
82019570453,-4,-1,4,0,0,-1,0,-12
82019571938,4,0,-2,-1,0,-1,0,0
82019571938,-4,-2,0,2,-3,-2,-1,-4
82019585355,-5,-7,-3,-5,-2,0,1,-1
82019585355,3,-4,-3,-3,-1,-2,-4,-7
82019586907,-3,0,3,1,-3,1,0,-2
82019586907,-5,-7,-4,0,-1,-1,0,-5
82019607836,-13,-10,-6,2,-1,-1,-2,3
82019607836,2,1,1,0,-1,0,-2,2
82019609390,-1,-5,0,-1,0,-1,-2,-4
82019609390,-3,14,3,1,1,-2,-1,17
82019630500,8,-2,-1,-3,-1,-1,3,-7
82019630500,4,-7,-1,-1,-1,-1,0,-3
82019631879,-11,6,-1,-1,0,-1,-1,-2
82019631879,14,-8,-4,-5,-2,-2,-3,-7
82019645263,7,-3,2,0,0,0,0,6
82019645263,1,14,1,-3,0,-2,-2,-4
82019646875,0,-3,-4,-3,1,1,0,1
82019646875,-18,-11,-2,-2,0,-1,-2,-11
82019667751,-11,-2,-1,-1,-3,-1,-2,-1
82019667751,-2,-5,-2,3,0,-3,0,-4
82019669749,-1,0,-3,-2,0,-2,-2,-5
82019669749,-8,-17,-2,-2,2,1,-1,1
82019690245,-15,-3,-3,-2,-2,-2,-5,-24
82019690245,-6,3,-1,-3,-4,-1,-1,-3
82019691858,-5,-5,-3,1,-2,-2,-3,0
82019691858,2,7,3,-1,-3,-2,0,-8
82019704548,0,1,-4,-3,-1,-1,-1,2
82019704548,-2,-6,-4,-8,-1,-1,0,2
82019711418,-39,-24,-5,-3,-1,-3,1,-4
82019711418,1,11,3,-1,-1,1,-1,-5
82019727844,10,8,-1,-1,-1,0,-3,7
82019727844,3,-2,0,0,1,0,0,1
82019729360,18,7,2,1,0,-2,0,1
82019729360,1,0,-2,-2,0,-2,-1,-1
82019750521,-6,-15,-4,-3,-2,-2,0,2
82019750521,-1,-3,1,2,0,-1,-2,-5
82019751979,21,14,0,0,-2,-1,-1,8
82019751979,-4,0,-1,0,0,0,2,-12
82019764623,-10,4,2,0,-2,-3,-2,0
82019764623,1,-7,-5,-2,-3,-2,-2,4
82019771598,3,9,-3,-1,-1,-1,-2,0
82019771598,-15,-21,-6,-3,-3,-3,-2,1
82019787947,-4,1,-3,-1,-2,-2,0,-1
82019787947,3,0,-2,-3,-2,-3,-2,-8
82019789380,-12,-21,-2,-3,-1,-2,-1,-4
82019789380,6,9,-2,-1,0,-2,-2,-4
82019810282,-3,-13,-2,-1,0,1,-1,1
82019810282,-6,-3,0,0,-1,-1,-2,-2
82019811952,3,10,-1,-1,-5,-1,-2,0
82019811952,4,2,1,1,0,-1,1,9
82019824671,10,20,2,-1,0,1,1,-5
82019824671,-8,-6,-7,-4,-3,-3,-1,-1
82019831414,0,2,2,-1,-2,-1,1,7
82019831414,-8,3,0,-2,-1,-1,0,-6
82019847885,4,-5,-1,-1,-2,-3,-2,11
82019847885,4,-5,-1,-1,1,0,-1,-2
82019849427,-7,2,1,-1,0,0,1,2
82019849427,-7,4,-1,1,-1,0,-2,-3
82019870298,0,-5,0,0,-1,0,-3,0
82019870298,-23,0,-2,-2,-2,-1,-1,-6
82019871816,4,-5,-2,0,2,0,1,2
82019871816,11,-1,0,-1,-1,-1,-2,0
82019884816,-6,-4,-2,0,-1,-1,-1,1
82019884816,11,-3,0,-3,-2,1,4,8
82019899114,4,6,-1,4,1,0,-2,10
82019899114,-4,0,-1,-2,-2,-1,0,-9
82019907811,6,-2,-5,-3,-2,-1,-1,-2
82019907811,3,1,3,3,1,-2,-3,-6
82019909360,5,-1,-2,-1,-1,-1,0,3
82019909360,5,-1,-5,-3,-2,0,0,-4
82019930500,-14,10,-4,-3,-3,-2,-3,0
82019930500,1,5,1,-2,-1,-1,0,4
82019931979,-7,-7,-1,-1,0,-2,0,-10
82019931979,2,-1,2,-2,-2,-3,-3,4
82019947254,2,-5,-2,-2,-2,-1,-1,14
82019947254,3,-4,-1,0,1,-2,0,-7
82019951372,20,13,-1,-2,-3,-2,-3,-6
82019951372,5,-5,4,2,1,0,-1,2
82019967735,0,-5,-2,-2,-2,-1,0,8
82019967735,-5,-3,1,-1,-2,0,-2,0
82019969301,14,-2,-1,1,-1,-1,-2,-11
82019969301,-5,-6,-5,-2,-2,-2,-2,6
82019990270,-2,-8,0,-2,-2,-1,0,-6
82019990270,-4,-3,-3,0,-1,-2,-1,2
82019991872,-6,-4,-1,-3,-2,-2,-1,-10
82019991872,-3,-5,-2,0,-1,-1,-1,1
82020004594,0,-3,-1,0,2,1,1,-5
82020004594,-6,14,0,-2,-1,0,-1,-6
82020011438,-6,-7,0,0,-2,-2,1,12
82020011438,-28,7,-1,-3,-1,-2,-3,-16
82020027737,-1,-5,-2,-2,-1,-2,-1,-2
82020027737,3,1,1,-1,0,0,0,1
82020029337,-5,-1,0,1,0,-2,0,-9
82020029337,2,-3,0,0,-2,-1,0,8
82020057729,8,8,6,4,2,0,-1,0
82020057729,-9,-16,-10,-5,-4,-2,-3,-5
82020059355,-4,-3,-3,-5,-3,0,-2,0
82020059355,-4,-1,-2,-3,-1,-1,-3,-9
82020063919,-6,-1,-4,-3,0,0,-3,-4
82020063919,8,-10,2,2,1,-1,0,1
82020072917,1,-6,-3,-2,-1,-3,-1,-8
82020072917,8,2,0,-2,-1,-1,0,2
82020087735,2,3,-2,-4,-3,-1,-1,-5
82020087735,-1,6,1,2,0,0,-1,2
82020089588,-3,-18,-4,-3,-2,-3,-3,-7
82020089588,-15,-17,-3,1,-2,-1,1,0
82020110458,16,4,-4,-2,-1,-2,0,-9
82020110458,-3,-14,-5,-2,-3,0,1,15
82020111875,-3,-21,-1,1,0,1,-2,-1
82020111875,-2,5,-4,-1,0,0,-1,2
82020123879,-2,-2,2,0,0,-1,0,4
82020123879,2,3,0,0,-2,-2,-1,-5
82020132966,-1,12,1,-2,-2,0,0,8
82020132966,6,2,-1,0,-2,-3,0,-1
82020147766,-4,-5,-1,-1,-2,-1,-2,-2
82020147766,-3,4,0,-1,-2,-1,0,-19
82020149363,-8,3,3,2,1,-2,-2,0
82020149363,-10,8,1,0,-1,0,-2,2
82020170320,-15,-5,-5,-1,0,-2,1,-9
82020170320,7,-1,-2,-3,-4,-2,-1,14
82020171904,6,10,1,0,1,1,2,4
82020171904,2,-17,0,-1,0,-2,-1,-11
82020183928,-6,-17,-9,-8,-4,-1,0,-1
82020183928,6,5,2,4,1,0,-2,-3
82020192898,-10,5,-4,-2,0,1,0,8
82020192898,3,3,1,-1,0,-1,-1,0
