timestamp,emg1,emg2,emg3,emg4,emg5,emg6,emg7,emg8
83701675364,-3,-1,-1,-4,-2,-2,-1,11
83701675364,-2,-2,-1,-1,-1,-1,-1,0
83701684307,-4,-2,0,-1,-1,-2,-1,-6
83701684307,3,-3,-4,-2,-1,-1,-2,5
83701699142,-1,-1,-2,-1,-1,0,-1,-4
83701699142,-1,0,0,2,-1,0,-2,-3
83701700757,-6,-1,-2,-1,-2,-1,-2,-4
83701700757,-2,-5,-1,-2,-2,-2,-3,-1
83701721732,1,3,0,0,1,0,-1,-6
83701721732,-4,-3,-2,0,-1,-3,-4,0
83701723285,1,0,-1,0,-2,-1,1,-9
83701723285,0,0,-2,-1,-2,-2,-1,-5
83701735332,-12,-2,-2,-2,-3,-3,2,11
83701735332,2,-1,-2,-1,-2,-1,2,-2
83701744310,8,-2,-1,-2,-1,-1,-2,9
83701744310,-2,0,0,0,0,-1,2,-4
83701759144,2,-2,-1,0,0,-1,-3,-1
83701759144,-11,0,-1,-2,-1,0,-3,-11
83701760746,-2,-1,0,0,-1,-2,-2,-1
83701760746,2,-4,-2,-2,-1,-2,0,5
83701781737,1,0,0,0,-2,-2,-2,-4
83701781737,0,-1,0,0,-2,0,-1,2
83701783358,-8,2,0,1,0,-1,-1,-10
83701783358,0,-3,-4,-2,-1,-2,-1,8
83701795328,-2,-1,-1,-2,0,-3,0,-4
83701795328,1,1,-1,0,-3,-1,-2,0
83701804392,-6,0,-1,0,-2,0,0,-4
83701804392,0,-1,-1,-2,-1,-1,0,-1
83701819193,-3,0,-2,-1,-2,-2,-3,-4
83701819193,3,-2,-2,-4,-1,-2,-1,-5
83701820803,-11,-2,-2,-1,-2,0,0,8
83701820803,0,-1,0,1,1,1,-2,0
83701842116,4,-4,-1,-2,-2,-1,-1,0
83701842116,9,0,-2,-1,1,0,-1,-13
83701843739,0,0,-1,-1,-1,-3,-3,-3
83701843739,-2,1,-2,0,-2,-1,-1,-2
83701855991,10,-1,0,1,-1,1,0,8
83701855991,1,-2,-2,-2,0,-2,-1,6
83701862835,-1,-2,1,-2,-1,0,1,-7
83701862835,2,-3,-1,-2,-1,0,0,0
83701879214,-6,-2,0,0,0,0,-2,-6
83701879214,-4,0,1,0,-1,-2,-1,3
83701880823,-1,0,-2,-1,0,0,0,-6
83701880823,-3,-2,0,0,-3,0,0,0
83701901686,-2,-1,0,-1,-2,0,-1,-3
83701901686,1,-1,-1,-2,-2,-1,-1,6
83701903277,-4,-3,-2,0,0,-2,-2,-7
83701903277,2,0,-2,-2,-1,-2,-2,-2
83701916006,-2,0,-1,0,-4,-1,-1,-2
83701916006,-5,-3,-3,-1,-1,0,0,1
83701922778,1,1,-1,0,-1,-2,0,3
83701922778,2,0,-2,-2,-1,0,-2,-19
83701939153,-4,0,-2,0,1,-2,-1,-3
83701939153,-1,-2,-2,-1,-2,-1,-2,4
83701940763,-7,-2,-2,-2,-1,1,-3,-12
83701940763,-2,-2,-1,-1,-2,-2,0,10
83701961739,-5,-1,0,-1,-2,-1,0,-3
83701961739,1,2,-1,1,0,-1,1,0
83701963255,0,-2,-2,-3,-3,0,-3,-1
83701963255,1,-4,-2,-3,-1,-2,-2,3
83701976023,1,0,-1,-2,-2,0,-1,-3
83701976023,-4,-1,0,-2,0,-2,-1,1
83701982773,6,0,-1,0,-1,-2,-1,-4
83701982773,-9,0,0,0,-2,-1,-1,8
83701999150,4,-3,-3,-2,0,0,0,0
83701999150,3,0,0,-2,-2,-1,-1,4
83702000780,0,0,0,1,0,-1,1,1
83702000780,2,0,0,-1,-2,-1,-3,-4
83702021668,-8,-1,-1,-1,-1,1,-2,-4
83702021668,-2,0,-3,-3,-3,-1,-1,1
83702023261,-1,-1,-1,-2,-1,-1,0,-2
83702023261,-1,0,-1,0,-1,-1,-1,0
83702035287,-3,0,-1,0,0,-1,-1,-2
83702035287,1,-2,0,0,-1,-1,-2,13
83702044310,2,-1,0,0,0,1,1,-7
83702044310,1,-1,-1,-1,-1,-1,1,1
83702059145,0,0,-1,-1,-1,-2,1,1
83702059145,-2,-2,-2,-2,-2,0,0,-3
83702060789,-12,-2,-3,-1,-3,-2,-3,8
83702060789,-4,0,-2,0,-2,-1,-2,-4
83702081650,-1,-2,0,-2,0,-2,-2,-4
83702081650,2,-1,-1,0,-1,-2,0,-1
83702083276,1,-1,-3,-2,1,-1,-1,-1
83702083276,0,-1,-1,-2,-3,-1,0,-3
83702095320,-2,-1,-2,-1,-3,-2,-1,5
83702095320,-10,-3,-2,-1,0,0,-2,-16
83702104262,3,-1,-2,-1,-3,0,-1,1
83702104262,-1,-1,-2,-1,-1,-1,-1,0
83702119792,5,-1,-2,0,0,-1,-1,0
83702119792,-7,-2,0,-1,-1,-2,-2,-5
83702121416,-1,-1,-1,0,-2,-3,-3,-18
83702121416,-3,1,-1,-1,-2,-1,0,2
83702149142,7,-4,-2,-4,0,-1,-1,-1
83702149142,1,10,2,1,0,1,0,-8
83702150759,-2,0,0,-1,-1,-1,0,8
83702150759,-2,-3,-2,-1,-2,-2,-2,-3
83702155315,-11,-3,-1,-2,-1,-2,-2,-10
83702155315,2,-5,-3,-1,-1,-3,-1,4
83702164307,0,-1,-2,0,0,-2,-1,-2
83702164307,-1,-1,-2,1,0,0,0,5
83702179150,-2,2,0,1,0,0,0,-2
83702179150,-4,-4,-3,-1,-2,-2,-2,-3
83702180750,1,-1,-2,-1,-1,-1,0,5
83702180750,1,-3,-2,-3,-1,-1,-2,-4
83702201762,-1,-1,-2,1,-1,-1,-3,3
83702201762,4,-3,-3,-1,-1,0,1,1
83702203338,0,-3,0,0,0,0,-3,-1
83702203338,7,1,-2,-1,1,1,-1,16
83702215260,3,2,0,-1,-1,1,1,-2
83702215260,-4,-3,0,-1,-1,-1,-1,-1
83702224342,-3,1,-1,0,-1,-1,-2,-3
83702224342,0,-3,0,0,-2,-2,0,-3
83702239402,-27,-10,-5,-4,-4,-4,-4,-6
83702239402,5,1,0,-2,-2,0,0,1
83702240838,0,-2,-2,-2,-1,-2,-2,2
83702240838,-17,-3,0,-1,1,-1,-1,-18
83702261856,-5,5,-1,-1,-1,-1,-1,5
83702261856,-22,-5,-6,-3,-4,-2,-6,-35
83702263383,0,7,0,-2,0,-1,2,7
83702263383,9,1,-1,-1,0,-2,-2,-14
83702275609,-6,-1,-2,-3,-2,-1,2,13
83702275609,12,3,1,0,1,-3,0,16
83702284386,0,2,-1,0,-2,-2,0,-4
83702284386,-5,-5,0,-1,-2,-1,-2,-2
83702298557,25,2,0,-1,-1,-3,-1,7
83702298557,-2,19,0,-2,1,-1,-3,-14
83702305314,2,-11,-2,-2,-2,0,-2,69
83702305314,-3,-7,-2,1,0,1,-1,4
83702321655,-2,-2,0,-1,-2,-1,-2,-10
83702321655,3,-2,0,-1,0,0,0,14
83702323261,-5,3,-1,-3,0,-2,-2,-27
83702323261,-5,1,-1,-2,-1,-1,-2,1
83702335331,-5,-3,0,0,-2,-1,0,7
83702335331,-1,-27,-6,-2,-3,-3,-3,-15
83702344305,-1,6,1,1,3,6,0,-5
83702344305,-1,-2,0,-2,0,-3,-1,3
83702358453,-15,-4,-3,0,0,-2,-4,-53
83702358453,-7,-31,-3,0,-2,-4,3,27
83702365269,0,-8,0,-1,-1,-2,2,-19
83702365269,11,3,-1,-2,-2,0,1,51
83702381849,7,8,1,0,-1,-2,-1,4
83702381849,-4,9,-1,-1,-1,-3,-2,-4
83702383291,1,-6,-5,0,-1,-1,-1,1
83702383291,-11,-5,0,0,-1,1,-1,-14
83702395301,2,-4,0,1,0,-1,-1,11
83702395301,2,5,-1,-2,0,2,-2,6
83702404325,-5,-6,-1,-3,-1,-1,-3,-14
83702404325,0,0,-2,-1,-1,-2,1,-13
83702418558,23,-2,-1,-1,-4,-6,-1,7
83702418558,-9,6,11,3,4,8,0,0
83702425284,-4,0,-8,-2,-2,-4,-2,-5
83702425284,-1,-5,-5,-4,-2,0,0,6
83702455914,2,6,3,2,1,1,1,-6
83702455914,4,2,0,-2,-2,-5,1,3
83702466319,3,-1,5,0,0,1,-3,-6
83702466319,0,-3,-4,-1,-2,-3,0,4
83702467130,-3,-6,3,-2,2,5,1,2
83702467130,0,2,-5,-2,-2,-3,-4,-3
83702470300,-24,14,9,5,0,-2,-2,-28
83702470300,7,-5,-10,-4,-4,-3,0,0
83702478706,-5,0,-5,-4,-3,6,-3,4
83702478706,-3,-5,0,2,-1,5,7,-1
83702485614,22,0,-5,-1,0,-18,-4,5
83702485614,7,10,8,4,5,-1,-11,1
83702501652,-12,-2,-4,0,-1,-3,-10,-5
83702501652,14,12,-2,-2,-6,-6,3,-13
83702503343,0,-9,-3,0,-1,2,7,1
83702503343,11,12,6,1,8,7,8,0
83702523998,-1,-2,-2,13,7,25,2,3
83702523998,19,-3,-1,-12,-14,-22,-10,14
83702530450,-20,-3,0,3,4,11,-5,-11
83702530450,3,-5,-2,-6,-2,15,8,-24
83702537854,12,9,1,-9,-1,-38,-5,53
83702537854,0,-5,-4,-3,-3,-1,-12,-7
83702546811,-4,3,1,19,1,-12,5,2
83702546811,-20,-30,-2,0,-2,17,-2,-26
83702561861,-17,-7,-5,-13,-19,-1,-3,-28
83702561861,-3,1,-2,-8,3,8,17,0
83702563331,7,-6,-3,-13,-1,5,-7,8
83702563331,7,9,-1,4,1,-41,-9,-5
83702584158,-25,-19,-4,1,1,19,-2,25
83702584158,-4,-5,1,2,5,-27,-4,0
83702585787,-25,-7,-3,3,8,24,-4,16
83702585787,13,2,-2,-4,-23,-12,29,19
83702598062,-8,-1,-3,-11,-9,8,-6,-8
83702598062,-4,2,-3,-7,-6,36,-4,3
83702606889,5,0,0,7,1,-54,9,-2
83702606889,-10,2,-7,3,18,28,-4,-8
83702621818,10,-1,2,-14,0,18,-6,-7
83702621818,2,-1,2,22,17,-11,-21,-8
83702623328,-27,-4,1,-14,1,21,32,-15
83702623328,-17,-4,1,1,-33,-56,-9,1
83702644169,7,7,9,17,10,-13,-8,-27
83702644169,-8,2,3,-10,1,-5,-2,8
83702645825,18,-4,-7,-7,-2,33,-14,5
83702645825,-5,0,-10,-24,-11,-9,-3,9
83702657777,0,1,-2,30,40,50,6,-1
83702657777,-5,0,-5,-1,-18,-41,-15,-27
83702666784,26,-1,-2,0,-6,-14,9,19
83702666784,-4,5,-3,-15,1,62,-20,-20
83702681873,-22,-3,-5,-24,-26,-90,-10,15
83702681873,7,18,1,6,12,33,40,0
83702683286,3,3,3,9,15,-25,-7,-13
83702683286,1,4,4,14,-8,-3,-13,17
83702704216,18,1,3,-3,14,29,2,-15
83702704216,0,-4,-4,3,6,24,-14,3
83702705778,-10,-4,-5,-14,-13,-27,2,6
83702705778,-2,-3,1,18,2,-9,-3,-33
83702717860,7,-1,-4,-14,-18,6,5,20
83702717860,-10,-7,-2,-1,-17,-43,10,0
83702726774,2,2,0,-2,-8,16,-14,-10
83702726774,-3,-2,2,1,22,12,-13,-21
83702741857,3,0,-3,1,6,0,33,5
83702741857,4,-3,3,2,-5,40,1,16
83702743294,-5,-10,-3,-4,24,-4,-11,-1
83702743294,13,4,0,0,-16,-31,1,-6
83702764178,4,-4,-5,2,0,1,-3,0
83702764178,-54,-10,-1,-12,10,20,0,-22
83702765766,-2,0,0,-5,-28,-7,5,1
83702765766,-5,-3,1,22,27,-7,-1,22
83702777790,0,25,2,-15,-36,-19,-8,-18
83702777790,12,-9,-3,-1,15,-11,-7,1
83702786865,0,-1,0,-13,4,14,4,4
83702786865,-11,-3,-4,-15,-17,4,1,1
83702801677,1,-4,3,32,20,-3,0,0
83702801677,19,-2,-4,-17,-22,-8,-1,4
83702803269,1,6,0,1,-3,3,-6,0
83702803269,4,1,-2,-24,-5,2,2,0
83702824390,0,-2,0,6,13,-4,3,-7
83702824390,0,-5,-1,16,-7,2,-4,7
83702825784,2,-5,0,3,3,4,-1,4
83702825784,-17,-3,0,-17,-7,-3,3,5
83702837769,1,-3,-5,2,-11,-4,3,-23
83702837769,-4,-14,-5,0,20,-3,3,19
83702846891,-4,5,2,38,-15,-1,-9,9
83702846891,15,10,5,-24,-4,2,7,-14
83702861018,-19,-2,4,-27,-7,-3,-2,-3
83702861018,9,-3,-1,18,-2,-3,-4,0
83702869401,-14,-4,-9,-1,6,-2,-9,-48
83702869401,21,0,7,-3,7,1,2,11
83702884184,-9,-3,3,-11,-4,-1,-9,-5
83702884184,7,11,-1,-8,-9,0,8,12
83702885785,-9,0,1,10,1,4,0,-11
83702885785,-4,-2,-3,5,0,-2,-3,2
83702897841,3,-5,-2,-1,-1,-1,0,-2
83702897841,-6,4,3,-4,-8,-6,-5,-28
83702906816,8,3,-8,-22,-5,2,-3,-20
83702906816,-11,-1,3,-2,-6,0,3,-18
83702921650,18,-6,-4,21,15,-1,-1,24
83702921650,-4,7,8,19,15,0,2,17
83702923214,10,-10,2,-17,-24,-2,-4,-57
83702923214,-22,-3,3,13,27,-1,-1,5
83702944189,12,-11,-16,-18,-54,0,5,16
83702944189,-4,-5,-4,-10,25,-1,-9,-8
83702945761,5,0,1,4,13,1,4,15
83702945761,-1,0,-6,-1,-8,-2,-2,-7
83702957768,6,-4,4,7,7,-4,-1,-9
83702957768,3,-3,-9,-2,-5,0,-3,-3
83702966794,-3,1,1,3,-4,2,2,37
83702966794,8,0,-5,-1,5,1,0,-10
83702981653,-14,-1,-1,-4,0,-2,1,21
83702981653,5,4,2,12,3,-3,-3,-7
83702983278,-3,1,4,15,18,-3,-6,4
83702983278,10,-3,-2,1,-17,-1,1,15
83703004098,-14,10,-4,-15,2,-1,-4,-16
83703004098,-4,0,7,11,-7,-1,-3,-31
83703005725,11,1,-5,-6,7,3,4,47
83703005725,-5,-8,-6,-8,-17,-3,-1,2
83703017795,-24,18,9,8,10,-1,3,-5
83703017795,-21,-34,-10,-7,-16,-5,-4,-39
83703026786,33,-2,2,-10,-10,0,7,70
83703026786,-43,-12,-2,25,8,0,-6,-34
83703041680,2,7,-2,-20,-1,-2,-5,24
83703041680,24,14,0,0,5,1,8,16
83703043294,-11,-7,-2,1,-6,-5,1,7
83703043294,13,11,3,-5,-3,0,1,23
83703064202,20,-5,-5,0,-3,-2,-3,-37
83703064202,-75,-11,-4,-18,-11,-2,-5,40
83703065798,-11,-27,-2,22,10,7,3,24
83703065798,11,2,-23,-53,-11,-4,-5,-7
83703077833,-34,-8,22,57,9,-3,-4,6
83703077833,32,-13,-6,-24,-18,0,4,2
83703086926,-50,-3,0,-15,7,-4,-9,-43
83703086926,16,8,16,27,7,5,4,2
83703101659,37,-25,-30,-11,-10,-4,-6,-24
83703101659,39,29,10,2,0,2,7,23
83703103287,-13,0,-29,-34,-9,-5,-8,-14
83703103287,-14,3,4,21,7,2,1,38
83703124398,28,10,-25,-27,4,-1,-4,-10
83703124398,-4,-9,3,6,-9,-5,-13,-56
83703125805,-65,-16,12,-19,-6,1,4,-46
83703125805,104,31,4,17,18,1,0,66
83703137999,9,11,-6,1,-21,-11,-3,-23
83703137999,10,0,-4,13,28,13,0,-30
83703146845,-9,-1,5,6,0,-3,-3,-5
83703146845,-1,-8,-16,-9,-21,-7,-4,-64
83703161248,-9,-14,46,1,10,2,-3,8
83703161248,-13,-1,-3,3,-11,-8,-8,16
83703167841,4,0,-21,-38,-9,2,1,-8
83703167841,8,-9,40,42,10,-7,5,24
83703184394,24,1,-20,6,-4,-5,-9,31
83703184394,4,-4,8,7,-2,8,8,9
83703185775,56,17,2,-32,-9,9,-5,-11
83703185775,-33,-23,-18,15,18,2,-1,-16
83703197775,-2,-9,-14,-26,-2,-32,5,0
83703197775,-45,1,36,45,22,32,8,-6
83703206833,126,24,8,11,9,11,3,33
83703206833,-67,-19,-37,-85,-46,-13,-24,-32
83703221065,9,-1,-27,-94,-41,-6,8,-5
83703221065,72,13,42,87,63,-19,-4,31
83703229251,20,-6,-6,-9,-18,38,16,-14
83703229251,36,0,5,-23,3,-6,-8,-1
83703244190,-33,-23,-11,-14,2,-2,15,-13
83703244190,11,2,-26,-59,-31,1,-1,3
83703245824,-19,2,8,19,6,-50,-3,4
83703245824,-9,0,2,7,3,-11,-1,-8
83703258075,32,20,14,33,19,21,-9,11
83703258075,-9,1,-13,-24,-26,-11,7,6
83703266786,1,26,2,25,6,9,-9,-7
83703266786,-29,-7,-9,-17,-11,5,8,4
83703281263,-27,-1,15,24,2,4,1,-1
83703281263,2,-7,-20,-12,0,-7,-4,-6
83703287981,-14,-31,-1,-8,-3,-3,-9,1
83703287981,-62,-8,2,18,10,1,2,-15
83703305673,-10,-3,6,13,1,24,3,-15
83703305673,-3,-2,-15,-41,-22,-10,-6,-1
83703307341,32,12,4,14,-3,-3,13,19
83703307341,-70,-9,3,37,10,-2,-2,-24
83703318019,18,-7,4,16,-3,0,1,1
83703318019,-11,-2,-8,-7,3,3,-4,2
83703326827,-20,0,3,-13,-12,-2,-14,-12
83703326827,55,9,4,-3,4,-15,13,20
83703341221,0,-1,3,32,28,27,-12,-12
83703341221,-14,1,-1,-24,-28,-46,4,-3
83703347891,-4,0,2,21,4,13,9,5
83703347891,18,-2,-3,-18,9,17,-5,0
83703364312,4,-3,-1,29,-2,-4,-9,-4
83703364312,43,10,1,-2,22,2,-1,8
83703365782,-86,-38,-8,-12,-30,-24,-15,-18
83703365782,17,1,-3,-19,-11,7,-3,5
83703377912,-3,6,4,-5,6,-2,18,3
83703377912,-5,-5,-8,-8,-5,4,-3,-4
83703386937,13,7,-4,-6,-7,-11,-6,-4
83703386937,5,15,7,13,18,5,1,9
83703401082,-34,-4,-3,-15,0,-16,-17,-10
83703401082,-11,2,-2,27,-15,-1,8,0
83703408064,6,10,3,-27,-2,18,5,1
83703408064,5,-1,0,12,-30,-21,-8,-4
83703424189,22,1,2,14,-1,-2,-5,5
83703424189,-5,-2,-9,-49,3,-1,-5,-5
83703425778,-2,-1,1,14,13,6,-1,-7
83703425778,-1,-8,-2,3,19,16,5,2
83703446740,9,12,0,4,-19,-13,2,9
83703446740,-3,-1,-2,0,0,6,-1,-3
83703448316,-5,-6,0,-11,-20,-3,0,8
83703448316,-8,2,-4,-5,0,-2,0,-2
83703460542,0,0,2,-6,0,-5,0,0
83703460542,4,-6,-2,12,-3,1,-8,1
83703469351,-2,-7,-7,-26,4,-7,-4,-12
83703469351,-5,-6,1,15,4,-3,1,13
83703484408,-12,-6,-1,-7,18,4,3,-3
83703484408,-10,-17,1,6,-10,3,-4,-6
83703485843,5,5,-1,-1,4,-7,-12,-26
83703485843,58,2,-2,-4,-6,2,20,50
83703506893,-40,-11,1,-11,12,2,4,1
83703506893,3,3,-1,-17,5,1,-2,-11
83703508295,7,2,5,42,-2,-8,-1,0
83703508295,10,11,5,-19,3,3,-7,-8
83703521264,20,-17,-1,-8,-39,-3,-1,2
83703521264,-7,13,2,-2,-13,0,0,-2
83703527994,3,-14,-3,11,23,-2,-4,1
83703527994,2,22,-3,-2,-3,-1,-5,-22
83703544136,-11,-12,4,4,6,-3,1,1
83703544136,3,1,-4,-21,-19,1,0,4
83703545743,18,-2,-2,27,14,2,0,6
83703545743,-28,0,-2,6,1,-1,4,-2
83703566851,-3,4,-2,-15,1,1,-4,-33
83703566851,3,-1,-5,11,20,4,-1,14
83703568298,-1,12,8,5,-16,-3,8,6
83703568298,-4,-10,-10,-59,-15,-3,-4,-4
83703589425,27,-1,4,68,25,-1,-5,-4
83703589425,-10,-2,4,16,7,1,-4,-12
83703590854,-10,0,-8,-7,-8,-1,3,-4
83703590854,18,3,0,-11,-15,0,0,3
83703604199,-14,3,0,-23,3,1,-1,12
83703604199,14,1,-4,13,12,0,-1,6
83703605739,-1,-6,-4,-27,-28,-4,-5,-9
83703605739,1,-8,2,55,39,-1,-8,-17
83703626733,-17,-10,-7,-12,11,0,3,0
83703626733,6,-2,-1,-3,-8,1,5,12
83703628268,2,4,-9,-35,2,-1,1,-6
83703628268,-9,-9,2,33,-19,-3,-4,1
83703640449,15,15,3,12,-2,-5,-6,5
83703640449,0,0,1,-7,-11,-2,-10,-46
83703649340,-22,-3,-1,-75,-18,-2,11,52
83703649340,-1,5,-8,-2,-8,0,-4,-12
83703664179,-16,4,3,23,5,5,5,1
83703664179,29,7,4,-10,-12,-1,-1,-7
83703665797,-33,1,4,15,21,-4,-34,-79
83703665797,44,10,4,-37,8,3,25,39
83703686881,-34,-2,-6,-19,-14,-4,6,-25
83703686881,5,-2,-3,-15,5,0,15,66
83703688317,-42,-6,1,47,5,-5,-8,-47
83703688317,27,-11,-3,-29,-27,-2,-11,7
83703700536,-4,-1,0,24,2,-5,-14,-18
83703700536,8,-13,2,6,4,-3,0,-12
83703709388,-7,1,1,6,8,-2,-1,-6
83703709388,12,-7,-3,18,-10,-2,-6,21
83703724163,19,7,-3,-36,-13,-1,7,16
83703724163,-44,-15,-4,24,12,-1,-9,-28
83703725740,113,22,-2,4,2,3,13,43
83703725740,-119,-11,-1,-3,2,0,-3,-4
83703746707,40,2,-5,-20,-2,1,-11,-3
83703746707,64,26,5,-32,-2,-1,-28,2
83703748260,-41,-42,-9,37,-7,-10,24,26
83703748260,72,9,4,6,9,7,14,49
83703760260,2,-20,-4,8,11,-5,-6,-36
83703760260,-11,15,4,-9,1,4,-7,34
83703769302,48,19,6,15,3,0,-3,7
83703769302,-29,0,2,-9,-19,1,-31,-115
83703784273,-14,-12,1,-19,-6,6,20,9
83703784273,14,-6,-6,14,7,-6,20,-13
83703785808,79,-16,-9,-14,-3,-3,-17,-9
83703785808,-97,-35,-7,46,16,-4,7,-30
83703806711,6,30,4,-49,-21,1,-3,30
83703806711,-19,20,-1,11,3,-1,5,-17
83703808256,53,6,-9,-40,-23,-2,-7,12
83703808256,-61,-21,-16,-28,1,-3,-12,-40
83703820338,25,-9,-2,65,33,-4,-12,-7
83703820338,21,-9,10,-4,-18,-5,1,33
83703829403,-106,2,-2,11,29,10,4,-24
83703829403,80,26,18,2,19,-3,-1,24
83703844420,-75,-8,-7,-82,-65,-8,-1,-7
83703844420,-3,-6,5,11,14,-1,-6,-26
83703845845,20,12,1,-19,-19,5,10,45
83703845845,-39,-10,0,45,31,3,3,-22
83703866626,20,27,5,-17,-1,3,0,13
83703866626,34,-5,-2,15,46,-6,-2,8
83703868242,-18,-10,-2,-15,-101,-24,-13,-29
83703868242,30,1,-6,-16,-3,5,3,24
83703880520,88,11,-6,-64,-8,0,5,18
83703880520,-38,-15,3,81,52,11,-4,-28
83703889324,-2,-2,1,12,32,1,5,16
83703889324,12,11,17,-2,-25,-6,1,-5
83703904304,44,-1,-8,-22,1,-4,-7,9
83703904304,-52,-17,-12,-71,-62,-4,0,-14
83703905824,16,14,7,38,41,5,0,6
83703905824,38,-12,-10,31,2,-5,-4,-9
83703926671,-58,-7,5,45,-2,0,6,-10
83703926671,25,-18,-15,-67,-33,0,17,78
83703928283,-47,-5,1,50,25,-2,-13,-64
83703928283,66,-10,-9,-77,-28,-1,-2,27
83703940542,-72,-17,-2,75,32,4,-1,-9
83703940542,-27,3,-2,9,-16,-5,-8,-52
83703949322,21,-4,-5,-46,-14,-1,4,30
83703949322,12,4,1,4,15,0,-1,17
83703964174,5,-10,-1,50,5,-3,-5,-16
83703964174,6,1,-2,-45,-8,-4,-1,-10
83703965777,-20,-2,2,-26,-11,1,-2,1
83703965777,3,7,1,-2,6,1,2,-12
83703986699,12,15,2,6,-1,-2,2,-4
83703986699,-23,-30,-3,4,15,0,-2,10
83703988407,14,7,4,13,-3,0,5,23
83703988407,-16,3,-1,-7,-10,-3,3,-14
83704000277,21,-13,2,-6,10,3,2,45
83704000277,68,9,-2,15,-1,-2,-6,4
83704009336,-57,-9,-1,-10,-4,1,6,5
83704009336,31,1,3,13,12,1,3,1
83704024165,3,1,-2,-8,-7,-1,0,90
83704024165,43,15,-1,1,-14,-2,-1,-17
83704025759,-51,-21,-4,0,12,-1,-12,-78
83704025759,-13,6,-2,3,-9,-4,0,52
83704046694,1,-5,-4,-9,-3,-1,-2,-29
83704046694,-14,0,-2,21,9,-3,-2,-2
83704048243,34,14,0,-1,19,0,-1,7
83704048243,-29,-1,1,5,-13,-3,-5,-24
83704060361,7,0,-2,-25,-14,-2,-2,-29
83704060361,-22,0,-3,4,-1,-1,-4,20
83704069276,19,10,0,10,11,3,3,28
83704069276,-2,5,-1,-8,-3,1,2,-25
83704091680,3,-7,-3,5,4,1,1,2
83704091680,-22,0,-3,0,-13,-3,-2,-17
83704093272,11,2,-2,-5,-3,-1,-5,3
83704093272,-5,-3,-2,3,1,-9,-4,-30
83704106641,5,3,-2,-2,-1,0,-4,-1
83704106641,-27,-4,-2,-3,-1,1,-1,-24
83704108247,14,1,1,4,1,3,4,18
83704108247,-2,-21,-4,-1,-2,5,0,-6
83704120348,-23,-2,-1,3,3,-4,-4,-29
83704120348,2,3,-1,-6,-9,-6,-5,-18
83704129255,1,-3,1,-4,-5,0,-1,-2
83704129255,24,4,-1,8,5,-1,-4,5
83704143525,-37,-7,-2,-4,2,-1,6,-5
83704143525,-9,-8,-3,1,-2,2,1,5
83704150378,6,-1,-1,-3,-1,-1,2,2
83704150378,-13,2,-2,-3,-1,-2,-4,0
83704166759,19,3,-1,-5,-6,-5,-1,0
83704166759,-3,3,-1,3,-3,0,0,2
83704168319,-13,-8,-3,-2,1,-5,-5,-9
83704168319,5,3,-1,-4,-2,1,3,16
83704180492,8,-2,0,3,2,2,-1,-2
83704180492,-8,-3,-1,2,1,-1,0,-5
83704189351,6,1,0,2,-3,-2,-5,-4
83704189351,-12,-1,-1,-6,-3,-2,-1,8
83704203602,4,1,-1,-2,-4,0,2,-1
83704203602,-11,-3,-1,1,1,0,-1,10
83704210396,7,1,0,-1,-1,0,2,8
83704210396,-4,-2,-2,-1,-3,0,1,-10
83704226891,-2,2,-1,0,0,-1,-1,-7
83704226891,-1,0,-1,-3,-4,-3,-1,-2
83704228334,-1,-6,-2,-2,-2,-2,-4,9
83704228334,-7,-1,0,-3,0,2,-5,-18
83704250686,9,0,3,6,3,-1,0,12
83704250686,-1,8,7,23,5,4,8,3
83704252197,2,-8,-12,-36,-12,-6,-2,0
83704252197,-11,-23,-7,-36,-7,-5,0,-4
83704263584,-1,0,-4,-2,-6,-3,-6,-9
83704263584,-1,2,-1,12,1,-2,-3,1
83704270351,-3,-4,3,25,7,-2,3,-6
83704270351,4,6,0,1,-2,-2,-2,7
83704286771,-1,-2,-3,-8,-4,-2,-1,-6
83704286771,1,-3,1,1,3,0,-1,2
83704288259,-3,4,2,3,1,0,-2,-6
83704288259,-3,-1,-7,-7,-5,-3,0,0
83704300287,0,0,1,4,-6,0,-4,-15
83704300287,-2,1,-1,12,11,0,1,0
83704309335,0,1,1,-7,0,2,3,8
83704309335,-1,5,1,16,-2,0,-2,1
83704323706,-5,-6,1,30,17,1,2,6
83704323706,17,-2,-2,-36,-7,0,-1,-9
83704330510,-9,2,-2,-21,-15,-2,-1,-7
83704330510,0,-4,-4,-9,-9,-5,-7,-2
83704346726,8,6,0,-12,-3,0,3,0
83704346726,-3,-5,0,10,9,-1,-3,20
83704348293,10,0,0,13,-5,-2,2,2
83704348293,-6,6,3,-28,3,3,2,2
83704369240,-4,-4,2,8,0,-4,-11,-16
83704369240,-6,0,-3,27,0,-3,-1,8
83704370785,1,-2,0,49,14,0,0,-1
83704370785,-1,0,2,23,7,2,0,0
83704383634,-2,0,1,15,8,1,0,-1
83704383634,-6,6,-4,-75,-19,-3,-1,-9
83704390338,-5,-16,-2,-4,0,-1,-3,-2
83704390338,2,0,1,28,2,0,2,1
83704406693,-2,4,0,38,8,0,0,-1
83704406693,-8,1,-3,29,-4,-1,-2,-9
83704408273,3,7,-2,6,-4,-2,-2,3
83704408273,-3,-3,-2,-16,-2,-1,-2,0
83704429443,0,-8,-5,-8,-13,-3,-3,-11
83704429443,3,-3,-1,-20,1,-1,-1,12
83704430756,-5,-1,-1,6,6,-1,-1,-5
83704430756,-6,-1,1,36,2,1,0,2
83704443620,4,1,-3,-15,-1,0,-3,-2
83704443620,3,-6,-4,-11,-2,-2,-2,-12
83704450516,-8,2,1,-4,-1,1,1,11
83704450516,6,-1,-2,22,2,-4,-2,-12
83704466659,-1,-3,-6,-44,-9,-1,-2,-7
83704466659,-5,0,-1,13,-7,-2,-4,-5
83704468285,-6,15,7,2,-2,0,1,-1
83704468285,4,-14,-1,-14,-1,-1,-6,-13
83704489249,5,-1,-2,8,-5,-2,7,38
83704489249,-7,-2,-1,12,2,0,-4,-24
83704490767,4,2,-2,-17,2,-1,1,11
83704490767,1,4,1,4,-2,-1,3,11
83704502813,-5,-2,0,10,0,-1,-4,-10
83704502813,3,-5,-1,-12,-3,-2,1,6
83704511825,-1,-6,-2,19,1,-1,-2,-5
83704511825,-6,1,-1,-11,-2,0,1,1
83704526777,2,-5,-9,-30,-4,-3,0,1
83704526777,-7,-6,-3,13,-6,-2,-3,-7
83704528326,2,0,-2,-10,-7,-2,-6,-7
83704528326,-1,3,-1,-8,0,-1,0,6
83704549356,-3,5,1,-9,-2,-2,-3,-4
83704549356,-3,-2,0,18,5,-1,1,5
83704550781,-10,-6,-7,-22,-3,-1,-1,-3
83704550781,-2,-3,-1,4,-1,-2,-3,-1
83704563077,-14,1,-1,-7,-1,0,0,1
83704563077,2,-2,-1,-14,-1,2,-1,-3
83704571839,2,-3,-1,4,-2,-1,-2,-4
83704571839,-4,2,-3,-24,-2,-3,-1,4
83704586872,-2,-1,2,33,7,-1,-1,-8
83704586872,2,-21,-3,-19,-3,0,0,0
83704588292,-2,-1,-2,-14,-2,-1,1,0
83704588292,-3,4,1,7,1,-1,0,-1
83704609411,4,0,-1,-30,-2,1,-2,-3
83704609411,-2,5,-1,19,-4,-2,0,0
83704610863,2,-3,-2,12,3,0,1,0
83704610863,1,-6,-2,-8,-12,-1,-2,-2
83704622971,13,2,2,-5,5,0,-2,0
83704622971,-8,-7,-2,-3,0,0,0,4
83704631891,6,-1,-2,2,-1,-1,-3,-7
83704631891,-3,14,1,-15,-6,-1,-1,2
83704646848,5,-3,0,20,-2,-1,0,0
83704646848,-21,3,-5,-19,-9,-2,-3,-4
83704648291,-1,21,1,-18,-4,0,-2,-2
83704648291,5,-5,-4,10,5,0,0,3
83704669346,-1,-4,-3,-12,-7,-3,-1,-5
83704669346,7,9,2,2,0,-3,-1,5
83704670829,-3,-2,-1,1,2,-1,-3,-1
83704670829,-10,-4,-5,-3,-3,-2,1,4
83704682836,11,15,1,2,0,0,1,0
83704682836,7,7,-1,0,1,1,-2,18
83704691834,-3,-3,1,3,-1,-1,0,-12
83704691834,-1,-4,1,-2,-2,-3,-3,-1
83704706688,-7,0,-4,-13,-6,-1,-2,0
83704706688,0,-1,-1,-5,-4,-2,0,-6
83704708243,5,-6,0,7,8,2,-1,3
83704708243,-7,-12,-2,-3,-2,-1,-1,-8
83704729150,13,15,-1,-4,-6,-2,-2,7
83704729150,-10,-4,0,1,-4,-1,1,-5
83704730764,2,-14,-6,-7,-5,-3,0,-2
83704730764,-5,0,1,-4,-2,0,-2,-5
83704743039,-12,-12,-5,7,-1,-4,-4,-4
83704743039,-5,3,1,-5,1,-1,0,-6
83704751899,19,9,5,-1,0,0,1,6
83704751899,-1,4,-3,-2,-4,-2,-1,-1
83704766501,-12,-9,-4,-9,-4,-2,0,-8
83704766501,15,1,1,5,2,-2,1,13
83704772790,-10,-6,-5,-4,-1,1,0,-4
83704772790,-4,2,-1,-2,0,-1,-2,-4
83704789152,1,-9,-1,0,-1,1,1,0
83704789152,3,1,-1,7,2,0,-1,3
83704790778,-14,18,0,-6,-3,1,0,-16
83704790778,5,-5,-4,3,0,-2,-1,1
83704811864,-4,5,-1,1,0,-2,-2,-2
83704811864,-22,-8,-2,-6,-2,-2,-3,-8
83704813280,-9,-3,1,-4,-4,-2,-1,1
83704813280,-3,5,-3,-13,-5,-2,0,-3
83704826805,20,16,5,26,9,1,1,-3
83704826805,4,-7,-2,-3,-2,-3,-1,-8
83704828313,21,-26,-13,-11,-7,-2,-3,6
83704828313,1,9,5,0,2,1,-1,-20
83704849198,2,11,4,0,-2,-2,-1,55
83704849198,-27,-21,-2,11,1,-1,0,7
83704850796,11,-13,-6,-2,-2,-5,1,14
83704850796,17,3,-2,-1,-1,0,-3,-11
83704862979,23,-30,-8,-14,-6,-2,2,33
83704862979,9,6,-2,-3,-2,-3,0,42
83704871864,-11,4,4,1,1,2,1,-18
83704871864,9,-11,-1,3,1,2,0,-9
83704886663,-1,7,0,-3,-3,-1,-2,36
83704886663,-25,11,-1,4,2,0,-4,-45
83704888298,9,25,4,-5,-2,-1,1,7
83704888298,24,24,6,15,7,-1,2,26
83704909211,-27,-12,-7,-7,-4,-2,-6,-49
83704909211,6,-4,-4,-1,2,0,0,-32
83704910787,1,7,2,7,0,-1,-1,36
83704910787,-10,-11,0,1,2,0,-4,-26
83704923330,-10,-2,-5,-4,-4,-1,0,-10
83704923330,25,7,1,-9,-4,-1,1,7
83704931831,-19,-17,-2,0,2,-1,-2,-20
83704931831,1,-6,-2,6,-1,-3,-2,16
83704946882,-3,-5,0,-4,1,0,1,-14
83704946882,5,6,0,-9,-2,1,0,8
83704948315,-18,-7,-2,8,1,-1,-6,-16
83704948315,3,-8,-2,-3,-2,-1,0,16
83704969412,-13,3,-4,-10,-7,-3,-3,-26
83704969412,10,19,4,3,0,-1,-1,0
83704970801,-7,-8,0,-1,-1,-1,1,-3
83704970801,-18,-12,-3,-1,-3,-2,1,-9
83704982885,20,-1,2,2,3,1,0,-9
83704982885,2,-8,-4,-7,0,-1,-1,0
83704991896,-12,22,-3,-7,-5,-2,-2,-1
83704991896,9,-3,-1,8,-1,-2,1,15
83705005366,-14,1,1,-4,-1,1,-3,-30
83705005366,-7,-11,-3,-4,-1,-1,-3,3
83705015208,3,22,4,-4,0,0,-3,-41
83705015208,-32,-17,-2,-3,-1,-1,-2,-12
83705029181,5,-2,-1,2,-1,-1,-3,-13
83705029181,20,-5,-2,-3,-2,-1,0,0
83705030821,-24,-10,-1,1,0,0,0,1
83705030821,2,7,-4,-3,-4,-1,-3,-9
83705043063,-8,-8,-3,0,-1,-1,-2,-14
83705043063,-10,-3,-1,0,-3,-2,0,6
83705051833,11,-9,-2,5,1,-1,-1,5
83705051833,3,-1,-1,0,2,-1,-1,5
83705066676,-16,2,2,-1,0,0,1,9
83705066676,-3,-5,-3,-3,-3,1,1,-5
83705068261,11,-13,-1,0,-2,-1,-2,10
83705068261,0,10,-1,-4,2,-1,-1,-10
83705089424,-7,-20,-5,-6,-5,-2,-1,4
83705089424,6,33,3,13,4,-1,-2,-7
83705090835,26,-11,-2,-6,-2,0,0,12
83705090835,21,21,3,-3,-2,1,2,7
83705102765,-16,3,2,13,3,-1,-2,-2
83705102765,4,-4,-1,-3,-2,-1,-2,-41
83705119377,2,-2,-3,1,-1,-2,0,45
83705119377,-7,-9,-4,-7,-4,-2,-2,1
83705126900,2,3,-2,-6,-3,1,-1,4
83705126900,-16,-6,-2,-3,-1,-2,-2,-22
83705128316,-24,-25,-2,-1,0,-2,-3,-41
83705128316,23,-6,-2,1,0,-1,1,45
83705149191,8,4,-1,4,1,0,1,1
83705149191,-27,-4,-2,2,0,-2,-4,2
83705150762,20,22,-3,-11,-5,-1,-2,-6
83705150762,-4,-8,0,5,-2,0,-1,-7
83705162814,-5,0,0,2,4,0,-1,-2
83705162814,-2,-10,-3,-9,-6,-2,-2,11
83705171867,-6,11,-4,-4,-2,-3,0,2
83705171867,-3,5,2,2,2,-1,-1,-14
83705186738,13,-5,2,4,-1,-1,-1,-3
83705186738,-7,-10,-2,0,2,-1,0,11
83705188260,-3,-5,-3,-3,-3,0,-1,2
83705188260,-7,-4,-4,-4,-2,-2,-2,-3
83705209180,10,0,2,-1,-2,0,1,11
83705209180,11,-3,-5,1,-1,1,3,-1
83705210768,-2,0,4,2,0,0,1,-1
83705210768,1,-3,-7,-6,-2,0,-1,-16
83705222933,12,12,1,-3,-1,-2,1,27
83705222933,6,-2,-2,0,-1,-1,-2,14
83705231754,-7,-18,-3,1,1,-2,-2,-1
83705231754,3,8,-4,-3,-2,-1,-1,-9
83705246662,8,11,4,0,-2,0,0,-15
83705246662,2,-4,1,0,0,-3,1,8
83705248245,-2,4,-1,-1,-2,-2,-1,0
83705248245,-31,-14,4,-2,-2,-2,-6,-33
83705269248,-7,2,-2,-3,-2,0,-1,-14
83705269248,9,5,-1,0,0,-1,-1,45
83705270870,-2,1,-1,1,0,-1,-3,-10
83705270870,-27,6,0,-3,0,0,0,3
83705282835,-8,-11,-4,-3,-1,-3,-2,3
83705282835,-9,-7,-2,-1,-2,-1,-2,-20
83705291784,-2,9,0,0,-1,-2,-2,-10
83705291784,5,-4,-1,-1,0,-2,1,13
83705306630,3,-4,-2,0,1,-1,-1,-16
83705306630,10,0,0,-2,-3,1,1,19
83705308256,12,4,1,1,-1,-1,-1,6
83705308256,-13,-3,-4,-1,-3,-3,-1,-2
83705329190,-4,-2,-3,-3,-1,-1,-2,5
83705329190,-4,19,-1,-4,-1,-3,-3,-26
83705330779,-1,-10,-2,1,0,0,0,12
83705330779,22,-11,-3,-1,-1,0,1,-1
83705351630,-15,-1,-1,0,-1,-2,-3,21
83705351630,-3,-4,-1,1,-1,0,-1,-6
83705353266,28,3,1,-4,-1,0,2,12
83705353266,1,4,0,-2,-1,0,-1,12
83705366602,-3,-10,-4,-6,-5,-1,-1,-11
83705366602,15,-2,0,1,2,0,-3,-41
83705368248,-2,2,1,5,2,1,1,32
83705368248,2,21,1,-2,-2,-2,-1,-9
83705389150,-1,-4,-2,-1,-2,0,-2,-12
83705389150,-23,-8,0,-12,-6,-1,0,6
83705390788,-10,-4,-3,0,1,-3,-3,-15
83705390788,-13,9,0,3,-3,-2,-3,16
83705411613,13,-17,-6,-4,-1,-2,-1,4
83705411613,-11,3,2,0,0,-1,-2,3
83705413260,-10,-5,-1,-4,-1,-1,-3,-11
83705413260,-3,4,0,-2,0,1,0,-2
83705426638,0,-25,-4,-3,-4,-4,-3,-9
83705426638,1,-7,-3,2,0,-1,1,8
83705428235,-6,3,-3,-2,-1,-3,-2,-12
83705428235,3,-9,-1,-2,-1,-1,-2,-7
83705449143,5,40,4,1,0,-2,-1,57
83705449143,1,1,0,-1,-1,-2,-3,-8
83705450752,-7,-12,-1,-1,-1,0,-2,-9
83705450752,1,-8,-2,-1,-1,-1,-2,5
83705471632,-4,4,0,-2,0,-1,0,-5
83705471632,-2,-4,-2,0,-2,-1,-2,-7
83705473233,-1,1,-2,-2,-2,-1,-1,2
83705473233,1,7,0,-2,-1,0,-1,-11
83705486025,-32,-12,-5,-3,-3,-2,-2,-15
83705486025,-14,-3,-1,-1,1,-3,-4,-14
83705492837,-15,-9,-3,-1,-4,0,-2,-14
83705492837,-2,-6,-2,-3,0,-2,1,0
83705509146,-4,13,0,1,0,-1,0,-8
83705509146,7,-6,0,1,0,1,0,13
83705510770,-3,-4,-1,-1,-1,-2,0,2
83705510770,4,-6,-2,0,-2,0,-1,3
83705531610,4,7,0,0,0,-1,0,-8
83705531610,-17,-15,-2,-2,-2,-1,-2,-14
83705533258,-8,-4,-2,-2,-2,-2,-3,-13
83705533258,2,-2,1,0,0,-2,4,18
83705546215,7,-41,-4,-2,-2,-1,-2,-27
83705546215,4,5,0,0,0,-1,1,4
83705553046,0,-4,-1,-2,-1,0,-2,-6
83705553046,-9,-7,-2,-1,-1,-2,-2,2
83705569311,22,18,3,0,1,1,-2,-6
83705569311,5,-4,0,0,-2,-2,-1,9
83705570828,8,2,0,0,0,-1,1,15
83705570828,5,3,-2,-1,-3,-2,-2,-13
83705591706,-3,2,0,-1,-1,-2,0,6
83705591706,7,3,-1,-1,0,-2,0,-7
83705593271,2,7,0,-1,-2,-1,1,2
83705593271,-7,-7,-3,-3,-4,-2,-3,-2
83705606211,-1,-2,1,0,0,2,1,2
83705606211,22,4,-2,0,-2,0,-2,6
83705613042,-13,2,1,1,1,-1,0,-3
83705613042,18,24,0,0,0,-1,-3,-1
83705629181,-14,-1,-1,-2,-2,-1,0,-17
83705629181,24,4,-2,-2,-2,1,3,29
83705630762,6,-15,-2,-2,-2,-1,1,3
83705630762,4,1,-1,0,0,-1,-2,-3
83705651668,-5,-22,0,-2,-1,0,-1,-4
83705651668,-10,-4,-4,-2,-2,-1,-2,-13
83705653391,5,8,1,1,-1,0,-2,1
83705653391,-7,-5,-1,0,0,-1,0,6
83705666058,0,3,-1,-2,-3,-1,-1,5
83705666058,-12,-6,-1,-3,0,-2,-1,-3
83705672826,3,-7,-2,-5,-1,-1,-3,11
83705672826,-1,-7,-2,4,1,0,3,-2
83705689383,-6,-3,0,-4,-3,-1,-3,1
83705689383,-14,0,-1,2,-2,-1,-1,-3
83705690829,-6,1,-1,1,1,-1,0,-7
83705690829,-4,-8,-1,-3,-2,-1,-2,-1
83705711770,-1,4,-1,1,2,1,1,3
83705711770,2,0,-1,-4,-1,-2,0,4
83705713281,1,-5,-3,-3,0,-1,-1,-3
83705713281,-1,2,-1,-2,-2,0,-2,-3
83705726019,9,18,-1,1,0,-3,-1,-2
83705726019,-6,-7,-1,-1,1,-1,-1,4
83705732864,-6,-2,-2,-1,-2,-2,-2,-10
83705732864,-14,4,-1,-2,-2,-1,-2,-2
83705749380,-13,-4,-3,1,-1,-2,0,-8
83705749380,4,3,-4,1,-1,-2,-2,8
83705750869,-9,0,-1,-3,-3,0,1,-11
83705750869,-4,-16,-1,-2,-1,-1,-1,1
83705771726,-2,-1,-2,-2,-1,-1,-2,-2
83705771726,-3,7,-1,-2,-2,0,-1,-3
83705773328,4,-7,-3,0,0,-3,0,6
83705773328,4,-2,-1,-1,0,0,-1,-6
83705785947,-1,0,-2,-2,0,-1,0,7
83705785947,10,3,1,1,-1,0,-2,-10
83705792753,5,4,-1,-1,-1,0,0,3
83705792753,3,1,0,-2,-2,-1,-1,-7
83705809177,-6,-3,-1,0,0,-3,-1,8
83705809177,-4,-6,0,-1,-2,-1,-2,-6
83705810791,17,5,0,-1,-2,-2,-3,-1
83705810791,-5,-2,-1,0,1,-1,-1,-1
83705830733,8,-4,0,-2,-1,-1,0,0
83705830733,15,34,2,-1,0,0,-1,7
83705839304,-8,-14,2,1,1,0,0,-8
83705839304,0,-2,-3,-1,-1,-2,-1,4
83705845212,-17,1,-4,-3,-3,-4,-4,-24
83705845212,-4,3,-2,-2,-1,-2,0,-3
83705854313,-7,0,-1,-1,-1,-1,-2,0
83705854313,4,-1,1,1,-1,0,0,0
83705869329,1,-1,-1,1,-3,-1,-2,3
83705869329,-18,-14,-3,-3,-4,-1,-2,-12
83705870781,-1,3,-2,-2,-2,-2,-1,2
83705870781,2,-6,-2,-2,0,-1,-1,-7
83705891772,1,6,0,1,0,0,1,7
83705891772,4,-9,0,-1,-1,0,0,-1
83705893421,0,6,1,0,0,0,-1,2
83705893421,-6,1,-2,-3,-2,-2,-3,-9
83705905366,-1,-3,-1,-2,0,0,-1,4
83705905366,-5,-8,-2,-1,-2,0,-2,-2
83705914390,-1,0,-2,-2,-1,-2,-2,-6
83705914390,1,-2,-1,0,-1,0,0,2
83705929310,5,0,0,-1,0,-2,0,2
83705929310,-14,-10,-2,-1,-1,-2,0,1
83705930844,-6,0,-1,-1,-1,0,0,-1
83705930844,-1,-32,-5,-3,-4,-1,-1,7
83705951662,-2,-4,-2,-1,-2,0,1,0
83705951662,2,1,0,0,0,-2,0,-5
83705953219,-15,-22,-5,0,-1,-2,-2,0
83705953219,-11,4,-2,1,-1,-1,0,0
83705965405,13,5,1,-3,-2,0,0,-7
83705965405,-7,-8,-2,-2,-2,-1,0,-1
83705974442,8,4,-1,1,-2,0,0,2
83705974442,-4,-2,-2,-2,-1,-2,-2,0
83705989374,-5,-4,-1,-1,2,-2,-2,3
83705989374,3,0,0,3,0,0,0,-12
83705990870,-4,3,0,-1,-2,0,1,22
83705990870,5,6,0,-1,-2,-1,-1,-11
83706011586,-16,-1,-1,-1,-2,0,-1,-3
83706011586,5,-1,-1,-1,1,-2,1,7
83706014213,-1,2,-1,-1,-2,0,-2,-9
83706014213,0,-2,-1,1,-1,-1,-2,-1
83706025387,6,2,1,-3,-2,-3,-3,-1
83706025387,-3,-4,0,-1,-1,-2,-2,1
83706034344,1,5,0,-1,-1,-2,-1,-4
83706034344,-2,8,1,-1,1,0,1,4
83706049266,-2,-7,-2,1,-1,0,-1,0
83706049266,-2,0,-3,-1,-2,-1,-3,0
83706050746,0,-1,-2,-1,1,-1,-1,-3
83706050746,-1,1,-1,-1,-1,-2,0,-3
83706071933,0,2,-1,-3,0,-2,0,-1
83706071933,18,-4,-1,-3,-3,-3,-2,5
83706073341,-18,-1,2,1,-1,-1,-1,-14
83706073341,0,8,-1,-2,-1,-2,0,-1
83706085308,6,-2,1,-2,-2,0,1,-5
83706085308,-9,-2,-1,-1,0,0,-2,17
83706094326,-1,-5,-2,-3,-1,-2,1,-4
83706094326,6,7,-1,-2,-2,-1,0,1
83706109447,18,6,1,3,0,0,0,4
83706109447,6,2,-1,0,-1,-1,0,-8
83706110828,-2,12,1,-3,-2,0,-3,1
83706110828,2,-21,0,-2,-1,1,-2,2
83706131616,0,-3,-3,-1,-1,-1,-2,0
83706131616,-15,0,0,-2,-2,0,-2,-21
83706133214,1,-1,-2,0,-1,-1,0,-2
83706133214,-8,2,0,-2,-1,-2,-3,-12
83706145331,-5,-11,-2,-3,-3,-1,0,14
83706145331,-2,-5,0,1,0,0,-1,-1
83706154286,8,-8,-3,-1,-1,-2,-1,7
83706154286,2,-7,0,0,-1,-1,-2,-14
83706169169,-6,0,-1,0,-1,-1,-1,4
83706169169,-3,5,-2,-3,-2,0,-1,-2
83706170778,0,-5,-2,-1,0,-1,-2,3
83706170778,5,9,1,-1,-1,-1,0,4
83706191666,-5,4,0,0,0,-2,-2,-8
83706191666,2,-3,-3,-2,-2,-2,1,2
83706193257,-1,0,1,-2,-1,0,1,-7
83706193257,-3,-2,-1,-1,-1,-2,0,4
83706205295,-16,-2,-2,-1,-1,-2,-2,-9
83706205295,3,-4,-3,-1,0,0,0,19
83706214294,3,2,-4,-2,0,0,1,-9
83706214294,-7,0,-1,2,-1,-1,0,3
83706229164,-5,2,-2,1,-1,-1,0,-13
83706229164,8,-27,-2,-2,-4,-3,-1,31
83706230789,-8,-3,-4,-1,-1,-3,-4,-3
83706230789,0,-1,-1,-1,-3,-1,0,0
