timestamp,emg1,emg2,emg3,emg4,emg5,emg6,emg7,emg8
83660831849,2,1,0,-2,-2,1,-2,-3
83660831849,-2,-2,-1,-1,-2,1,-2,-1
83660833425,0,-2,-2,-1,1,1,-1,1
83660833425,-5,-2,-2,-1,-2,-1,-1,-5
83660854356,1,-2,-2,-2,-3,-1,0,0
83660854356,-1,-2,0,-1,-1,-2,0,1
83660856098,1,-2,-1,-1,-1,-2,0,0
83660856098,-11,-2,-1,0,-1,0,-1,-4
83660869389,-2,-2,-2,0,-1,-2,0,-3
83660869389,-2,-2,-1,-2,-1,0,-1,-2
83660870977,-3,-2,-1,-2,-2,0,1,-1
83660870977,7,3,1,-1,-1,-2,1,0
83660891809,-4,-5,1,-1,0,0,-1,-2
83660891809,-7,0,-1,-1,1,0,-1,-2
83660893414,0,0,0,0,-1,-1,0,-7
83660893414,3,-1,-1,0,0,-1,0,6
83660914356,0,-2,-2,0,0,-2,-2,-6
83660914356,2,2,0,0,-1,-1,-1,1
83660915982,-2,13,-2,-1,-1,-1,-2,-3
83660915982,-2,-22,-2,2,1,0,-1,1
83660928740,-1,0,-3,-3,-1,0,1,-2
83660928740,1,-1,-2,-3,-1,-1,-1,-2
83660935489,0,-1,-1,-2,-2,-1,-1,3
83660935489,-2,5,-2,-2,-2,0,0,-4
83660951812,-1,1,-1,-2,-2,-1,-1,1
83660951812,0,-5,0,-1,-1,-1,-1,-2
83660953476,0,-4,-1,-1,-2,-1,-2,4
83660953476,-2,2,0,-2,-1,-1,-1,-3
83660974350,1,-1,-2,0,-1,-3,-1,1
83660974350,0,1,-4,-1,-2,0,0,-2
83660975927,-1,-1,-1,-2,0,0,-1,-2
83660975927,0,1,-1,-1,-2,-2,-1,-2
83660988737,0,1,1,-3,-1,0,0,1
83660988737,-2,-1,1,0,-1,-1,-1,-3
83660995529,0,-5,-1,0,-2,0,-2,1
83660995529,0,0,-1,-2,-1,0,-1,1
83661011784,-3,-1,-1,1,0,-2,-1,-5
83661011784,1,2,-2,-2,-1,-3,0,-1
83661013447,-1,-2,-2,-2,0,1,-2,-2
83661013447,-7,2,2,-1,-1,-1,-3,-1
83661034401,2,-2,-1,-2,-1,-1,-2,1
83661034401,0,-4,-3,-5,-3,-2,0,0
83661035992,-4,-1,-1,-2,-2,-3,-1,-3
83661035992,-4,0,-2,-2,-2,1,-2,-4
83661048977,3,0,-1,-1,-1,-1,-2,3
83661048977,-17,-3,-1,1,0,-1,-2,0
83661055591,-4,-5,-1,-2,0,-2,0,0
83661055591,-4,-1,-3,-1,-1,-1,-1,-5
83661072047,4,2,-1,-1,-1,0,0,2
83661072047,3,0,0,1,0,1,-1,-2
83661073497,0,-2,0,1,-2,-1,0,-2
83661073497,-5,-2,0,7,0,-2,-1,-2
83661094425,5,-1,-2,-13,-3,-2,1,10
83661094425,0,2,-2,3,1,0,0,-1
83661095961,-3,-34,-4,0,-1,-1,-1,3
83661095961,2,-1,-3,-14,-4,0,1,-1
83661108806,-14,-1,-4,6,-1,-1,-1,-14
83661108806,10,-5,-2,-26,-4,-1,0,12
83661115485,-3,7,-1,3,-3,-2,-1,-2
83661115485,11,3,0,-9,0,0,-2,3
83661131813,-6,-6,0,12,4,-1,-3,-7
83661131813,4,1,-5,-6,-11,-2,-3,16
83661133437,-12,4,1,13,6,1,2,-16
83661133437,-5,-6,-3,13,-1,0,-2,-5
83661154294,4,5,0,-11,-7,-2,-2,-1
83661154294,-2,2,-1,7,3,-2,-3,6
83661155948,4,2,-4,-9,-1,0,3,5
83661155948,2,3,1,16,4,0,0,0
83661168028,-1,3,3,22,5,1,-2,-5
83661168028,-3,-12,-3,-6,-7,-1,-1,-9
83661177035,5,0,-6,-22,-5,-4,2,-1
83661177035,2,-1,2,19,4,-9,-4,1
83661191883,-6,2,-6,3,3,7,-1,2
83661191883,-3,-32,0,-12,-6,-2,-4,-13
83661193495,4,7,3,-7,-1,6,5,-1
83661193495,0,1,-7,-26,-5,-2,3,2
83661214365,5,-7,3,1,-4,-11,-9,-11
83661214365,7,11,2,20,10,1,7,12
83661215954,-12,-1,0,3,-6,1,-5,-1
83661215954,-8,-7,-6,-5,-3,-2,2,1
83661228007,-1,-5,-2,-8,-3,3,-6,1
83661228007,-22,9,0,16,3,-6,-9,-24
83661237009,16,1,-3,-21,-10,-4,2,13
83661237009,-4,5,5,0,11,10,10,-3
83661252089,2,3,5,-14,-3,-7,-4,18
83661252089,29,6,2,8,3,7,-4,-51
83661253415,-15,-10,-1,6,-4,-16,7,55
83661253415,-3,-6,-8,-18,-4,8,-4,6
83661274443,-4,-2,-7,3,-4,0,5,-7
83661274443,18,18,-1,-15,-2,8,7,10
83661276047,5,-11,8,20,10,-3,-8,-11
83661276047,2,2,2,-2,0,14,5,-5
83661288261,-17,-7,-1,-6,-5,-14,-2,4
83661288261,12,5,-4,16,3,-7,-5,15
83661297025,9,6,-2,12,-1,7,-5,-32
83661297025,-3,2,6,-5,0,-17,-4,88
83661312036,0,10,9,-14,-5,18,-2,-30
83661312036,-22,-9,-7,24,-2,8,-2,-24
83661313561,6,5,-6,-58,-14,-23,-1,35
83661313561,-5,-8,-2,3,-6,1,-5,-51
83661334570,32,9,4,17,10,-1,4,23
83661334570,-57,-4,-3,-16,6,6,-14,0
83661336018,10,-33,-10,19,6,-39,-2,-27
83661336018,7,4,-7,-11,-33,16,18,21
83661348180,11,0,-4,-2,-12,-22,-18,-18
83661348180,16,-4,9,-2,24,18,4,87
83661357073,-55,8,7,13,27,49,34,-85
83661357073,-1,6,2,3,-7,-6,17,-7
83661370677,-17,-13,-3,-1,10,2,-27,-16
83661370677,57,1,0,-22,-27,-65,-25,25
83661379549,10,10,4,27,16,36,-28,-18
83661379549,11,-5,-6,12,7,-26,20,11
83661394622,-3,1,-5,-6,-6,6,22,5
83661394622,-24,-2,-4,-12,5,-1,-5,-47
83661396023,-5,4,-3,-12,-5,-11,-10,31
83661396023,-3,-2,-5,-21,-33,-4,4,12
83661408245,1,-4,0,11,21,30,8,8
83661408245,1,-2,6,-12,-5,-5,10,-3
83661417038,-6,0,-9,23,1,-5,3,2
83661417038,-8,-20,5,-14,3,21,-30,-16
83661432103,1,1,-4,10,-6,-35,4,-1
83661432103,-28,-9,-13,-30,-17,95,40,40
83661433402,9,9,-2,17,-2,-91,-28,3
83661433402,0,4,-4,-17,-2,-11,15,-28
83661454602,-9,-3,1,43,33,21,-8,14
83661454602,-1,-8,0,-15,5,1,-37,-23
83661456034,7,0,2,23,-22,27,-6,7
83661456034,-2,0,-2,-34,-9,-39,-39,-14
83661477063,-9,-10,-3,-29,-41,-6,16,-12
83661477063,-10,7,0,9,9,-3,4,-22
83661478489,8,-1,2,-1,12,34,-7,-17
83661478489,-35,-3,-1,7,-13,-5,30,4
83661491218,0,2,-5,10,2,14,-7,-10
83661491218,6,-1,-3,-3,-15,-49,7,-5
83661497996,-6,-1,-3,-30,-14,-4,-6,7
83661497996,9,7,3,36,50,22,-17,-26
83661513449,-4,-2,-4,-37,-31,-2,2,16
83661513449,-1,-5,-3,17,-3,-12,-6,0
83661522023,-9,7,1,-28,-7,-10,0,-3
83661522023,28,16,-2,7,20,21,2,-1
83661528006,-31,3,-5,-15,8,-6,-2,-1
83661528006,-15,-15,4,26,0,-5,-6,-12
83661537004,7,6,-3,-14,-13,-13,14,21
83661537004,-15,-8,4,14,1,0,-16,-24
83661551186,11,2,-1,-10,-10,-3,-3,-7
83661551186,5,9,-3,-17,-13,1,7,-9
83661557996,-7,-6,0,5,17,16,6,-1
83661557996,6,3,-1,30,7,-9,-12,2
83661574387,5,-5,1,7,3,-10,3,-12
83661574387,4,-2,-8,-4,4,7,6,9
83661575958,-4,-3,15,-18,-20,-3,-3,11
83661575958,0,-1,-8,-14,9,-7,-6,5
83661587948,0,-4,4,5,-8,-1,0,1
83661587948,32,-4,-2,-17,-20,-11,-1,-2
83661596991,-14,-1,-2,45,34,7,-8,2
83661596991,12,-3,-5,-41,-34,0,12,21
83661611176,-23,-3,0,-5,22,1,-4,-4
83661611176,-1,0,6,23,-12,-6,4,-5
83661618011,6,3,-10,-2,-10,5,7,19
83661618011,14,1,10,5,20,5,-6,-2
83661634345,-2,-3,-10,-19,-9,-8,-1,-4
83661634345,-10,-1,5,8,18,-5,-5,-2
83661635938,4,0,-2,-15,-30,5,2,-7
83661635938,27,1,5,14,10,-4,-2,2
83661647982,-44,-3,1,-6,1,-5,-5,-16
83661647982,-7,4,-4,6,9,1,2,4
83661656977,2,0,9,-6,-3,4,0,-8
83661656977,6,6,-8,-16,-23,-6,-5,1
83661671200,19,-2,1,7,-4,-1,0,0
83661671200,-2,0,-4,6,7,0,2,5
83661678066,-17,-3,-2,-16,6,-2,0,-11
83661678066,-19,11,4,50,36,-1,-5,-3
83661694338,22,-3,-5,-4,-49,-2,4,9
83661694338,-11,3,4,-29,-12,-4,-1,24
83661695983,6,-11,-10,-4,16,-1,-8,-8
83661695983,-7,14,-3,-10,-15,-2,-2,-6
83661716815,12,2,1,-8,10,3,3,23
83661716815,10,-17,-6,-1,1,-1,-9,-15
83661718451,-4,-3,3,24,13,1,10,5
83661718451,-25,-26,-6,-4,-5,0,-6,-54
83661731121,-5,-7,-4,-6,16,1,7,13
83661731121,3,2,-2,-3,-33,-5,-7,-37
83661738020,10,-2,-5,-16,15,4,3,44
83661738020,-18,-11,1,15,-8,-2,-6,-30
83661754312,3,-3,-9,9,-4,-5,-6,-71
83661754312,41,31,11,7,7,3,16,91
83661755930,-25,-11,-6,23,6,-2,-7,-17
83661755930,17,-31,-16,-38,-19,-1,14,42
83661776877,-22,14,24,-2,-1,-4,-8,-17
83661776877,15,5,-19,16,12,-2,-5,-24
83661778432,-17,-3,30,-30,-18,0,1,-26
83661778432,5,2,-9,22,8,-3,-3,23
83661790498,-10,-6,-8,19,11,2,-12,-28
83661790498,7,-28,-29,-23,1,0,16,6
83661799482,-12,10,23,22,16,2,-7,-76
83661799482,42,9,12,-11,-32,1,7,54
83661814417,8,-1,-6,-16,-3,-7,-9,48
83661814417,-13,-12,-1,-17,-10,-3,-4,-26
83661815985,34,-5,-26,13,3,2,0,1
83661815985,-43,-12,10,6,18,0,-7,-53
83661836859,80,12,3,2,-7,-2,4,30
83661836859,-105,-4,21,40,10,-4,-40,-20
83661838480,5,9,-28,-56,-26,1,57,127
83661838480,85,15,-7,-4,4,3,-3,-32
83661850491,-87,-48,-11,10,5,-3,-3,-12
83661850491,1,-1,-3,13,1,-5,-7,-69
83661859513,61,16,51,14,-8,-2,-20,-48
83661859513,11,22,-11,-29,-7,-3,13,95
83661874326,-16,-2,-31,-17,-16,-1,11,5
83661874326,68,11,8,59,56,0,-1,-42
83661875954,-105,-27,-22,-21,-49,-9,-20,-104
83661875954,55,11,39,17,16,4,9,17
83661896843,11,15,12,-13,11,3,5,87
83661896843,-74,-2,8,-36,-36,-1,0,-7
83661898491,13,13,-13,22,20,-2,-4,1
83661898491,23,-18,-18,3,10,-4,-2,32
83661910594,-21,11,33,17,8,-5,-10,-40
83661910594,65,14,-12,-35,-21,-5,7,57
83661919584,89,2,7,20,39,4,11,66
83661919584,-116,-19,-18,-40,-95,-27,-30,-70
83661934375,99,4,-7,0,9,5,14,4
83661934375,25,1,7,3,3,1,16,11
83661936009,-23,-13,-15,-23,-14,15,-10,-40
83661936009,-9,2,-6,-7,15,-13,-11,-30
83661956982,33,-4,-3,18,37,13,7,78
83661956982,31,36,10,-51,-99,-14,9,3
83661958486,-10,-19,3,18,11,4,-1,-3
83661958486,60,3,4,40,36,14,-2,-17
83661970627,-48,5,-30,-9,-6,-13,-9,-37
83661970627,-20,1,-2,13,38,-7,10,2
83661979535,36,13,-6,-44,-5,-5,-18,17
83661979535,-9,3,4,-1,-7,7,7,-4
83661994458,-4,1,1,-28,-13,-1,-3,-38
83661994458,-4,-23,-4,26,29,2,-5,4
83661996047,-14,0,-13,-3,-31,-9,1,27
83661996047,-7,-2,-4,3,13,0,4,-6
83662018265,48,8,6,6,-6,2,4,0
83662018265,-77,-16,-8,-23,-10,3,-7,-26
83662019899,18,1,-2,3,8,-4,-1,9
83662019899,-43,-6,5,21,-2,4,-5,-9
83662030540,-7,-14,9,31,23,-1,5,-3
83662030540,25,-6,-2,-40,-4,0,-4,-3
83662039547,-9,10,-3,9,-5,6,-6,-11
83662039547,-15,-4,-6,-28,-12,7,7,-4
83662054361,-14,4,2,-22,-14,-10,-3,-21
83662054361,-5,-9,1,35,27,8,4,2
83662055963,-11,-22,-3,-7,-36,-3,-2,-4
83662055963,-22,-4,-9,11,35,-4,-13,-7
83662076779,-1,-3,28,-7,-46,3,9,1
83662076779,26,5,-2,19,30,-1,-3,-4
83662078693,-20,1,-5,-14,1,2,7,-2
83662078693,-2,-6,1,-1,2,-5,-2,-3
83662090724,18,5,-5,4,5,0,-5,-3
83662090724,-19,-18,3,3,-9,6,3,6
83662099531,19,4,7,-8,6,-5,0,-8
83662099531,-16,-7,-6,-11,-7,-10,-1,-9
83662114394,1,5,-8,-7,13,8,-9,-3
83662114394,-1,0,6,7,-11,-10,-7,4
83662115965,14,-3,-11,-13,25,3,1,1
83662115965,-17,2,0,6,-3,15,8,-2
83662136871,-5,-3,6,1,14,-13,0,-2
83662136871,5,3,0,7,-38,0,-8,-1
83662138482,-16,-1,-2,1,7,-14,-11,-11
83662138482,2,-1,0,-1,3,2,2,2
83662150704,-13,0,-10,-41,-26,4,4,-5
83662150704,-5,-23,-5,51,47,-6,-7,-3
83662159551,-13,10,2,-14,-22,-10,-5,-10
83662159551,1,2,-1,-1,1,8,4,15
83662174345,-9,-6,-3,36,10,6,2,-3
83662174345,-3,4,-5,-47,-19,-9,-3,-3
83662175945,6,-1,0,13,17,2,-1,4
83662175945,2,-1,3,-2,-6,-6,-2,6
83662204371,0,3,-2,1,1,0,-2,-1
83662204371,-18,5,-4,0,15,7,3,0
83662205962,-1,8,-2,4,-9,-1,1,-3
83662205962,-37,-30,2,1,-11,-9,-1,-4
83662210476,4,14,-3,3,-5,-3,-8,-14
83662210476,6,-10,-3,-21,6,5,-2,-3
83662219497,-34,-3,2,21,-8,-5,4,6
83662219497,14,7,1,-5,10,-3,-1,-5
83662234545,-2,-4,-1,3,-1,-3,5,4
83662234545,5,2,-4,-5,5,2,-1,-6
83662236016,32,4,2,8,-15,-3,-9,-6
83662236016,-60,-3,-4,-12,0,-1,1,-8
83662256874,-18,-7,-2,27,0,-3,-4,-2
83662256874,14,14,0,-22,-16,-1,-5,-13
83662258470,-6,5,1,27,35,3,9,31
83662258470,18,3,2,-9,-16,-2,-8,-12
83662270582,5,-4,-3,-19,-3,-1,10,12
83662270582,-11,-2,2,12,-6,2,-2,-5
83662279549,-11,-6,-1,2,8,-3,3,19
83662279549,21,17,-2,-7,-2,-1,-7,-6
83662294558,-13,-6,-8,-2,-12,-4,-7,-10
83662294558,3,-2,0,10,15,-1,-14,-21
83662296015,-2,-8,-3,-27,-15,-2,8,-4
83662296015,11,2,1,6,-4,-6,-18,-18
83662317029,7,-9,0,6,17,2,11,-7
83662317029,-40,-3,-5,-5,-24,1,7,-3
83662318557,-4,-4,-5,-14,22,3,1,8
83662318557,10,1,0,-6,-10,-6,-11,-2
83662330575,-4,9,-1,-33,-13,-4,-1,-19
83662330575,32,-4,12,41,20,-1,-3,5
83662339441,-18,-9,-14,7,-19,0,-2,-24
83662339441,-2,-7,-1,3,24,0,-1,-2
83662354772,2,-3,4,1,0,0,-13,-17
83662354772,28,8,-5,-32,-4,4,21,44
83662356364,5,0,4,17,12,3,4,-4
83662356364,10,3,4,6,12,0,-20,-30
83662376798,4,-12,-9,-8,-26,-2,17,39
83662376798,12,5,-3,-8,16,2,6,16
83662378471,-8,-14,3,-47,-34,-3,-2,-6
83662378471,-5,-2,3,69,35,-1,-7,-5
83662390468,0,0,1,-2,18,-1,-5,6
83662390468,-6,-4,-5,-33,-29,-5,-4,-7
83662399478,1,-9,-10,3,16,0,-7,6
83662399478,6,-1,-6,-22,-12,3,11,4
83662413865,-21,-5,4,59,12,-3,-13,-7
83662413865,-15,1,2,21,23,-3,-11,16
83662420530,29,15,-4,-22,-10,-5,8,-26
83662420530,7,8,2,-48,-33,-5,14,45
83662437102,-47,-6,-12,-9,4,3,1,-11
83662437102,1,-4,-6,8,-3,1,-1,-3
83662438567,3,2,15,12,3,-2,-12,-28
83662438567,51,11,-10,6,2,3,6,-43
83662450562,19,24,8,-12,-8,-3,-11,18
83662450562,-12,17,10,-6,-6,-6,-9,-22
83662459524,-15,-13,-15,22,-1,12,3,53
83662459524,62,-10,10,-17,2,-1,49,41
83662473975,-21,-43,-4,-1,-17,-5,-7,6
83662473975,56,34,11,4,23,0,-21,-10
83662480722,-36,17,-16,-10,3,-8,-7,-78
83662480722,-45,10,-3,-11,-7,0,-14,-10
83662504322,-7,-11,-8,0,1,2,7,14
83662504322,-12,-6,-14,-17,-10,-1,-21,-66
83662505905,13,-5,4,12,-6,-14,-12,81
83662505905,-49,-25,-18,8,12,4,9,-12
83662510489,-60,14,-3,-8,2,2,4,-11
83662510489,-30,-17,4,-7,-9,0,0,-49
83662519490,31,3,1,32,37,4,-12,-25
83662519490,60,33,18,24,-26,-9,-12,-27
83662533667,-65,-34,-10,-18,2,-8,-2,51
83662533667,41,-25,-9,-1,-10,0,0,20
83662540474,-32,20,2,-10,-7,3,17,26
83662540474,23,-4,7,-16,14,3,-4,60
83662557059,69,21,2,-12,-18,3,3,-94
83662557059,-61,-15,-12,-4,-1,-2,18,125
83662558464,-1,-6,12,-3,-18,11,1,-2
83662558464,-69,-9,1,2,-8,-26,-17,-21
83662570594,48,12,5,-18,0,0,3,19
83662570594,54,1,-13,3,19,4,9,7
83662579536,-75,-35,34,39,-18,10,-6,-42
83662579536,9,-14,-27,-35,-2,4,8,29
83662593798,-33,12,22,56,27,2,-14,-91
83662593798,2,-10,-16,-33,-37,-10,12,25
83662600537,21,3,-4,-9,21,-9,-4,-9
83662600537,49,7,-1,-38,-23,8,1,-9
83662616925,36,10,19,69,23,-18,-9,9
83662616925,-44,1,20,2,5,1,1,-29
83662618444,12,-3,-12,-13,-7,4,0,-5
83662618444,-7,5,4,-2,-9,0,-2,-6
83662630550,26,2,-19,-58,-54,-5,0,23
83662630550,-27,-1,10,80,12,6,2,-17
83662639489,27,2,8,-4,1,-5,-1,3
83662639489,-38,-8,-16,-23,-37,-17,-6,7
83662653672,-26,-11,-17,-46,19,3,-8,-10
83662653672,-58,-3,-2,34,-7,-4,-12,-34
83662660463,-10,-1,-17,-24,-28,-7,9,-10
83662660463,-4,-15,0,13,27,11,1,0
83662676870,44,-4,1,16,3,4,10,53
83662676870,-35,-6,-3,-22,-1,-1,-5,-32
83662678450,30,3,-5,1,12,0,-8,0
83662678450,-15,1,3,33,12,1,-5,-28
83662699414,16,17,-2,-25,-18,-2,-6,1
83662699414,27,-9,-1,-4,7,-1,4,14
83662700948,18,1,-5,-26,-9,-3,0,5
83662700948,1,-2,1,32,7,1,1,10
83662713722,-25,-3,-1,1,3,-2,-4,-9
83662713722,-11,5,1,-11,3,0,7,-4
83662720464,-4,-1,2,0,-7,-5,0,2
83662720464,1,2,0,-19,-10,-1,-1,-6
83662736966,-2,-8,5,32,31,3,1,-6
83662736966,46,11,5,-7,-5,-1,3,6
83662738526,-11,-5,-2,-5,-1,-3,-9,-23
83662738526,-28,-5,0,6,1,3,2,1
83662759321,12,-5,-5,-4,-3,1,3,16
83662759321,23,1,-1,-9,-6,0,2,-5
83662760974,-27,-8,-10,-2,-2,-11,-3,-14
83662760974,43,7,1,11,9,8,1,1
83662773088,-32,-10,-1,-4,-2,7,-2,-6
83662773088,-1,1,-1,-10,-3,-10,-3,6
83662782019,13,4,0,7,4,-3,-1,13
83662782019,8,-3,0,2,-1,-1,-6,-3
83662796820,25,0,-3,-7,1,5,6,14
83662796820,-9,-3,-2,-6,-6,-1,-6,-25
83662798384,9,1,1,6,2,1,10,13
83662798384,-23,-4,-1,-2,-2,-8,0,5
83662826868,9,2,-2,-9,-5,0,-8,-10
83662826868,-3,1,-2,-5,-3,-4,-26,1
83662828439,13,-16,-1,10,6,5,22,24
83662828439,-17,-2,-2,-2,-1,5,2,0
83662832915,2,0,1,1,0,-3,1,-5
83662832915,8,0,-1,-4,-6,-5,-2,3
83662842049,-1,3,-1,-2,-5,-9,-14,-4
83662842049,3,3,-1,-2,0,5,-1,0
83662856967,0,-6,-4,-6,-4,-1,-1,-1
83662856967,2,-1,-3,4,1,2,9,8
83662858521,1,3,-2,-5,-2,0,-7,-10
83662858521,-11,-2,-1,4,-1,-9,3,-2
83662879383,-1,0,-1,-5,-4,-4,-9,-6
83662879383,0,0,1,-3,3,6,5,1
83662880970,2,0,-1,0,-1,2,-1,-3
83662880970,-2,-1,-1,9,-2,0,-5,-1
83662894441,-3,-3,1,3,0,-1,2,-2
83662894441,2,-4,-4,21,-4,-14,0,5
83662902109,3,-1,-8,-71,-13,12,2,2
83662902109,-3,-1,0,-2,2,-9,-7,-16
83662916815,-13,0,0,2,3,-2,4,10
83662916815,0,0,3,26,0,6,8,4
83662918466,-3,0,0,3,-1,-5,-8,-3
83662918466,-7,-2,9,21,8,4,2,-3
83662939305,4,-6,-6,-33,-10,-5,-7,-8
83662939305,1,-3,-6,16,-2,-5,-4,-1
83662940928,-5,0,1,26,1,0,0,-2
83662940928,2,-2,-3,-2,-2,3,-1,3
83662952956,0,-1,7,17,9,-2,-1,-8
83662952956,-3,0,-2,-26,-5,0,3,8
83662961989,0,14,-1,11,-2,-5,-7,-22
83662961989,-3,-9,1,8,6,-4,0,14
83662976815,7,5,-3,0,-5,0,3,6
83662976815,0,-2,-2,-17,-2,2,-2,-5
83662978382,2,2,1,3,0,-4,2,4
83662978382,-3,0,-3,-8,-5,-4,-4,-7
83662999395,0,0,-3,24,4,0,-6,0
83662999395,0,-3,-2,-14,-3,0,0,5
83663000999,2,-5,0,5,8,12,1,5
83663000999,-4,0,-1,-23,-20,-18,-4,-3
83663021911,0,-5,-4,-5,-1,2,0,-5
83663021911,1,2,4,28,13,2,0,-1
83663023517,4,-3,-1,-6,-3,-4,-1,5
83663023517,-13,-3,-3,-6,1,6,0,-10
83663037056,1,2,-1,-16,-12,-6,-1,-1
83663037056,-1,-2,0,-1,-1,-2,-2,-2
83663038417,2,-1,0,11,4,1,-1,1
83663038417,4,1,-1,-2,-1,0,-2,5
83663059413,-2,-2,1,15,0,-4,0,2
83663059413,-2,-2,-1,-44,-1,6,2,-7
83663060921,-2,-5,-3,-7,-7,-7,-4,-2
83663060921,-2,1,-3,-1,0,-2,-1,0
83663073174,-2,-1,-3,-18,-4,-1,0,-3
83663073174,1,-1,-1,-5,3,-1,-1,0
83663082025,-2,0,1,9,-3,-1,-2,0
83663082025,2,1,-1,1,0,2,-1,-1
83663097133,-1,-3,-1,1,2,-2,0,-1
83663097133,-1,-1,0,2,-5,-1,-1,-4
83663098504,-2,-2,0,1,-6,-1,2,-2
83663098504,1,1,-1,8,13,1,2,3
83663119563,0,-1,1,-5,-14,-6,-4,-3
83663119563,-1,0,0,6,4,4,0,-1
83663120988,-5,-2,-3,-2,-7,0,-3,-1
83663120988,-2,-2,-3,-2,-6,-3,-2,-3
83663133219,0,0,-2,1,8,3,2,0
83663133219,-4,0,1,5,2,-4,-2,-4
83663141998,2,-2,-1,4,11,0,1,3
83663141998,-2,-1,-3,-7,-17,5,-3,3
83663157085,-2,0,-1,1,-1,-8,-5,-11
83663157085,-2,11,-1,3,-7,4,3,1
83663158529,-3,-10,0,-14,3,-2,-3,-16
83663158529,0,-1,-1,6,6,-2,1,-3
83663179152,5,2,2,26,2,3,2,12
83663179152,2,3,-11,-95,-21,-10,-2,-1
83663185449,-2,4,0,8,0,-4,-9,-16
83663185449,4,-1,2,10,4,1,7,20
83663192920,-5,-6,-5,-14,-1,1,1,-7
83663192920,2,-5,1,27,3,1,-1,-2
83663202019,1,0,-1,-5,-2,-1,1,5
83663202019,-4,-1,-4,-10,-3,-2,-4,4
83663216939,4,-1,1,8,1,0,-3,-3
83663216939,-3,-5,-2,12,1,-3,0,-8
83663218414,0,-2,-3,3,-2,-1,-1,11
83663218414,-2,9,-1,2,-4,-1,-3,-9
83663239588,-1,-1,-3,-7,2,-1,-2,-3
83663239588,-5,-5,0,3,1,-2,-6,-5
83663241007,1,-3,3,32,-8,-2,-4,-19
83663241007,-10,-5,-6,-40,-3,-2,2,16
83663252942,-3,0,-2,-5,0,-1,-3,-2
83663252942,-2,-6,-2,6,-6,-1,1,7
83663262125,0,9,2,20,6,-2,-3,-7
83663262125,4,-1,4,28,3,1,2,8
83663277066,-2,-1,-2,4,-3,-1,1,-5
83663277066,-1,-2,-1,6,4,-2,-1,6
83663278414,-5,-3,0,3,0,-1,2,1
83663278414,2,-5,-5,-63,-9,-1,-2,-12
83663299444,-1,-2,-2,-1,0,0,-1,4
83663299444,0,-1,2,14,2,-1,0,-2
83663300986,-2,-2,-4,-11,-2,0,2,7
83663300986,1,-2,0,16,3,-1,-3,-11
83663313215,-1,2,0,1,0,0,1,2
83663313215,-2,0,2,-2,-4,-3,-2,0
83663322070,-5,-3,-2,-15,-3,-1,0,6
83663322070,3,-2,0,12,3,-2,-2,-6
83663336524,-4,-2,-3,-7,-2,-1,-1,-5
83663336524,-1,0,-2,6,2,0,1,-1
83663343274,-2,-4,-3,-7,-1,-1,-1,3
83663343274,-1,1,-2,9,-2,0,-3,-7
83663359487,-3,-1,-2,-3,-3,0,-1,-1
83663359487,1,-1,-3,0,-2,0,-2,-1
83663360953,3,0,-2,-3,0,-2,-1,1
83663360953,0,-2,-1,2,1,0,0,-7
83663372912,0,-1,-2,-4,-3,-1,-3,-1
83663372912,-4,-1,-2,-1,0,0,-2,0
83663382018,-2,-2,-3,-9,-3,-1,-1,0
83663382018,-1,-2,-1,4,0,-2,-1,-3
83663396185,-4,-2,0,-2,0,-2,-1,0
83663396185,-1,-1,0,0,0,-2,-2,-2
83663403173,1,-1,-2,-4,-1,-1,-1,0
83663403173,0,-1,-2,4,0,-2,-5,-3
83663419385,-2,1,-2,-2,-3,-2,-1,0
83663419385,-1,-2,-1,-2,-1,-1,0,1
83663420959,-1,-1,-3,-4,-1,-2,0,2
83663420959,-3,-4,0,2,-1,-1,0,-3
83663433251,0,-1,-1,-3,1,-1,0,-2
83663433251,-1,12,-1,0,-1,0,-2,-1
83663442012,-1,-2,-2,-8,-2,-1,0,0
83663442012,-1,1,2,0,0,0,-1,-3
83663456487,-1,-4,0,9,-1,-2,-4,-1
83663456487,0,-1,-1,-9,-3,-1,2,-1
83663463302,1,-1,-1,2,-3,-1,-3,-1
83663463302,-1,-2,-3,-5,0,-2,-2,-1
83663479601,1,2,-1,-2,-2,1,-1,-2
83663479601,-3,-5,-1,-2,-2,-3,-1,-2
83663480975,7,-3,-2,1,2,0,-3,1
83663480975,-5,-3,-1,-2,-5,-1,-2,-3
83663493111,-1,-3,-2,-3,-1,-1,-2,-1
83663493111,1,-4,0,17,-2,-3,-1,-1
83663502024,0,-1,0,-7,-1,-2,0,-2
83663502024,-2,0,-3,6,-1,-2,-1,3
83663516438,1,15,0,-6,-2,0,0,-4
83663516438,-11,-12,-3,-5,0,0,-1,0
83663530619,0,1,1,-11,-2,-2,-1,-2
83663530619,0,-1,-1,15,1,-3,0,-1
83663546886,-2,0,-2,-6,-3,-1,-1,0
83663546886,3,-1,1,-3,-3,0,-2,-1
83663548472,-3,1,1,3,-1,-1,-2,-2
83663548472,-5,-3,0,-7,-1,1,0,-2
83663552955,1,-6,-1,-2,-1,-2,-1,-4
83663552955,3,1,-1,3,0,-1,0,0
83663562052,-3,-5,-1,-1,1,1,1,-1
83663562052,1,4,-1,-20,-8,-2,-2,-2
83663576405,12,-4,-4,-6,-1,-1,0,10
83663576405,3,-4,-2,1,-1,-1,-4,-1
83663583061,-16,-3,-2,1,0,-1,-2,-7
83663583061,-5,1,1,4,4,1,-1,4
83663599368,-14,-5,-2,6,1,0,-3,-17
83663599368,11,-11,-3,-13,-2,0,2,19
83663600980,-3,-4,0,13,-2,-2,0,-1
83663600980,12,8,1,1,0,-1,-2,-10
83663622099,-5,22,2,0,0,-2,0,-6
83663622099,-7,-27,-3,2,0,0,-2,-7
83663623471,10,5,2,5,-1,0,-1,2
83663623471,-50,-45,-6,-4,-3,-2,-2,-4
83663636214,8,-2,0,-1,1,-2,0,7
83663636214,24,24,11,8,3,1,2,0
83663643228,4,18,2,-4,-1,-2,-1,0
83663643228,24,-31,-5,1,-1,-2,0,8
83663659460,9,20,3,-2,0,1,1,-8
83663659460,-7,1,-6,-6,-2,-2,2,17
83663660975,-7,-4,0,-5,3,-1,0,1
83663660975,49,22,4,-5,0,1,2,-2
83663682053,-13,-23,-2,1,-2,-2,-1,0
83663682053,3,9,-1,-4,1,0,-2,-6
83663683391,5,17,0,3,-2,0,-1,-1
83663683391,-11,7,-4,0,1,0,-2,3
83663695535,1,-8,-2,-2,0,-2,-1,3
83663695535,-12,1,-4,-2,-2,-1,-4,-13
83663704511,-9,-18,-7,-9,-3,-2,-3,2
83663704511,-9,6,0,2,1,-2,-2,-6
83663719428,-2,-12,-3,-1,-4,-1,-3,3
83663719428,-5,3,-1,1,1,1,1,-4
83663720933,-6,-15,-2,-2,-2,-1,-2,-3
83663720933,3,6,1,1,-1,-1,-2,-2
83663741847,-3,9,-1,0,-2,-2,-1,4
83663741847,-8,-3,-3,-1,-2,-2,-1,-4
83663743438,8,-3,-2,-1,-1,0,-1,-6
83663743438,16,13,2,1,0,0,0,13
83663755461,-24,-11,2,-1,0,-1,-2,-2
83663755461,-3,-1,2,0,-1,-2,-2,-5
83663764429,-3,-4,-3,-2,-2,-1,0,2
83663764429,-6,5,0,1,-1,-2,-1,-4
83663779335,-2,-19,-6,-3,-1,-3,-2,-3
83663779335,7,7,1,-1,-1,-1,-1,2
83663780948,2,6,0,-2,-2,-1,2,-2
83663780948,-8,-5,-3,-2,-3,-1,1,-2
83663801833,1,-1,-2,-2,0,-1,-1,1
83663801833,-9,-5,-4,-2,-3,-2,-3,-11
83663803477,-2,-3,-3,-1,-1,-1,-1,1
83663803477,-4,4,0,1,-1,0,-1,-3
83663815480,-1,1,2,0,-3,0,0,-3
83663815480,-5,-7,-2,-1,-2,-3,-1,-9
83663824510,-10,10,0,1,-2,-1,-1,4
83663824510,15,-26,-2,-1,-1,-1,0,-1
83663839329,-23,-11,-1,-1,-1,-1,-3,-9
83663839329,11,15,1,0,-1,0,0,5
83663840951,-4,1,-2,-1,-1,-1,1,1
83663840951,-15,6,-1,-1,-1,-2,-1,-5
83663861779,9,7,-1,-3,-2,0,-2,-3
83663861779,-3,-6,-1,1,1,0,1,-1
83663863425,13,-4,1,0,-1,-1,0,0
83663863425,-33,-4,-4,-2,-3,-3,-1,-3
83663875468,29,11,5,1,1,1,0,2
83663875468,-8,-5,-3,-1,-3,-3,-1,0
83663884515,8,-3,-3,0,-1,0,-2,1
83663884515,-2,5,-1,-3,-1,-2,-2,-3
83663899366,-6,-3,-2,-1,-1,-2,-2,1
83663899366,-1,-4,-2,-2,0,-1,-4,-1
83663900970,-6,-4,-1,-3,-3,-2,-1,-5
83663900970,3,0,0,-1,-1,0,2,0
83663921872,13,-2,-1,-1,-2,-1,-2,-8
83663921872,-8,5,-1,-2,-2,-1,-1,14
83663923420,-2,2,-1,-1,1,-1,-2,-1
83663923420,2,1,0,1,-1,-1,-2,-1
83663936188,4,-1,0,0,0,-1,0,-2
83663936188,3,-2,-2,0,0,-1,1,-6
83663942999,-7,-9,-2,-1,-1,-2,0,-4
83663942999,-5,0,0,-2,-1,-1,0,-1
83663959314,-2,1,-3,0,-2,-2,-2,5
83663959314,-2,-4,-1,-2,-2,0,-1,-3
83663960980,0,-5,-2,-3,-1,-1,-2,0
83663960980,19,0,-1,-2,-2,-2,-1,0
83663982213,-21,-4,0,-1,-1,0,0,-2
83663982213,11,8,1,0,-2,0,-1,0
83663983397,0,0,-1,-2,-2,-1,0,-2
83663983397,1,0,-2,1,-1,1,-2,-3
83663996408,1,-1,-3,-1,-2,1,1,2
83663996408,6,-4,-2,0,0,-1,-2,-2
83664003050,1,4,2,0,0,0,-3,0
83664003050,5,2,1,-2,-1,-1,-1,-6
83664019318,-6,-3,-3,-2,-2,-1,0,9
83664019318,3,-1,0,0,0,-1,0,-4
83664020894,-1,-6,-3,-2,-1,-2,-2,-1
83664020894,-4,0,-1,1,-1,0,-1,-2
83664049345,3,1,1,1,-2,0,-1,-2
83664049345,-9,-10,-2,-4,-3,-1,-3,-4
83664051013,0,8,-1,-1,0,-2,1,0
83664051013,-13,1,0,1,0,-1,-2,0
83664056144,-10,-2,-4,-2,-2,-1,-2,-3
83664056144,-6,-1,-3,0,-1,-2,-2,-1
83664063257,-1,-3,-2,-1,-2,0,-1,-3
83664063257,-2,1,-2,-2,0,-1,-1,-1
83664079403,4,-2,-3,-2,0,-3,0,-2
83664079403,-9,-2,-1,-1,-1,-2,-2,-12
83664080984,8,16,-1,-3,-3,-2,-2,2
83664080984,-7,-5,-1,1,-1,-1,-1,2
83664101851,-7,-2,-1,-2,0,-1,-1,1
83664101851,-11,-2,2,0,-1,-2,-2,-12
83664103429,-9,-32,-5,-1,-2,-3,-1,2
83664103429,-3,0,-1,-3,-2,-1,-2,0
83664115503,12,-4,1,-3,-1,0,-1,-2
83664115503,0,-2,-1,-2,0,0,0,1
83664124540,-2,6,-1,0,0,0,-1,-9
83664124540,0,-6,-6,-3,-1,-2,1,12
83664139397,13,-2,1,-1,-1,-1,0,6
83664139397,10,0,-1,-2,-2,-1,0,26
83664141034,-3,-3,-1,-1,-2,0,1,-8
83664141034,-2,-2,1,0,0,-1,-1,0
83664161891,-3,7,-1,0,0,-2,-2,-1
83664161891,-6,-3,-2,-1,-2,-1,0,-4
83664163360,-5,1,1,0,-2,-3,-1,20
83664163360,-14,-9,-4,-2,1,-2,-3,-7
83664175647,-2,-1,-2,0,-1,-1,0,-2
83664175647,0,5,-1,-2,-1,-1,-1,-4
83664184535,-7,-26,-4,-3,-1,-1,-1,-8
83664184535,3,10,2,0,-1,-2,-2,-9
83664199453,-5,-2,-1,-1,-2,-2,-1,0
83664199453,0,-2,-1,-1,-2,0,1,-3
83664200966,6,23,-1,-2,0,-2,-1,-2
83664200966,6,-1,-3,-1,-1,0,-1,4
83664222045,-8,-1,-1,0,-1,-2,-2,-16
83664222045,5,7,0,1,-1,-1,-1,3
83664223551,-3,-4,0,0,-1,-1,-1,0
83664223551,8,6,-2,0,-1,-1,-1,1
83664235430,-2,4,0,-2,-3,0,-2,-4
83664235430,-2,-1,-4,-1,-3,-2,-3,-8
83664244481,-3,10,3,0,0,-1,-2,2
83664244481,6,-2,0,-1,-2,-1,-2,8
83664259337,-9,-8,-1,-3,2,0,4,-4
83664259337,3,-2,-1,0,0,-1,-1,0
83664260989,8,2,-2,-2,-3,0,-3,-2
83664260989,-4,-4,1,-2,-2,0,0,-3
83664289324,5,5,-1,-2,-1,-1,-3,3
83664289324,-4,-3,-2,-2,0,0,0,1
83664290953,-1,-4,-1,0,0,-1,0,-7
83664290953,-2,4,-2,-3,-2,-3,0,4
83664295444,2,-3,-1,0,-1,-1,-1,2
83664295444,-8,-6,0,-2,0,-1,-1,-4
83664304567,2,-5,-2,-2,-3,-1,-2,0
83664304567,-2,0,0,-1,-1,0,0,-5
83664319629,0,-2,-1,-1,0,-2,-2,1
83664319629,-11,-11,-3,-3,-4,-3,-2,0
83664320981,-6,2,-2,0,0,-2,0,-6
83664320981,6,-1,1,-2,-1,-1,0,-10
83664341869,-13,-3,-3,0,-1,0,0,2
83664341869,0,-16,-1,-1,-1,0,-1,-6
83664343509,7,-3,-2,-1,-2,0,-1,11
83664343509,3,-3,-4,-3,0,1,-1,-6
83664355740,-7,-7,-1,-1,-1,-1,-3,-5
83664355740,10,10,-1,1,0,-1,0,14
83664364534,-10,-6,0,-2,-1,-2,-2,-18
83664364534,1,-3,0,1,-1,0,-1,-4
83664379401,8,11,0,-2,-2,0,-1,2
83664379401,-6,1,0,-1,-1,-1,-2,-7
83664381010,5,1,0,0,-3,-2,-1,3
83664381010,-14,2,-3,-1,-1,0,-1,3
83664401809,-3,-2,-1,-1,-1,-2,-2,-5
83664401809,-2,5,-1,-1,0,0,0,-1
83664407985,-11,-4,-3,-1,0,-1,1,0
83664407985,0,-1,-1,1,-3,-1,-2,-1
83664415429,3,-3,-1,-2,-2,-1,-1,3
83664415429,-2,-2,-2,-1,0,0,0,-2
83664424530,3,1,-2,0,-2,-1,0,1
83664424530,-3,-1,0,-1,-1,-3,0,-5
83664447025,-12,-2,-2,0,0,-1,-3,0
83664447025,-5,-3,-2,-2,-2,-1,-2,5
83664448521,-2,2,0,0,-2,0,-1,-4
83664448521,0,-1,-2,-2,0,0,0,2
83664461926,1,-4,-3,0,0,0,-2,-8
83664461926,2,0,-1,0,0,-1,-1,-2
83664463521,-3,-2,-2,-1,0,-1,0,1
83664463521,-1,-9,-1,-2,-1,0,-3,6
83664475463,-10,23,-2,-2,-3,-1,1,-17
83664475463,-3,-11,1,0,-2,1,-1,-6
83664484492,-4,-9,-2,-2,-1,-1,-1,6
83664484492,4,5,-1,-1,0,-1,-1,-1
83664499411,9,0,-2,-2,0,-2,-2,6
83664499411,-19,-3,-1,-1,-2,-3,-2,1
83664501098,-4,-2,1,-1,1,0,-3,-8
83664501098,8,5,0,0,-1,0,0,2
83664521956,1,-5,-2,-1,-1,-2,0,7
83664521956,6,4,-1,-1,-3,-1,0,-7
83664523446,11,-4,-1,-2,-1,-2,-2,2
83664523446,-12,-2,-1,-1,1,-2,1,-5
83664535505,7,-8,0,-1,-1,-2,1,0
83664535505,5,3,-1,-1,-1,0,-1,-1
83664544503,0,4,-3,-2,-1,-1,0,0
83664544503,-1,-3,-2,1,-2,-1,0,-1
83664560146,1,-3,-1,-1,0,-1,-1,0
83664560146,-7,5,-2,-2,-1,-1,-1,1
83664560944,-3,-2,0,-1,-2,-1,-1,0
83664560944,-4,-4,-1,0,-2,-2,-2,-11
83664581839,-1,-3,-1,0,-3,0,-1,5
83664581839,-1,1,0,0,0,0,0,1
83664583417,-2,-4,-4,-1,-1,0,-1,-3
83664583417,2,8,-1,0,-2,-1,-2,0
83664604316,3,-28,0,0,-2,-1,-1,-3
83664604316,4,-1,-1,0,-1,-2,1,1
83664605944,-2,1,0,-1,-1,-2,-2,-1
83664605944,-2,-2,-1,-2,-2,-2,-1,-6
83664619530,-5,-1,-2,-1,-1,-1,0,-4
83664619530,0,0,0,-1,0,-1,-2,-1
83664620944,-6,-6,-1,-1,-1,0,0,0
83664620944,2,6,0,-2,1,0,-1,-1
83664642080,3,4,-2,-1,-2,-1,0,0
83664642080,3,0,-3,-1,-1,1,0,-1
83664643477,6,7,0,-1,-1,-1,-1,-6
83664643477,-6,-1,0,-1,-3,-2,-1,3
83664664583,-2,3,-1,0,-3,-2,-1,0
83664664583,2,-2,-1,-3,0,-3,-2,18
83664666026,14,5,-2,-1,-2,-2,-1,-5
83664666026,-4,-5,1,0,1,-1,1,1
83664679329,-7,0,1,-1,1,-1,-1,-2
83664679329,-7,-1,-3,-2,-3,-1,-3,-6
83664680960,-3,-3,-2,0,-1,-2,-1,1
83664680960,0,-2,-2,-2,-2,-2,-2,0
