timestamp,emg1,emg2,emg3,emg4,emg5,emg6,emg7,emg8
82530083746,1,-1,0,4,1,-1,-3,-2
82530083746,-12,-2,0,0,1,4,-1,-4
82530093231,-1,0,-3,-2,-2,-18,-4,-2
82530093231,-2,-2,-2,-2,-4,5,-2,-2
82530093996,2,0,0,-1,0,-2,-2,0
82530093996,3,-1,-1,0,-2,1,-1,-1
82530094809,0,-1,-1,-1,5,4,-1,2
82530094809,0,1,-1,8,-4,-11,0,1
82530098988,-3,-2,-2,-4,-2,8,5,-3
82530098988,2,-1,-1,-2,-4,1,0,1
82530099830,-2,-2,-2,-3,-1,-2,-2,-3
82530099830,0,-1,0,-1,-4,-6,-2,-1
82530117226,-3,-2,0,-4,1,2,-1,-2
82530117226,10,1,-1,7,4,-3,-1,2
82530120763,9,0,-1,-1,0,-7,2,1
82530120763,6,2,-1,-8,3,3,0,7
82530137526,29,1,0,4,-15,-14,-2,8
82530137526,-98,-12,-5,-3,5,15,2,-21
82530152026,6,1,-2,-4,-5,-4,-1,7
82530152026,4,-1,2,12,2,-7,0,-5
82530158728,10,2,-4,-6,5,10,0,1
82530158728,61,5,0,2,-5,-12,-2,14
82530199931,32,-5,-3,4,0,-8,-5,-2
82530199931,-79,-11,-3,0,0,2,-7,-34
82530200766,-6,-9,-8,-17,-1,10,2,-4
82530200766,-18,-3,-4,-20,-8,-1,-2,-68
82530203805,56,10,6,26,9,-7,2,74
82530203805,11,-4,-3,-4,-12,-14,-8,-22
82530204579,27,8,3,13,8,-6,1,-3
82530204579,-50,-25,-4,7,7,17,11,-17
82530211274,-39,5,5,-5,-9,0,-2,19
82530211274,20,4,1,-10,14,22,5,22
82530218119,-9,-7,-7,-25,-41,-29,-9,13
82530218119,36,7,0,3,0,-3,0,17
82530225612,-19,-5,-3,-3,5,11,5,-24
82530225612,6,1,1,11,-3,-7,-9,-8
82530240577,2,5,5,8,20,25,9,6
82530240577,10,1,-2,-15,-11,-14,-8,11
82530248801,10,-3,-6,9,-8,-23,-7,-16
82530248801,-7,0,-4,-23,-7,-7,-5,-8
82530271939,28,-3,-1,-5,2,3,9,7
82530271939,-12,1,1,24,11,17,7,-5
82530272733,-9,-2,-1,4,3,-8,-1,0
82530272733,-25,-12,-5,2,-2,-11,-15,-55
82530286430,3,17,0,7,2,-3,-13,-26
82530286430,16,-8,-1,-8,-17,3,-1,65
82530287120,12,4,2,-11,3,-6,9,-23
82530287120,34,7,6,19,6,11,19,62
82530309499,-17,-2,0,19,0,-9,-6,-5
82530309499,7,6,-1,-24,-11,6,-8,-13
82530310274,-25,-6,-5,-11,-2,-9,-16,-11
82530310274,20,1,1,-15,-12,13,6,27
82530331964,-7,-3,0,17,8,11,12,-6
82530331964,-5,-3,-5,-6,4,-32,-3,4
82530332742,-11,-1,3,22,17,20,-4,3
82530332742,4,2,-2,-8,-37,-42,-15,-2
82530346284,-2,0,-2,-30,12,40,10,-6
82530346284,-21,-3,1,23,-8,-15,-4,-21
82530347066,2,-2,-6,-17,-1,9,0,1
82530347066,9,3,2,21,17,-2,0,4
82530369428,-26,-9,-3,-2,-9,-9,7,12
82530369428,4,3,2,10,7,-7,-6,-1
82530370206,17,0,-4,-30,-11,12,-18,0
82530370206,-48,-25,-5,-15,-12,-3,17,7
82530391956,-3,-7,-2,24,3,1,-11,-16
82530391956,21,2,-1,-15,3,2,5,-42
82530392751,-16,-4,-3,12,0,-20,18,48
82530392751,-1,1,-4,10,13,-6,-22,-42
82530406334,14,4,10,36,17,-8,-7,9
82530406334,-7,-3,-4,-36,-29,12,-1,22
82530407104,41,7,-2,-33,-16,39,11,-31
82530407104,-58,-6,1,9,11,-33,11,-22
82530437116,7,-1,1,-39,-11,-7,-25,8
82530437116,-11,-3,3,89,45,4,11,-5
82530437884,-7,2,1,-16,-12,-11,-32,-26
82530437884,36,18,-3,-5,5,27,1,20
82530452229,5,-1,-6,-22,-8,-21,9,-19
82530452229,-6,2,2,-8,1,7,4,33
82530452772,37,-1,-1,12,-7,1,16,-4
82530452772,-38,-3,-6,-28,-3,14,-1,0
82530466508,-1,-8,-4,42,6,-5,-11,33
82530466508,-15,5,3,-12,6,-15,-31,-40
82530467138,-8,0,3,0,-8,-12,11,40
82530467138,33,0,-3,-23,-10,19,30,44
82530489563,-1,2,-1,20,-2,-9,-14,-36
82530489563,6,-2,1,2,0,-10,-13,-1
82530490376,-12,-2,1,21,23,4,23,43
82530490376,26,-6,-5,-13,-8,-5,-28,-37
82530512043,-5,2,-1,-24,-10,-1,14,23
82530512043,31,2,0,-1,-2,-2,10,48
82530513670,-50,-5,-3,-11,-12,-10,-15,-58
82530513670,18,15,-1,-15,-2,6,2,9
82530526507,29,-3,2,12,11,-4,1,13
82530526507,2,4,-3,10,4,9,-4,2
82530527109,-45,-8,-9,-41,-23,-4,-5,-25
82530527109,0,0,12,66,38,-1,-13,12
82530549702,4,1,-6,-11,-16,2,26,-22
82530549702,3,-1,0,-11,9,-5,22,12
82530550354,25,3,0,11,-5,3,-2,-21
82530550354,-30,-11,-3,-31,-24,-10,4,3
82530572207,-19,-3,3,25,25,-4,-53,-30
82530572207,-2,-2,-4,6,-14,0,16,-3
82530572783,-12,-2,1,-26,-3,-3,15,-18
82530572783,31,-1,-2,32,25,8,4,6
82530586542,-24,0,-1,-23,-37,-8,-1,18
82530586542,-7,-2,-2,12,11,-1,-6,-33
82530587131,5,-4,-6,-20,8,3,4,40
82530587131,36,6,5,33,7,-4,-30,-41
82530609690,17,0,0,-4,-2,1,39,10
82530609690,-55,-23,-10,5,-2,4,-5,-13
82530610362,-2,1,0,-8,-14,-2,-10,-61
82530610362,27,-1,-4,-65,-5,3,19,60
82530631983,-31,-37,-1,63,-11,-6,-1,15
82530631983,6,10,3,-26,-12,0,-12,-26
82530632748,22,3,-6,10,12,-1,-10,-24
82530632748,-65,-20,1,-2,-8,0,31,-18
82530646306,79,34,3,-50,2,0,-13,5
82530646306,-35,-13,-6,7,-1,0,3,-23
82530647175,-15,-17,3,37,8,-3,-20,13
82530647175,15,2,4,13,-10,1,21,4
82530669683,-43,4,-8,-46,-3,0,-3,-29
82530669683,-18,-28,0,6,-1,0,18,58
82530670307,95,50,11,-10,-4,3,10,50
82530670307,-69,-42,-4,42,10,-10,-30,-78
82530692179,45,15,3,7,22,7,21,69
82530692179,81,11,5,-25,-26,3,4,32
82530693641,15,-37,-8,-9,-14,-4,2,13
82530693641,-54,17,14,-16,6,1,-6,9
82530705753,-14,22,-9,-7,-11,-2,-12,-58
82530705753,26,-5,6,54,20,-6,-16,10
82530714664,-35,-4,-13,3,19,-1,-3,-59
82530714664,1,-2,7,10,-20,-11,-12,-10
82530728169,-13,12,9,-47,-3,7,-12,-5
82530728169,69,-15,9,30,10,4,6,26
82530737130,-123,-12,-21,-12,4,-4,4,42
82530737130,-19,2,-13,13,-5,-2,-3,-72
82530753403,75,-36,12,6,-1,-4,-7,65
82530753403,-70,6,-19,-53,-18,6,22,-15
82530755027,114,18,43,1,-1,1,-20,-44
82530755027,-58,-21,-28,42,18,-6,-4,78
82530765732,56,-29,-40,-9,-14,-2,31,81
82530765732,-98,20,15,-46,-10,-1,-24,-113
82530774705,-18,-32,-26,10,6,-8,-12,-38
82530774705,-26,12,-18,-112,-34,0,3,28
82530789084,-4,18,-8,54,20,1,-2,-105
82530789084,-5,-18,35,83,0,-17,-15,31
82530795649,-23,9,4,-12,-5,14,2,-67
82530795649,47,-7,-10,-39,-5,-12,0,-6
82530812221,-30,7,29,-14,1,1,-11,-25
82530812221,-37,-3,-47,-33,-4,10,3,-17
82530813627,-8,5,6,11,23,-18,7,64
82530813627,39,3,5,-72,-59,1,-1,-46
82530825621,-52,-20,7,44,6,1,-5,-14
82530825621,55,18,-14,7,4,-3,-3,23
82530834661,57,-12,7,0,-24,60,30,23
82530834661,3,16,3,39,37,-54,-65,-42
82530848941,-20,-6,-25,-10,5,17,26,48
82530848941,13,-1,3,-7,1,25,44,-5
82530855671,1,4,-6,-12,-16,-25,-18,14
82530855671,64,6,12,12,-10,3,5,18
82530872212,-55,4,7,-25,-2,-19,-21,-31
82530872212,109,0,-6,-1,36,-25,-36,17
82530873627,-93,-11,-2,52,-9,-11,-2,-4
82530873627,36,-5,4,14,53,30,23,12
82530885748,-8,-5,0,-13,-35,-8,-16,-16
82530885748,-28,11,-2,-46,-14,8,8,7
82530894668,-7,3,-1,-17,-9,-11,-11,-35
82530894668,9,3,9,46,11,20,24,29
82530909046,2,1,-1,-31,-11,0,-5,-9
82530909046,-12,3,3,13,38,-8,-23,-13
82530915846,-14,-5,3,28,-6,-3,-7,-10
82530915846,5,0,-7,-26,-12,-8,-4,21
82530932164,11,1,4,12,3,-2,11,2
82530932164,2,7,1,14,-18,-2,-6,23
82530933675,5,3,-6,-28,8,-4,3,31
82530933675,35,6,0,19,12,15,5,13
82530945706,-34,-4,-4,-13,-16,-7,-10,-36
82530945706,-8,-3,1,18,1,-11,-12,-8
82530954707,-14,2,-6,-15,-4,2,-9,-22
82530954707,0,0,-4,-3,-3,7,18,20
82530969065,1,-7,-3,37,6,-4,-9,3
82530969065,5,-18,-5,-27,-9,-2,8,-10
82530975781,28,2,5,-3,-8,-7,4,8
82530975781,-43,-2,0,24,3,3,-4,6
82530992080,4,-3,-2,-3,-2,-8,-19,-22
82530992080,-9,-2,-8,-42,-29,8,17,24
82530993613,9,5,4,8,17,-8,-8,-25
82530993613,11,5,-1,1,-6,-6,-9,-18
82531005704,-10,-24,-2,-5,-1,1,6,51
82531005704,10,9,4,-9,3,-6,-8,-15
82531014662,0,3,1,6,-8,1,14,31
82531014662,7,6,4,7,10,1,-1,-23
82531028404,-24,2,2,-5,-14,-2,-2,11
82531028404,-1,5,-1,3,-7,-5,4,-21
82531037223,-2,-5,-3,13,12,0,-3,9
82531037223,3,-1,-4,-31,-15,0,0,-28
82531052226,22,9,0,6,17,-1,-2,-21
82531052226,-59,-11,-3,4,-12,-6,-19,-15
82531053689,15,0,0,-5,-2,2,13,6
82531053689,13,2,5,20,5,1,-2,10
82531065806,-7,-3,-8,-19,-6,-2,-2,-9
82531065806,8,7,2,-12,13,2,-8,-10
82531074723,14,1,-1,-1,-3,1,1,18
82531074723,-25,-5,-8,8,-3,-2,-2,31
82531088935,14,2,1,1,4,-1,-7,-46
82531088935,-16,2,2,8,-2,-3,5,24
82531095750,2,-12,-3,-13,1,-4,-7,-64
82531095750,-5,5,4,8,-11,5,20,57
82531112100,-7,10,0,-14,4,1,5,-23
82531112100,9,-9,-3,-4,-7,1,-5,37
82531113662,14,2,5,10,-6,-3,0,-2
82531113662,-41,-22,-7,-2,-12,-2,2,-8
82531125778,38,8,4,5,17,4,3,20
82531125778,-8,-14,-3,-16,-13,-2,2,-21
82531134650,-3,-2,-10,31,19,3,-4,-21
82531134650,1,0,3,-25,-23,0,-5,-3
82531149029,19,15,17,0,-1,-1,5,-15
82531149029,7,-27,-6,16,5,1,3,37
82531155950,-24,21,-10,-11,-4,-2,-4,-10
82531155950,-2,7,11,-3,5,-7,-17,-9
82531170848,-94,-33,-44,-26,1,2,-6,-101
82531170848,7,-38,25,-9,-23,-9,-7,15
82531187240,-34,3,16,34,17,9,14,6
82531187240,6,-20,-51,-46,-16,-5,-4,-32
82531194726,-27,2,-6,-27,-9,-4,-11,-53
82531194726,45,-2,-20,11,1,-6,-10,-83
82531196191,40,38,36,-18,-3,3,14,102
82531196191,-81,-2,-8,43,23,7,-10,-128
82531217139,80,-7,69,2,-11,0,31,127
82531217139,-12,16,-23,18,-6,2,-3,25
82531218620,42,25,35,8,3,-3,-14,-64
82531218620,55,11,-61,-43,-12,-7,14,-2
82531230737,3,26,14,-7,-2,-4,-8,-20
82531230737,-74,-25,-5,12,21,10,9,-12
82531239652,61,-6,-16,-29,-16,0,-13,70
82531239652,47,57,22,19,13,0,14,80
82531254463,4,-9,-21,13,7,15,-1,-16
82531254463,14,-2,-12,-15,-26,-18,-4,-9
82531256076,-27,-22,-31,-43,-3,-1,-10,-29
82531256076,-53,-14,21,46,12,-4,-17,-33
82531277207,17,-1,-16,42,6,-38,-15,44
82531277207,18,39,14,-72,-6,26,18,-16
82531278632,-42,-24,-15,13,6,13,3,-24
82531278632,2,-12,29,1,-7,13,26,73
82531290809,-29,4,-10,3,4,15,-71,-70
82531290809,19,1,0,-18,8,12,79,94
82531299633,-26,-10,-6,4,-7,-7,-4,-17
82531299633,37,-14,7,-11,-12,-15,5,15
82531314474,-16,-10,-13,-26,-16,-21,-25,-31
82531314474,-3,13,13,38,32,-12,-35,-36
82531316145,-1,-8,-10,4,2,-4,2,22
82531316145,8,-3,7,-4,-31,-7,-18,-25
82531337072,3,0,-3,3,-8,5,22,37
82531337072,16,13,2,17,5,7,-12,-7
82531338649,-18,-5,0,0,14,7,18,4
82531338649,11,-4,-2,-24,-11,-5,-18,-15
82531350663,-7,-4,-1,6,6,10,21,10
82531350663,-1,1,3,-5,-7,-6,-2,-8
82531359645,-13,-10,-7,7,-1,-10,-16,-14
82531359645,1,-1,8,36,16,5,-1,-5
82531374757,3,10,2,11,4,5,19,26
82531374757,15,7,6,11,0,-6,-16,-20
82531376095,-27,-4,-7,-27,-20,-6,-4,-1
82531376095,37,-2,2,8,23,1,-4,5
82531396994,-33,1,6,27,11,5,18,10
82531396994,2,-2,-7,-15,-15,-2,-15,-11
82531398538,-3,-3,0,9,4,-2,1,-1
82531398538,18,-1,-4,-24,-10,1,6,19
82531410677,6,-3,-8,-14,-1,-3,0,-13
82531410677,-37,-3,0,4,12,-1,-3,-4
82531419670,10,0,-3,7,1,-2,11,12
82531419670,-20,-2,2,0,-14,-4,-5,-17
82531434087,28,-1,-2,-8,-2,3,-2,18
82531434087,-6,-30,-1,-2,-5,-4,-3,-10
82531440650,-3,9,-1,-3,-4,4,1,-2
82531440650,8,4,1,4,8,-11,-11,-1
82531457025,7,-1,-1,-5,1,6,10,3
82531457025,17,7,-1,2,-3,4,-4,-6
82531458554,-10,-6,-2,6,1,-5,-6,-6
82531458554,-14,-5,-1,-17,-12,6,0,-9
82531470764,13,0,-3,-10,-3,-24,4,13
82531470764,-33,4,0,29,17,6,-9,-12
82531479653,15,0,-2,-15,-9,-2,1,-1
82531479653,-7,1,0,6,5,11,-2,-7
82531493919,-3,-5,-3,-2,-2,-1,1,4
82531493919,11,4,0,-8,-14,-15,-4,3
82531500634,-3,-9,-4,-2,1,6,-4,-5
82531500634,6,-3,0,9,11,-1,1,-11
82531517035,-19,-5,-2,3,3,1,-3,-11
82531517035,9,6,-2,-14,-11,-3,-2,-1
82531518593,-4,-2,0,2,0,-2,-4,0
82531518593,-6,-9,-5,-5,1,-3,3,2
82531530849,1,-19,-2,1,0,5,1,3
82531530849,-3,6,-3,0,-5,0,-5,-6
82531539748,-9,-6,3,2,1,-4,-1,-1
82531539748,-7,4,-2,-5,-3,0,0,2
82531553886,11,4,2,-15,-10,1,4,1
82531553886,-7,-3,0,34,18,-3,-5,-3
82531560662,13,6,-1,-5,-4,-5,-4,-1
82531560662,1,-4,1,14,9,-1,0,-1
82531577053,-5,1,-9,-20,-8,8,7,1
82531577053,4,3,4,-1,-2,3,1,-1
82531578653,-3,-1,-1,-6,-1,-5,-10,-4
82531578653,-5,0,-2,5,2,10,0,-9
82531590726,-5,-4,1,28,8,-23,-1,1
82531590726,5,1,-2,-11,-3,10,2,2
82531599609,1,0,-3,-8,-4,-1,3,0
82531599609,0,-1,-3,-13,-8,-1,-1,1
82531613802,-8,0,-5,-6,1,3,-3,2
82531613802,2,-1,-1,-9,-7,-9,-2,-1
82531620590,-3,-3,0,8,-1,0,-2,-2
82531620590,-2,-4,-4,-17,-4,-3,-3,0
82531637066,-5,-14,0,3,-1,4,-1,2
82531637066,6,1,1,2,0,-4,0,-4
82531638638,-2,-4,-7,-5,-6,-3,2,0
82531638638,3,0,-1,8,-6,-1,-5,1
82531659549,1,3,2,3,5,8,-3,-8
82531659549,3,-1,1,-11,-5,-2,-2,2
82531661115,-2,-4,-4,22,4,-3,1,-5
82531661115,9,4,-1,-12,-4,-8,-14,2
82531674060,-6,2,3,-5,-3,2,16,11
82531674060,-8,0,-5,26,10,-7,-11,-23
82531680813,1,4,2,-12,-5,-3,2,52
82531680813,-3,-2,-2,0,15,8,7,-12
82531697049,4,6,6,11,4,7,-10,-4
82531697049,2,-2,-2,-30,-10,-3,19,25
82531698593,0,0,2,8,6,-2,-2,-9
82531698593,-5,0,-1,-4,-9,-4,-4,0
82531719632,2,2,-1,-19,-2,2,20,38
82531719632,-3,0,1,-11,4,2,-4,-12
82531721129,-4,-3,-3,-2,-3,-1,-12,-19
82531721129,3,0,0,26,9,4,7,28
82531734068,-3,-1,-3,-37,-10,-4,-12,-45
82531734068,4,-2,-6,10,-3,-3,-6,-2
82531740848,-4,-4,-5,-2,-2,2,1,-12
82531740848,-1,-1,-1,7,1,-3,-5,-12
82531757182,2,-4,-15,25,-13,-3,7,7
82531757182,2,-2,-6,4,0,-4,-4,2
82531758639,-3,-1,0,16,4,6,-6,-13
82531758639,0,0,2,14,4,0,9,-5
82531779547,-3,3,7,27,6,1,-13,-1
82531779547,2,1,6,6,7,5,5,-1
82531781129,-4,-2,-4,-58,-10,-4,2,2
82531781129,-1,-2,2,-28,-14,-5,-5,-2
82531793188,-2,-2,-6,-25,-7,-5,-2,8
82531793188,-3,-1,1,-14,0,-1,-5,-9
82531802178,0,1,6,31,3,-2,-2,3
82531802178,-2,-2,2,-13,3,2,2,-1
82531825919,-3,1,3,-14,-2,-4,-12,-17
82531825919,-1,1,0,22,-1,2,5,7
82531827549,-1,-1,-1,-7,-1,-3,-3,-2
82531827549,-2,-1,-4,-18,-1,-1,5,1
82531839658,-5,-3,-4,32,2,-4,-8,-13
82531839658,1,-3,0,8,-3,0,3,13
82531841122,-1,0,2,-7,1,-1,3,-4
82531841122,-2,-2,-1,-17,-5,-3,-3,-2
82531853349,-4,-7,-3,-3,2,-1,-3,0
82531853349,-3,-1,-3,-8,-6,-2,-8,1
82531862086,-2,-1,2,4,7,0,8,-5
82531862086,-4,-5,-6,-4,-6,-4,-3,-1
82531876983,0,1,1,-14,6,1,-3,1
82531876983,0,0,-1,12,-1,0,1,1
82531878601,2,0,2,31,3,1,-3,1
82531878601,-1,2,-1,-39,-7,-4,-2,-1
82531899484,-2,-2,1,11,4,0,2,-6
82531899484,-1,-2,-3,-31,-6,-1,-4,-9
82531901148,-2,-1,-1,-11,0,-1,1,5
82531901148,-2,-2,-3,16,1,-1,0,-5
82531913251,-2,-7,-3,24,2,-1,-5,-2
82531913251,-1,-2,-1,-3,-3,-2,0,-4
82531922147,0,0,1,27,4,0,0,3
82531922147,-5,-3,-8,1,-7,-2,-3,-3
82531937156,1,0,0,-13,-1,0,1,0
82531937156,1,18,2,2,0,1,0,-1
82531938587,-1,-5,-5,1,-2,-1,-4,-3
82531938587,7,0,1,13,0,0,3,2
82531959493,-2,-1,-2,3,-2,-2,1,3
82531959493,11,4,-6,-37,-6,-1,0,-7
82531961160,3,3,-3,-6,-8,-1,-2,-7
82531961160,-2,-2,0,0,0,0,0,-1
82531973110,-2,2,2,30,4,0,5,4
82531973110,-7,-9,-2,-15,-7,-1,-1,-2
82531982199,-1,-2,-2,-18,-6,0,-2,-3
82531982199,2,0,5,16,5,0,-4,-4
82531996985,-1,-1,-6,-16,-6,-1,-2,-5
82531996985,1,-4,0,15,0,-3,-1,-2
82531998601,-2,-1,-2,4,0,-2,-3,-7
82531998601,-3,-1,0,-12,-6,-3,-2,-2
82532019749,7,17,6,16,5,2,-2,1
82532019749,-20,-3,-2,-4,1,0,-1,1
82532021092,-4,-2,-2,-8,-6,-2,1,1
82532021092,9,4,2,18,5,-1,-3,0
82532033191,0,-1,-1,-16,0,-1,1,-1
82532033191,2,-5,1,-15,-3,0,0,9
82532042157,-2,-6,-1,33,4,-4,-2,-2
82532042157,-1,2,1,0,1,0,-2,1
82532057224,-3,-7,0,-1,-2,-1,1,1
82532057224,2,-2,-1,11,3,0,0,-5
82532058628,0,12,-5,-39,-6,-3,0,-2
82532058628,0,-3,2,21,2,0,-2,2
82532079674,-2,-1,-2,-18,-5,-3,-2,-3
82532079674,-1,-3,-3,10,1,-2,-3,-2
82532081113,0,3,-2,18,2,-1,-1,0
82532081113,-5,4,-2,-42,-11,-1,0,-2
82532093153,0,-2,0,8,3,1,0,-2
82532093153,13,5,2,-7,-5,-1,-2,-3
82532102207,-6,-8,5,50,11,-1,0,-6
82532102207,-2,0,-13,-86,-20,-4,-2,-2
82532117254,-1,-5,0,20,2,0,-1,-4
82532117254,-4,-5,-3,12,-1,-3,-2,10
82532118670,-1,0,3,-9,1,2,-5,-9
82532118670,-1,-2,-1,27,4,-1,6,19
82532139531,-10,-5,-3,-9,-4,-3,-6,-5
82532139531,0,-4,-5,-35,-5,-2,2,0
82532141145,-3,-7,-1,-17,-1,0,-3,-10
82532141145,-10,-3,-4,-11,5,-1,-1,-2
82532153331,-1,-8,1,-8,-8,-1,0,0
82532153331,-3,-17,-5,11,2,-3,-4,-3
82532162166,11,1,4,-2,0,2,0,4
82532162166,5,-8,-6,-7,0,-1,1,-3
82532177042,-1,2,0,-1,2,1,2,1
82532177042,3,9,2,-7,-1,1,1,-2
82532178568,2,4,-2,-7,-8,1,2,5
82532178568,-1,-2,3,24,3,-2,-4,-7
82532199502,2,4,-5,-17,-4,-2,-2,-1
82532199502,-8,0,-3,-24,-5,0,-3,-3
82532201096,-1,-4,-4,-14,-7,-2,0,2
82532201096,-22,-1,2,23,2,-1,-3,-4
82532213160,-1,3,0,-7,-1,-2,-3,0
82532213160,-3,-22,-4,13,0,-1,-1,-5
82532222087,5,1,-2,-4,-2,-3,-1,1
82532222087,-5,-4,0,13,3,0,-2,-8
82532237211,-1,1,-1,-12,-2,-1,-2,-4
82532237211,12,0,1,18,5,-1,-5,-10
82532238575,-7,4,-7,-41,-14,-5,4,10
82532238575,6,-1,2,18,2,1,0,1
82532259711,-1,-5,-1,-3,-1,1,1,2
82532259711,-1,6,2,3,2,0,-1,-6
82532261146,-6,-5,-1,5,0,-1,-4,-5
82532261146,3,3,-2,3,2,0,-1,5
82532273201,-23,-17,-2,-5,-2,-2,-1,-4
82532273201,-6,-9,-5,-7,-6,-2,-1,4
82532282138,-7,-6,-1,0,0,-1,-1,-9
82532282138,13,2,0,6,0,-1,0,33
82532296373,39,4,1,1,-1,0,2,12
82532296373,-5,10,3,6,2,-1,2,-1
82532303107,-18,-12,-2,-2,-2,-1,-6,4
82532303107,-2,-5,0,2,0,-1,-2,-13
82532319487,9,8,1,1,-1,-1,2,-5
82532319487,6,5,0,-2,-1,-2,-2,2
82532321108,-3,-14,-2,6,0,-4,-2,-3
82532321108,-14,-1,0,0,-1,-1,-1,-10
82532333237,-12,-2,-4,-12,-3,-2,-3,2
82532333237,-18,4,-5,-7,-3,-1,-3,-6
82532342130,3,-4,-3,7,1,-1,0,2
82532342130,-7,-2,-4,3,-1,-1,-2,-9
82532357183,-1,-1,0,5,-1,-1,0,1
82532357183,-1,-6,-3,11,1,-1,0,-1
82532358592,-1,5,-2,-18,-4,-2,0,-2
82532358592,5,0,0,-3,-2,1,1,-2
82532379683,-4,-2,-3,6,-1,-2,-3,-5
82532379683,6,2,1,12,0,-1,0,-4
82532381153,-7,-3,-1,3,6,-1,1,0
82532381153,1,-2,-3,-7,-10,-4,-2,-5
82532393254,-11,1,0,16,1,-3,-2,3
82532393254,-4,-3,-2,-8,-1,0,-2,-1
82532418403,13,11,-2,-13,-3,1,-1,1
82532418403,6,13,0,0,2,0,-1,0
82532419190,5,13,3,-20,-1,-2,1,-4
82532419190,0,-3,0,20,0,-1,1,2
82532423103,-5,1,0,0,-2,-1,0,-4
82532423103,-2,-7,1,10,0,0,-1,1
82532439721,13,-4,-1,0,-1,-2,-2,-1
82532439721,4,10,4,2,0,-1,1,2
82532441086,4,11,0,-3,-5,-2,-1,-2
82532441086,-4,-21,-4,-7,-2,-1,-2,-4
82532453080,0,-4,-2,2,3,0,0,-1
82532453080,-3,-3,0,-6,0,1,-2,2
82532462077,-2,-1,-3,3,-6,-1,-3,10
82532462077,13,2,1,-8,-2,-1,2,-8
82532476321,-33,-22,-5,0,-4,-3,-4,-4
82532476321,-10,-7,-1,4,0,-2,-2,-17
82532483342,8,5,-1,-1,-1,0,2,20
82532483342,-5,-11,0,0,2,-2,1,0
82532499487,4,2,-1,-5,-4,0,-3,0
82532499487,-12,0,-1,3,0,-2,-3,-12
82532501077,-4,-11,-7,-22,-5,-1,0,-2
82532501077,-2,3,-7,-63,-8,-3,-1,2
82532513128,0,5,-4,-8,0,-2,-1,-5
82532513128,1,-2,0,-2,-2,-3,0,6
82532522063,0,0,0,8,3,-1,-1,-10
82532522063,-2,1,1,9,1,-1,-1,0
82532536384,-1,-3,-2,15,0,0,-2,-3
82532536384,3,2,-1,16,-6,-4,-1,3
82532543178,-2,-4,7,9,4,1,0,-4
82532543178,-7,3,-8,-5,-7,-4,-2,-7
82532559470,-11,-4,-2,-10,-2,-1,-3,-3
82532559470,0,-1,-1,-12,2,0,0,6
82532561113,8,-5,-2,44,1,-3,-1,-5
82532561113,0,18,6,15,3,0,0,-2
82532573268,3,3,-1,-9,-2,-1,-1,4
82532573268,0,-3,-3,-3,-1,-1,-1,0
82532582140,-2,-24,-3,-19,-1,-2,-1,-4
82532582140,3,2,1,6,3,-1,-2,-1
82532597215,-5,10,1,7,-1,-1,1,0
82532597215,3,2,1,-5,-3,0,-3,-3
82532598614,-5,8,1,-2,-3,-1,-3,-1
82532598614,1,-4,-2,14,-3,0,0,2
82532619694,18,5,5,3,1,0,0,-3
82532619694,-2,-4,-5,-8,-7,-2,-1,1
82532621135,-6,7,-2,-12,-1,-1,0,-3
82532621135,7,4,3,0,2,0,-2,0
82532641996,-1,-5,0,8,0,0,-2,0
82532641996,-2,1,-2,-22,1,-1,0,2
82532643638,4,0,-1,-13,0,-1,-1,-5
82532643638,-8,-5,0,5,-3,-3,-2,-1
82532657200,-1,0,-4,-20,-2,-1,-1,-2
82532657200,2,3,1,44,5,-1,-2,-1
82532658632,-6,-22,-6,6,-3,-2,-1,-3
82532658632,-6,-4,-3,-15,2,-1,-2,-2
82532679742,-3,-1,1,24,0,-2,-1,-3
82532679742,4,1,0,-4,1,0,0,4
82532681174,-2,4,0,3,1,0,-2,-1
82532681174,0,-1,0,0,-1,0,-1,-3
82532702016,2,-6,-3,-6,-3,-1,1,1
82532702016,-29,-8,-5,-10,-1,-1,-3,-3
82532703580,-3,8,3,3,0,-1,0,1
82532703580,-3,-2,-3,1,0,-1,-3,-4
82532717190,3,0,-1,-7,-2,-1,-1,1
82532717190,-8,-4,-3,-12,-2,-2,-3,-1
82532718609,8,-8,-1,-6,0,-2,-1,-2
82532718609,-21,0,0,9,-2,-1,-1,4
82532739515,1,1,-1,-13,-1,-1,-1,-2
82532739515,8,-4,0,3,0,0,2,4
82532741118,2,0,-1,-3,-1,0,-2,-3
82532741118,3,1,0,5,0,-1,-1,-1
82532762045,-2,-4,-1,7,-2,-3,-2,-1
82532762045,4,4,-1,-14,-3,-1,-1,-1
82532763546,-6,9,-1,1,0,-2,-1,-5
82532763546,0,-8,-3,4,-1,-3,-2,-2
82532776487,-6,0,-2,-2,0,-2,-1,0
82532776487,5,-6,1,-1,-1,-2,-2,-2
82532783373,-4,-1,-2,-4,-1,-1,-1,1
82532783373,20,2,1,4,-2,-2,0,0
82532799716,-18,1,-2,-4,-1,-1,-2,-1
82532799716,1,1,-4,-4,-2,-2,-1,0
82532801137,1,1,0,3,-1,-1,-2,-1
82532801137,-2,-2,-2,3,1,0,-1,1
82532822086,5,7,-3,-10,-3,0,-1,-1
82532822086,4,1,-1,-4,-4,-3,-2,-3
82532823666,-9,2,0,1,1,-1,0,-1
82532823666,-5,-5,-1,5,1,1,-1,2
82532836280,0,2,-2,-17,-5,-3,-3,0
82532836280,3,19,2,8,0,-1,-1,0
82532843349,4,-2,1,-8,-3,-1,-2,-2
82532843349,-1,2,1,4,0,0,-1,-1
82532859605,-5,-13,-4,6,1,0,-2,0
82532859605,1,3,1,-20,0,2,0,-1
82532861082,-1,0,-1,3,-4,-1,-1,-2
82532861082,-5,-6,-2,-2,-1,-2,0,-2
82532882236,2,0,-1,7,0,1,1,-7
82532882236,1,-6,-2,4,0,-1,0,3
82532883592,-1,-1,-2,0,0,-1,0,-1
82532883592,-5,-5,-2,-6,-2,0,-2,-4
82532896517,2,2,1,1,1,-1,-2,-3
82532896517,-9,-19,-7,0,-2,-2,-1,-4
82532903211,-16,-6,-2,-1,-1,-2,-1,1
82532903211,-1,3,0,-1,-2,-2,0,-1
82532919466,0,2,-1,-2,-1,-2,-1,1
82532919466,-5,-1,1,0,-2,-1,-2,-2
82532921143,20,4,2,2,0,1,1,1
82532921143,2,0,-3,-5,-1,-1,0,-4
82532942189,1,-5,-1,0,-1,0,-2,0
82532942189,1,-3,-1,-2,-2,0,-1,-2
82532943624,2,2,-3,-1,0,-1,-3,-2
82532943624,-6,-5,0,4,-1,-1,-2,2
82532956357,3,-5,-1,-4,0,0,1,1
82532956357,1,0,-2,1,-1,-1,-2,-1
82532963327,-5,-4,-1,3,-2,0,0,-4
82532963327,-2,23,-2,-2,-1,0,-1,-2
82532979707,15,-7,4,2,0,-1,-2,-2
82532979707,-1,-1,1,-2,-1,0,0,3
82532981112,2,12,-2,-4,-2,-1,-1,1
82532981112,-7,-6,-2,-3,-2,0,-3,-3
82533001982,-4,-1,-1,0,-2,-2,-1,-1
82533001982,1,1,-1,0,0,-1,-1,-5
82533003654,-1,-3,-1,0,0,-1,-1,-1
82533003654,-4,-14,-5,-2,-3,-2,0,-3
82533016579,-4,-2,-1,-1,-1,-1,-2,-1
82533016579,1,0,-1,2,-1,-2,-1,1
82533023140,-4,-2,-3,-4,-2,-1,-3,1
82533023140,10,-22,-3,-4,-1,-1,-2,-8
82533039702,-5,2,-2,0,0,0,2,7
82533039702,-1,3,-2,-1,0,-1,0,-2
82533041135,0,-6,-1,0,-1,0,0,-3
82533041135,-5,3,-4,-4,-2,-3,-4,-1
82533061952,1,5,0,1,-1,-2,0,-3
82533061952,2,-2,-2,-3,-2,-1,-2,0
82533063604,-5,0,2,-3,-1,-1,-2,-8
82533063604,-3,0,-1,-2,0,-2,0,6
82533075802,-4,-3,-4,0,-2,-3,-3,-3
82533075802,-1,-1,-1,-4,-2,-1,-2,0
82533084598,-1,-2,-1,0,0,0,0,-1
82533084598,1,3,0,0,-1,0,-1,0
82533099685,-14,-10,-4,-2,-2,-1,-2,-5
82533099685,2,-1,-1,1,-1,0,-1,-3
82533101175,-2,7,0,-1,-1,1,-1,-1
82533101175,1,-7,-1,-3,-1,-1,-2,4
82533122195,-5,17,-4,-2,-1,-1,0,-4
82533122195,-4,0,-1,0,-2,-2,-2,-1
82533123589,4,11,-1,-1,-2,-2,-1,0
82533123589,2,-2,-1,0,1,0,1,2
82533135735,1,-1,-1,-1,-3,-2,-2,-1
82533135735,-1,-4,-2,-4,-1,0,0,-1
82533144666,3,-5,0,2,0,-2,-1,-4
82533144666,-1,5,-1,0,-4,0,0,-2
82533159623,3,-7,1,0,0,0,-1,1
82533159623,-3,0,0,0,-2,-1,0,1
82533161178,-4,-12,-1,-3,-2,0,-2,0
82533161178,0,0,-3,-1,1,0,0,-3
82533182059,-1,-3,-2,-1,-2,-1,-1,-1
82533182059,2,0,-2,-4,0,0,-2,-2
82533183720,-4,-5,-2,0,0,-1,-1,1
82533183720,0,0,-2,-1,-2,-2,-2,-1
82533195694,4,7,1,1,1,0,-1,2
82533195694,4,10,-2,-3,-1,-1,0,-1
82533204613,-7,-10,-2,-1,-1,-1,-2,0
82533204613,17,11,4,3,0,0,1,-1
82533219679,-2,-2,-1,-2,-1,-1,0,-3
82533219679,-4,-1,-1,2,0,0,-1,0
82533221104,1,0,-1,-4,-1,-2,1,1
82533221104,-13,-9,-3,-2,-1,-1,-3,-6
82533241973,8,5,0,-5,0,-1,0,-1
82533241973,-7,-2,1,-2,-1,-2,-1,-3
82533243712,-9,-7,-2,-3,0,-1,-2,-1
82533243712,2,4,0,-2,-1,-2,0,-1
82533255646,-7,-16,-4,-3,-3,0,-1,0
82533255646,1,-4,-1,-1,-1,-3,0,1
82533264689,1,2,0,0,-1,-1,0,-3
82533264689,-5,1,-1,-3,-1,-3,-1,0
82533279485,1,-1,-1,4,1,0,-2,-1
82533279485,0,-4,-2,-4,-3,0,0,-1
82533281121,-5,-27,-3,-1,-1,-2,-2,1
82533281121,-3,-2,-1,0,1,-1,0,-1
82533302026,-6,3,0,-4,-3,-2,0,3
82533302026,3,-32,-5,1,-2,-1,-2,-3
82533303580,7,11,-1,-4,-1,-1,0,0
82533303580,-5,-3,-1,-2,-1,-1,-1,1
82533315831,-8,-9,-4,-1,-2,-1,-1,-4
82533315831,-4,9,-2,0,-1,-1,-1,-6
82533330726,1,0,-3,0,-2,0,-1,0
82533330726,1,-5,-1,-1,-1,0,-1,-1
82533339673,17,4,0,0,-3,-1,0,-4
82533339673,1,5,-1,1,-1,-2,1,6
82533341131,-4,3,2,0,0,-1,0,-2
82533341131,5,-2,-2,-1,-2,-2,-3,2
82533362184,0,7,-1,-2,-2,0,-1,-4
82533362184,-1,2,0,1,0,-2,-1,0
82533363672,-3,21,-1,-1,-2,-1,-4,-3
82533363672,-3,0,-2,0,-1,0,-2,-2
82533375660,-14,-5,-1,-3,-2,-1,-2,0
82533375660,5,1,0,-2,-1,0,-2,0
82533384682,-10,2,-2,-2,-1,-2,0,-1
82533384682,-2,-17,-2,-2,-1,0,-2,-3
82533399748,-1,-5,-3,0,-1,-1,-1,1
82533399748,-4,8,-1,-1,0,-1,-2,-2
82533401136,3,-10,-2,0,-2,0,-2,-1
82533401136,-6,4,-1,-2,0,-2,-1,-2
82533422223,-3,-5,0,-1,1,-1,-1,-7
82533422223,-1,-5,-1,-2,-1,-1,0,2
82533423676,3,0,0,0,-1,1,1,-1
82533423676,-3,-2,0,1,-1,0,0,-1
82533435588,1,3,-1,-1,0,-3,-2,0
82533435588,0,3,-1,-2,0,0,0,-2
82533444648,-1,-5,-1,-2,-1,-1,-2,0
82533444648,2,5,1,1,0,-1,1,-2
82533459453,-15,-21,-5,-2,-4,-3,-2,-2
82533459453,-4,-4,0,-1,-1,-2,-1,-2
82533461060,13,-1,-1,0,-1,-3,-1,-5
82533461060,-15,15,-1,0,0,0,0,3
82533481007,13,28,2,1,1,-1,-1,2
82533481007,1,-2,0,-2,-2,-2,-2,-3
82533489549,-22,-5,-5,-1,-2,-3,-3,-6
82533489549,3,2,1,-1,-2,0,-2,-2
82533495591,6,2,0,-2,-2,1,-2,-3
82533495591,-13,-5,1,-1,-1,0,-2,3
82533504568,6,1,-1,-2,-2,-2,-1,2
82533504568,4,-1,-1,-3,-3,-1,0,-2
82533519445,-4,-7,-2,0,0,-1,-1,0
82533519445,2,-8,-3,-2,-2,-1,-2,-4
82533521022,0,-3,-2,-1,-3,0,-1,1
82533521022,-3,-4,-1,1,0,-1,0,0
82533542001,0,-8,0,0,1,-2,1,0
82533542001,-1,3,-1,0,0,-1,0,0
82533543686,-1,0,1,1,2,0,0,2
82533543686,-1,0,-1,-1,0,0,-1,-3
82533564456,-3,-4,-2,0,-2,-2,-3,0
82533564456,1,2,-1,1,0,0,-1,-2
82533565994,5,-2,-2,-2,0,1,-1,-3
82533565994,-13,-1,-3,-2,-2,-2,-1,6
82533587009,3,5,1,-1,0,0,-2,1
82533587009,-5,3,1,1,1,-1,1,-7
82533588652,5,9,-1,-2,-2,-2,-1,8
82533588652,7,-15,-1,-2,-2,-1,-2,-2
82533601932,-4,-1,-2,-2,-1,1,-1,1
82533601932,-2,0,-1,-3,-1,-1,-2,-1
82533603531,4,3,-1,-2,0,-2,0,-3
82533603531,4,-1,0,2,-1,-1,1,-2
82533624549,-3,-4,0,0,-1,-1,1,0
82533624549,4,-4,-1,-2,-3,-2,-2,-1
82533626033,-2,-9,-3,-2,-2,-2,-3,-2
82533626033,-6,2,0,-1,-2,0,-1,-5
82533639498,1,-6,0,0,-1,0,-1,-2
82533639498,2,3,-1,0,-1,0,-1,2
82533641111,-4,-3,0,0,1,-1,-1,0
82533641111,12,0,-1,-2,-1,-3,-1,-8
82533662000,-2,5,-3,-2,0,0,-1,4
82533662000,0,17,-1,0,-3,-1,-1,-2
82533663605,-7,9,0,-3,-1,0,-1,-2
82533663605,19,-7,2,2,0,-1,-1,-3
82533684517,-3,-4,-1,-1,-2,-1,-1,2
82533684517,1,-2,-1,-3,-1,1,0,3
82533686075,-2,0,0,0,-1,1,0,0
82533686075,-9,1,-3,-2,0,-1,0,-2
82533698962,3,-2,-2,-3,0,-1,0,-5
82533698962,-1,-4,0,-1,-1,-1,0,2
82533705614,-1,-2,-2,-1,1,-3,-1,-2
82533705614,-12,-14,-4,-2,-2,-1,-1,1
82533722012,-1,-3,-1,1,-1,-1,-2,-1
82533722012,-2,-5,-2,-3,0,-1,0,-3
82533723580,-2,-7,-3,-2,1,-1,-1,-1
82533723580,-2,4,0,0,0,-2,-1,0
82533744557,7,6,-1,-2,-2,0,-2,-5
82533744557,-19,-24,-4,-1,-2,-1,-1,6
82533746047,30,-1,1,1,0,0,-1,28
82533746047,-9,6,1,0,2,-2,0,-12
82533766941,-1,4,0,0,0,-1,0,-4
82533766941,6,4,1,0,0,0,-2,-4
82533768540,-4,-14,-3,-2,-1,-1,-2,-6
82533768540,-10,0,-2,-3,-2,-1,-1,3
82533781935,-2,-5,-1,-2,-3,-1,-3,-2
82533781935,-1,-2,-2,0,-2,-3,0,0
82533783529,-12,4,-2,1,-1,-1,-1,-8
82533783529,3,2,-2,-2,-3,-1,-2,-2
82533804703,-8,-2,0,0,-2,-1,0,-4
82533804703,-1,-4,-3,-3,-2,-2,-1,-5
82533806270,-6,-2,0,-1,-2,1,-2,-5
82533806270,1,-1,-3,0,0,0,0,2
82533818762,1,-3,-2,0,-1,0,-2,3
82533818762,0,-1,-2,0,0,0,-2,-1
82533825658,-14,-3,1,-2,-1,0,-1,-4
82533825658,-2,-1,-3,1,-1,-3,-1,2
82533849388,-3,0,-2,-1,-2,-2,-1,0
82533849388,-2,-18,-4,-1,-2,-1,0,-3
82533851108,4,0,-2,-2,-1,-3,-1,0
82533851108,-2,1,-1,-1,-1,0,-3,-1
82533864495,-1,-5,0,0,0,-1,0,0
82533864495,1,4,-2,0,-1,1,-2,-4
82533866149,-9,-9,-3,-2,-2,0,-1,19
82533866149,-1,-6,-2,-1,0,1,0,-12
82533878982,2,12,0,-2,-1,-1,1,2
82533878982,0,-16,-1,0,0,-1,-2,0
82533885837,0,2,-1,-2,-3,-3,-2,-4
82533885837,0,3,-3,-1,-1,-1,-3,4
82533902172,-3,2,-1,1,-1,-1,-2,-4
82533902172,-2,5,-2,0,-1,-1,-2,-2
82533903645,3,-2,-1,-2,-2,-1,-1,-13
82533903645,2,-5,0,0,-3,0,0,3
82533924578,0,-4,-1,-2,-1,-1,-1,-4
82533924578,4,5,-1,-1,-1,-3,-3,0
82533926137,-4,21,1,1,0,0,-1,-9
82533926137,2,1,-1,-1,0,0,-2,-1
82533938983,-4,-5,-2,-1,0,-3,-2,2
82533938983,0,6,-1,-1,-2,-1,0,-1
82533945659,-1,4,-1,0,-1,-2,-1,-6
82533945659,-10,-1,-2,-2,-1,-2,-1,0
82533962074,-1,1,0,0,-1,-1,-2,0
82533962074,-4,-15,0,-2,-2,-1,-1,-2
82533963626,-2,-6,-3,0,-1,-2,0,-4
82533963626,-2,-2,-1,-2,-2,-1,-1,2
82533984774,16,-8,-2,-1,-2,0,-2,-4
82533984774,-2,6,0,0,0,0,0,-2
82533986071,-1,-6,-3,-1,-3,1,0,-1
82533986071,3,0,0,-3,-1,-1,0,-1
82533999011,-8,4,-2,-1,-1,-2,-1,-2
82533999011,-1,7,1,-2,-1,-1,0,-5
82534005581,3,-5,1,-1,0,-1,-4,-8
82534005581,-2,-1,-1,0,0,-1,-4,-7
82534022032,-1,2,-2,-3,0,-2,-2,3
82534022032,-3,0,0,-3,-1,0,0,3
82534023700,-4,-11,-2,0,0,0,1,-1
82534023700,2,17,0,0,-2,0,-1,4
82534044706,-2,-3,-2,0,-3,0,0,-1
82534044706,1,0,-2,-2,-1,-1,-1,-1
82534046124,8,29,1,0,0,0,-1,-1
82534046124,-7,-9,0,0,-1,1,1,1
82534058153,-3,-4,-1,-2,0,0,-1,1
82534058153,0,-1,-4,0,-1,-2,-2,-4
82534069238,-1,3,-2,-1,-1,0,-3,1
82534069238,2,-3,-1,0,-3,-2,-2,0
82534081903,-7,-7,-3,-3,-1,-3,-3,-10
82534081903,-2,4,1,0,-1,0,-2,-1
82534083569,2,-8,-2,-1,-1,-1,4,6
82534083569,3,0,-1,-2,1,1,-1,-1
82534104395,-8,-10,-3,-1,-1,0,-1,-2
82534104395,18,9,0,-1,1,0,-1,6
82534106009,-15,-6,-1,-1,-2,-2,-1,-15
82534106009,-1,-4,-2,0,-1,-2,-1,-2
82534118056,0,4,1,-1,-2,1,-1,4
82534118056,1,0,-3,0,-1,-1,0,5
82534127092,1,-7,0,-1,-1,-1,-3,3
82534127092,0,22,1,-1,-1,-1,-1,0
82534142212,1,-24,-1,0,0,0,0,-3
82534142212,-8,-3,-2,-2,-1,-2,-2,-2
82534143660,0,-16,-4,0,0,-1,0,-1
82534143660,-7,-4,-1,-1,-2,-1,-2,-4
82534163785,2,7,0,1,0,-2,-2,4
82534163785,-5,-5,-2,-1,-2,0,-1,-5
82534164579,2,-1,0,-1,-1,-2,-2,-1
82534164579,-8,-8,-3,-1,-1,-2,-1,1
82534186292,-1,2,-1,-2,-1,0,0,1
82534186292,-1,-4,-2,0,-1,-2,0,0
82534187058,-6,4,2,-1,0,-2,-1,-3
82534187058,6,-8,0,-1,-2,0,-3,0
82534201467,-2,1,1,-1,-1,-3,-2,-3
82534201467,-6,1,-1,0,0,0,-2,-2
82534202060,-11,-6,-4,-3,-1,1,-1,-3
82534202060,8,-2,-2,-1,-1,-2,0,22
82534223911,1,2,0,0,0,0,0,-11
82534223911,-11,-2,-2,-3,1,-2,-4,0
82534224603,-2,17,-1,-3,-3,-2,-1,5
82534224603,-1,-18,-1,1,-1,-1,-2,-6
82534246457,4,3,0,-2,-2,-2,1,3
82534246457,-3,-2,0,0,-1,0,-2,-2
82534247029,11,4,1,-2,1,-1,-1,-3
82534247029,-8,-1,-3,-4,-1,-2,-1,4
82534261462,-2,3,-1,-1,-2,-1,-3,-1
82534261462,3,-21,-2,-1,-3,-3,-2,-6
82534262147,-1,-9,-2,-1,0,0,-1,1
82534262147,6,2,-1,-2,-3,-1,-1,-8
82534283761,-5,-5,-2,-1,1,1,-1,-1
82534283761,-2,6,0,-1,-1,-1,0,3
82534284529,-4,1,-2,-2,-2,-2,-2,-2
82534284529,0,-4,-1,-1,-1,0,1,-5
82534306515,-5,-2,-3,-2,-3,-2,-1,0
82534306515,-2,2,-2,-2,-1,-2,-1,-3
82534307138,1,-6,0,-1,-2,-2,0,-1
82534307138,-2,3,-1,-1,-2,0,-1,-7
82534322845,4,1,-2,0,-1,-2,-3,10
82534322845,3,5,2,-2,0,-2,2,-13
82534323692,-3,-1,0,-1,-1,-1,-2,6
82534323692,4,-6,-2,-1,-1,-1,-2,-1
82534343936,0,24,-1,-2,-2,0,-1,5
82534343936,0,-5,-1,1,1,1,-1,5
82534344625,0,2,0,0,0,-1,-1,-3
82534344625,-1,2,-2,-3,-2,-3,-1,-6
82534366365,-12,-1,-2,-3,-1,-1,-2,-5
82534366365,-13,-6,-5,-2,-3,-1,-3,-2
82534367122,-1,-2,-2,-1,-1,-1,2,0
82534367122,-2,4,0,1,0,0,-2,-2
82534381335,6,8,2,1,-1,0,-1,-5
82534381335,-4,-8,-3,-2,0,-1,-1,2
82534382196,-2,-4,-3,-2,-2,-1,-2,0
82534382196,-12,-9,-3,-2,-1,-2,-3,-3
82534403854,6,2,0,-1,0,0,0,-2
82534403854,-2,5,1,-1,-1,-2,-2,-13
82534404575,-1,-3,0,2,0,0,-3,-4
82534404575,8,21,1,0,0,-2,0,-1
82534426455,-4,-32,-3,-2,0,0,-1,0
82534426455,3,4,-1,-1,-3,0,-1,6
82534427137,-8,-9,-2,-4,-2,-1,-2,-3
82534427137,-1,10,2,0,0,1,0,-3
82534441288,-2,-2,-2,-1,-2,-2,-2,-1
82534441288,3,3,-1,-1,1,-2,-1,3
82534442236,1,-2,-1,-2,-3,-1,0,0
82534442236,7,-8,-2,1,0,0,-1,-4
82534463946,-9,2,-1,-1,-3,-3,-2,-3
82534463946,6,1,0,-1,0,-1,0,-1
82534464644,-3,1,0,-1,-1,-1,0,-5
82534464644,-1,7,-1,-2,-2,-2,-2,2
82534486480,-1,-11,-1,-1,2,1,-1,-2
82534486480,6,5,-3,-2,-2,-2,-2,15
82534487090,13,-3,-3,-1,1,-1,0,-15
82534487090,-11,-2,3,0,1,-1,-1,9
82534501356,-5,-10,-2,-1,-1,-1,-2,0
82534501356,0,-1,-2,0,0,1,0,0
82534502121,5,17,2,-1,1,-2,0,1
82534502121,6,-3,-3,-1,-1,-2,-2,5
82534523971,1,7,0,-1,-1,-3,0,-5
82534523971,-6,-7,0,-2,-2,-1,0,-3
82534524572,0,2,-1,-2,-2,-1,0,3
82534524572,-13,-6,-3,-2,1,-1,-2,-9
82534546983,-2,4,0,-1,-1,0,-1,1
82534546983,2,5,1,0,-1,0,-2,-5
82534547545,-7,-6,-2,-1,0,0,-2,2
82534547545,0,-7,-2,-1,-1,-4,-1,0
82534561474,1,-4,-2,1,-1,1,0,0
82534561474,-2,-3,-1,-1,-2,-2,-4,11
82534562096,-8,-23,-2,0,-1,1,-1,-5
82534562096,-3,-7,-2,0,-1,0,-1,0
82534583932,18,12,3,-1,1,1,0,-4
82534583932,-6,-2,-4,-2,-1,-2,0,-4
82534584625,-13,-2,0,1,1,1,-1,4
82534584625,4,2,0,-2,-1,-1,1,-1
82534607201,3,-5,0,0,0,-1,-1,-3
82534607201,6,27,3,1,-1,1,0,1
82534607742,2,-9,0,0,0,-1,-1,2
82534607742,-2,-3,-2,0,-2,1,-3,-8
82534621285,-5,2,-1,-2,-1,-1,-1,-3
82534621285,1,2,-1,-1,-2,-1,-3,-6
82534622305,-5,-24,-4,-3,-1,-1,-3,0
82534622305,-1,-3,0,0,-1,0,-3,5
82534643998,-2,3,0,1,-2,-2,1,-12
82534643998,8,-17,-6,-3,-2,-2,0,-5
82534644634,-7,9,-2,-2,-1,-1,0,9
82534644634,2,-1,-1,-1,0,-1,0,-1
82534667210,1,-2,-4,-2,0,-1,-3,4
82534667210,-4,-6,-1,-1,0,0,0,-5
82534667780,0,3,-2,-3,-3,-3,-2,-8
82534667780,1,2,-1,-2,0,-2,-1,-3
82534681483,-11,2,-1,-2,0,-1,0,1
82534681483,-3,-9,1,-1,-1,1,-1,-3
82534682158,4,4,-1,-1,0,-1,-1,3
82534682158,4,-1,0,1,-2,0,-1,-7
82534703800,-5,-3,-1,-1,-3,-1,0,10
82534703800,4,2,0,-2,-2,-1,-3,19
82534704699,-11,-42,-4,0,-2,1,0,-17
82534704699,5,0,0,1,-1,-2,0,-2
82534726983,-2,-1,0,-5,-2,-2,-1,-2
82534726983,-2,-2,-1,1,0,-1,-2,-6
82534727729,-1,12,-2,-1,-2,-2,0,6
82534727729,-4,-2,-1,-2,1,-1,-2,-2
82534741526,-7,-14,-2,-1,-2,-2,-3,-4
82534741526,-18,-1,-5,-2,2,-2,-2,-26
82534742119,7,5,-4,-3,-2,-2,-1,29
82534742119,-5,-5,-1,-2,-2,-2,-2,-4
82534763916,4,4,0,-1,0,0,0,19
82534763916,5,1,1,0,-3,0,0,-12
82534764787,3,-6,0,-2,-1,-2,-2,-7
82534764787,0,7,1,-1,0,0,0,3
82534787144,-4,2,0,-1,0,1,-1,1
82534787144,1,-1,0,-1,-1,-2,-2,2
82534787791,7,5,1,1,1,-1,0,-5
82534787791,-4,4,-1,-1,-2,-1,-1,2
82534801310,-7,-9,-6,-2,-2,-1,-2,-11
82534801310,-1,5,0,0,1,1,-1,0
82534802082,-3,17,1,-1,-1,-1,-1,0
82534802082,-1,-11,-2,-1,-1,-1,0,-3
82534823823,-1,2,-3,0,-2,-1,-1,-5
82534823823,-4,-5,-2,0,-1,1,-2,3
82534824637,-3,3,0,0,0,-2,-1,-1
82534824637,-3,3,-2,-2,-1,-1,-3,-19
82534847155,-1,-3,2,0,1,-1,-2,-2
82534847155,3,1,-1,-1,-1,-2,0,-1
82534847883,0,6,0,1,0,-1,-1,-8
82534847883,0,-4,-1,-2,-1,-1,0,6
82534861413,12,7,2,-1,0,-1,-1,-3
82534861413,-4,-6,-3,-3,-2,-3,-1,-4
82534862091,0,7,-2,-2,-1,-2,-1,1
82534862091,3,-28,-3,-2,0,-2,0,-7
82534883764,7,1,0,-1,-1,-1,-1,7
82534883764,-1,16,5,2,0,-1,0,4
82534884599,-9,-1,-1,-2,-3,-2,-3,-18
82534884599,1,12,0,-2,-2,0,0,1
82534906957,-20,-27,-7,-1,0,-2,-1,-8
82534906957,0,-4,-2,0,-2,-2,0,0
82534907940,-1,2,-1,-1,-1,1,0,2
82534907940,-8,-2,-4,0,-2,0,0,3
82534921266,18,12,3,-1,-2,-2,-1,-3
82534921266,-4,0,-1,0,-1,0,0,5
82534922084,-2,-7,-2,-1,-1,-2,-1,-2
82534922084,-4,6,-1,-1,-2,-1,-1,2
82534943965,-3,-1,-3,-2,-3,-3,-1,-1
82534943965,-3,-5,-3,-2,-1,0,0,0
82534944767,8,4,1,-1,-1,-1,1,-1
82534944767,2,14,0,-1,-1,0,-2,-1
82534966948,-14,0,-1,0,0,-2,-1,8
82534966948,-1,-2,-1,-2,0,0,-1,-2
82534967721,-2,0,-3,-1,-1,-2,-1,-1
82534967721,-9,-2,-2,-2,-2,-2,-2,-16
