timestamp,emg1,emg2,emg3,emg4,emg5,emg6,emg7,emg8
83282016049,-2,-2,-1,-1,-1,-1,-1,0
83282016049,-1,-1,-1,0,0,-2,-1,-2
83282017612,-3,-1,1,0,-2,-1,1,-1
83282017612,0,-2,0,-2,-2,0,1,0
83282030444,0,-3,0,-2,-1,-2,0,-3
83282030444,-2,-1,0,0,-1,-1,0,-3
83282037212,-1,-1,-2,-1,0,-1,-2,1
83282037212,-3,1,-1,-1,0,-1,-2,-3
83282053506,-2,-1,-1,-2,-2,0,-4,0
83282053506,-1,0,-2,-2,-1,-1,0,0
83282055133,-1,-2,0,-3,-3,-1,-1,-1
83282055133,-1,0,-1,-1,-2,-3,-1,-2
83282076026,-1,0,-1,0,-2,-1,0,-1
83282076026,-1,-1,-1,-3,-2,0,-2,0
83282077713,-1,0,-2,-1,-1,0,-1,-1
83282077713,-2,-1,-1,-1,-2,-3,-2,0
83282090341,-1,-1,-1,0,-1,-1,-1,-1
83282090341,-1,-2,-1,-2,-1,-1,-3,-1
83282097203,-1,-1,0,-2,0,-1,-3,-1
83282097203,-1,-2,-2,-1,-1,0,1,0
83282113482,-1,-1,-1,0,-2,0,0,0
83282113482,0,-1,1,-2,-1,0,0,-1
83282115131,-2,-1,-3,-1,-1,-2,-1,-1
83282115131,-1,-1,-1,-1,-1,-3,-2,-4
83282136062,0,-2,-3,-1,-3,-3,-2,0
83282136062,-1,-1,-2,-2,-2,0,-2,-1
83282137707,-1,-1,-3,0,-2,0,0,-1
83282137707,-1,-1,-2,-1,-2,1,-1,-2
83282150569,-1,0,0,-2,-1,-1,1,-3
83282150569,-2,-2,-3,0,-3,-1,0,-3
83282157400,-2,-3,-1,-3,0,-2,-3,-3
83282157400,-2,-1,-1,1,-2,-1,-2,-1
83282173581,-2,-1,0,0,-1,-1,-2,1
83282173581,-1,-1,-1,-1,-1,-1,-1,0
83282175216,1,-1,0,-1,-1,-1,0,-1
83282175216,-1,1,0,-1,1,-1,0,-1
83282196073,-1,0,0,-1,0,0,-1,0
83282196073,1,0,-1,-1,-2,0,0,-2
83282197718,-2,-3,-1,-2,-1,0,0,-1
83282197718,-1,-1,-1,-1,-1,-2,1,-1
83282210375,0,-1,-2,-1,-3,-1,-1,-3
83282210375,0,0,-1,-1,-1,-2,0,-2
83282217221,-1,-1,-2,-1,-1,-1,-2,-1
83282217221,-2,1,-1,0,0,0,0,-2
83282233491,-3,-2,-3,0,-1,-1,0,-3
83282233491,-2,-1,-1,1,-1,-1,-3,-1
83282235167,-1,0,-2,-2,-2,-3,0,-1
83282235167,0,-2,-3,-1,-2,-2,0,0
83282256274,0,-1,-1,0,0,-1,0,-2
83282256274,-3,-1,-1,0,-2,1,0,-1
83282257695,-1,-1,-2,1,0,0,-2,-3
83282257695,-1,-1,-2,-2,-2,0,-1,-1
83282269770,0,-1,0,-2,-1,1,-1,0
83282269770,0,-1,-3,-1,1,-1,-1,-2
83282278708,-1,-1,-1,-3,-1,0,0,-1
83282278708,0,-1,-1,-1,-2,0,-2,0
83282293579,-1,-1,-2,0,0,-2,-1,0
83282293579,-2,-2,0,-3,-1,-2,-2,0
83282295158,-2,0,-1,-1,0,-2,-2,-1
83282295158,0,-2,-2,-1,-1,-1,-1,-1
83282316028,-2,0,-1,-1,0,-1,-2,-1
83282316028,0,1,-1,-1,-2,0,0,0
83282317705,0,-1,0,-1,-1,-1,0,-1
83282317705,0,-4,-1,-1,-3,1,-1,-1
83282329707,-1,-2,-2,-2,-1,-1,-2,1
83282329707,0,-1,0,-1,-2,-3,0,-1
83282338663,0,-2,-1,2,-1,-1,-2,0
83282338663,-3,-2,-1,-3,0,-2,0,-1
83282353567,1,-1,-2,-3,-1,0,0,-3
83282353567,0,1,-3,-1,0,-3,0,-2
83282355183,-1,-1,-1,-1,-2,-2,-1,0
83282355183,-1,-1,-1,-1,0,-1,-2,0
83282376073,0,-1,-1,0,-1,-2,2,-2
83282376073,-2,-2,-1,0,-1,-2,-1,-2
83282377701,-1,1,-1,-1,0,-1,-2,-1
83282377701,-1,1,0,0,-1,1,1,-1
83282389738,-2,0,0,-1,-1,5,-3,1
83282389738,-2,-3,-2,0,-3,-12,-4,-2
83282398729,-2,-2,-1,0,0,-2,1,0
83282398729,2,0,2,2,0,3,1,0
83282413800,-2,-2,-2,-3,-1,-4,1,-1
83282413800,-1,-1,-1,-3,2,13,-3,0
83282415187,-4,-1,0,8,0,-3,-3,-12
83282415187,3,0,2,5,0,-5,-2,6
83282436333,-2,-1,-1,-11,-5,-10,-2,-3
83282436333,-3,-3,-1,-2,-5,-3,-2,-7
83282437810,-6,-2,-3,4,-3,0,-1,9
83282437810,5,0,-1,-4,6,13,8,8
83282449986,0,-1,0,-39,-5,-11,-1,0
83282449986,-11,1,4,12,7,9,0,-39
83282458784,13,-2,-6,-17,-14,-17,0,24
83282458784,-14,-3,-1,11,0,1,-4,-52
83282473157,9,0,0,12,1,1,-2,32
83282473157,-2,-1,-2,-3,-1,0,-4,-12
83282479777,-1,-1,0,1,1,3,-3,6
83282479777,3,-2,-3,-3,-3,-13,4,15
83282496096,3,-2,1,10,2,14,4,-20
83282496096,-6,-2,-1,1,1,-4,-11,-79
83282497675,8,2,1,8,8,18,22,25
83282497675,7,0,-2,-13,-9,-19,-1,11
83282509914,-9,-1,0,3,3,13,5,29
83282509914,17,-1,-1,-3,-5,-10,2,15
83282518810,-11,-3,-1,-6,-3,-8,-16,-33
83282518810,1,-6,-5,-4,-4,-3,-18,1
83282533005,8,2,-1,3,-2,-3,-5,-17
83282533005,-5,-2,-3,-2,1,15,19,3
83282540025,-1,15,0,-2,-4,-11,-1,-8
83282540025,-4,-1,-2,0,1,2,0,8
83282556290,-8,-3,-3,4,1,-14,-16,16
83282556290,-5,-5,-3,-5,-1,4,-2,38
83282557718,-8,-3,-1,-4,-3,22,8,-44
83282557718,-19,-4,-4,-7,-9,-15,1,108
83282569939,-9,19,1,4,-5,-27,-14,-51
83282569939,7,0,4,2,3,-27,-6,-2
83282578753,4,-16,-3,-7,-3,40,26,16
83282578753,0,-2,-1,-2,-1,-2,-2,-51
83282593118,-3,-3,-1,3,0,22,-8,-17
83282593118,-9,-3,-7,0,-3,-20,3,40
83282599854,4,-5,-5,-1,2,11,-23,10
83282599854,-6,1,-2,-1,4,2,8,-35
83282616288,-2,-7,-3,-8,-11,-11,22,46
83282616288,18,4,5,4,2,17,-17,-21
83282617753,-13,0,4,-1,3,0,-12,11
83282617753,6,4,1,0,-10,-43,-12,0
83282629934,-5,-8,-3,-3,2,-4,14,-15
83282629934,0,-1,-7,-2,-1,19,-7,39
83282638771,-5,0,6,2,17,26,20,-46
83282638771,18,-2,0,6,-20,-46,-27,22
83282653161,-3,-22,14,17,2,-15,13,-20
83282653161,1,-6,-39,-27,17,63,22,16
83282659960,7,1,9,-2,-1,-26,-21,0
83282659960,17,9,-5,-1,7,38,16,-40
83282676013,-25,-1,-8,-18,-11,7,4,-32
83282676013,17,8,10,11,-4,-64,-70,84
83282682438,-3,0,3,9,1,-57,15,-83
83282682438,1,-6,9,7,6,35,4,60
83282698623,-4,6,-4,-1,-1,-4,2,-4
83282698623,-1,1,4,-1,-3,-3,15,-38
83282700235,-2,-18,-7,0,-8,1,7,45
83282700235,-15,-5,-1,-6,-20,-63,-11,-33
83282712929,14,7,-8,3,22,93,19,31
83282712929,-22,-31,2,-2,18,35,7,14
83282719920,-1,3,-5,2,0,-45,-17,17
83282719920,-26,-2,-13,-14,3,75,26,-32
83282736258,5,-9,-1,8,-2,-82,-16,13
83282736258,-11,9,3,-2,1,4,32,-26
83282737798,-3,0,-11,-9,-23,-35,-30,54
83282737798,-3,-5,5,7,2,20,-17,-61
83282758628,13,10,5,-14,-21,-32,-39,20
83282758628,-2,0,5,5,-18,-5,32,-9
83282760266,5,0,-4,-7,1,101,32,-28
83282760266,6,10,1,11,11,-83,-47,-8
83282774211,-12,2,1,-13,-15,3,-1,-8
83282774211,6,5,5,1,0,-3,11,-14
83282781246,23,-6,1,-7,-1,-5,-6,34
83282781246,-6,-3,-6,0,3,25,32,10
83282796293,20,7,8,21,44,43,-18,8
83282796293,-11,-2,-3,-16,-40,-16,-11,-3
83282797768,-29,9,-5,-5,-4,-32,-8,-26
83282797768,8,14,-9,-11,9,28,13,2
83282818710,10,-4,-4,6,-12,5,16,-7
83282818710,-11,-5,1,8,24,4,-22,-69
83282820197,-5,-7,-8,1,-12,-9,-4,69
83282820197,-15,-2,-1,-13,-27,-23,-22,-36
83282832214,1,3,0,4,11,0,11,23
83282832214,2,-2,-2,8,0,23,-8,-8
83282841283,-6,4,2,1,9,-5,-3,-44
83282841283,3,-11,-6,-34,7,3,4,34
83282856232,-9,-1,-2,3,-17,-20,-11,-22
83282856232,-12,4,4,0,-19,-20,-8,8
83282857765,12,-2,-4,-39,-1,25,8,1
83282857765,0,-2,5,36,13,14,14,2
83282880044,-7,-8,-7,-8,-5,11,1,-11
83282880044,7,2,5,32,13,-22,-7,6
83282881647,-2,-2,0,12,5,16,6,2
83282881647,0,-2,2,17,-8,23,-1,-2
83282892250,-5,-5,-3,-29,-24,-61,-17,-10
83282892250,2,-1,-9,12,2,17,10,5
83282901203,-3,7,8,-6,1,-21,-13,-13
83282901203,-1,-3,0,8,8,-4,1,24
83282923794,0,-2,1,4,0,14,6,-7
83282923794,-1,9,2,15,-1,-5,-9,-6
83282925214,-4,-5,-3,-40,-5,-14,7,-3
83282925214,7,-1,-2,-15,0,12,-1,9
83282938719,-4,-7,-31,-15,8,11,1,-2
83282938719,9,5,-36,3,-17,-23,-3,-2
83282940212,3,2,19,52,1,21,-9,0
83282940212,-1,-3,-4,12,5,-25,2,-8
83282952212,-3,-1,-1,-71,-1,21,7,2
83282952212,-11,-8,19,56,-16,-52,-24,-55
83282961233,7,-7,-28,-34,2,6,6,60
83282961233,-7,-1,8,2,8,5,-6,4
83282976059,11,0,16,10,11,23,15,6
83282976059,-6,18,2,-8,4,6,38,22
83282977644,-29,-4,-6,-34,-18,-11,-53,-128
83282977644,9,8,11,8,9,7,23,47
83282998621,-17,-7,-1,19,10,0,-12,-18
83282998621,10,4,11,-32,-6,2,20,17
83283000196,-18,8,21,36,7,7,-9,-18
83283000196,48,-3,9,-8,11,6,1,-15
83283020455,-3,4,23,15,-5,-10,-3,41
83283020455,-13,-12,17,-24,-3,27,-6,-4
83283021229,20,3,5,7,-5,-24,15,9
83283021229,-6,-3,-2,-6,-7,8,-6,-54
83283035617,-5,2,-7,12,-3,-21,12,42
83283035617,13,-5,0,-18,13,6,-11,23
83283036205,-13,5,0,13,7,11,3,-22
83283036205,-16,-2,-4,-6,-13,-14,-11,-14
83283058133,-33,-2,-4,17,4,13,-16,-96
83283058133,23,-12,-13,-23,-16,-23,31,67
83283058742,-22,-2,-5,6,-3,-7,-18,7
83283058742,-31,-8,11,0,-3,-24,-7,-17
83283080406,-2,-7,-3,5,14,46,19,0
83283080406,2,6,3,-2,4,-29,-21,-8
83283081121,3,-13,-4,5,-1,-8,-7,-33
83283081121,14,0,6,-3,-5,2,2,15
83283095339,-29,5,16,1,-7,-8,-4,-38
83283095339,-17,-3,13,-13,-14,5,-2,21
83283096177,15,-1,16,4,5,-1,7,29
83283096177,3,0,12,2,-3,2,-2,-2
83283117610,-40,-1,16,2,0,-7,-28,-66
83283117610,81,-5,13,-5,9,14,38,65
83283125358,4,-21,19,0,-4,1,25,0
83283125358,-8,1,12,-5,-7,1,-6,-29
83283140353,63,5,25,2,-10,-38,21,94
83283140353,-66,-12,1,-1,11,37,-8,-67
83283141162,56,8,-2,2,-2,-14,4,88
83283141162,-25,-4,-12,-8,-7,30,2,13
83283155365,-19,0,-18,1,-7,-14,8,-34
83283155365,-23,-1,-22,-5,0,2,-29,-50
83283156156,-5,-9,-7,4,-1,-11,3,27
83283156156,-27,-3,-12,1,5,22,17,31
83283177837,5,-17,-21,-5,-9,-14,-24,-34
83283177837,-17,-10,-9,2,11,-5,-24,-55
83283178667,-91,-11,-23,-9,-15,-11,-75,-128
83283178667,-16,5,-34,-9,-9,-4,36,-26
83283200358,-64,-7,-31,4,16,12,10,0
83283200358,-57,1,-6,6,-1,-12,-12,-93
83283201094,-11,2,-26,4,1,6,39,-52
83283201094,16,-17,5,-4,-5,-12,-12,12
83283215332,49,4,10,0,-6,-3,11,15
83283215332,-26,9,12,2,1,-5,-33,7
83283216142,35,18,23,-7,0,2,45,29
83283216142,-39,-28,-1,-10,-9,12,-20,-12
83283238170,33,16,11,8,12,22,39,41
83283238170,69,2,-5,-10,-10,-2,0,62
83283238672,-23,-6,-11,-6,-10,-10,-40,-9
83283238672,27,5,-8,1,-1,6,-2,-7
83283260575,22,17,-23,-8,-14,-16,-38,92
83283260575,-15,-1,-14,5,9,7,-5,-40
83283261180,69,27,-4,5,6,21,44,78
83283261180,-43,10,-11,-5,-8,-1,-13,-36
83283275480,11,-2,16,10,-3,-25,42,33
83283275480,-39,-17,-12,-17,-9,-5,-26,-68
83283276216,60,2,1,3,3,-6,80,100
83283276216,-23,-1,-3,2,13,-3,-50,-55
83283298155,-33,-20,2,-4,-7,6,29,-71
83283298155,77,16,13,-1,2,12,72,76
83283298692,2,-13,4,-13,-6,-1,-49,-128
83283298692,-58,-2,31,-6,-7,-31,1,-60
83283320603,-39,-28,40,-10,-4,30,-68,-126
83283320603,-63,4,13,1,-8,-15,25,-21
83283321177,-8,-18,-20,-12,-7,-9,-5,-16
83283321177,-16,-8,-74,7,9,1,21,34
83283335591,3,-6,-42,-4,-1,13,-9,-17
83283335591,12,-3,-34,0,-8,2,10,106
83283336196,-51,4,-43,15,12,-7,-22,-79
83283336196,65,15,-56,9,-1,1,3,68
83283358097,45,19,-70,13,13,-11,1,82
83283358097,25,-12,-69,10,12,34,92,60
83283358700,9,4,-59,14,8,-35,-28,-10
83283358700,115,2,-12,9,5,-8,0,-38
83283380690,28,8,-11,9,15,12,6,-24
83283380690,43,-13,18,4,10,-17,-82,1
83283381213,83,20,47,8,8,37,109,113
83283381213,40,-5,30,12,12,-12,-3,68
83283395558,6,20,40,-12,-7,-7,62,38
83283395558,-89,-9,28,15,3,5,-38,-39
83283396173,-48,-16,25,-8,4,14,7,-15
83283396173,-74,-2,42,-1,-7,7,-24,-115
83283418004,-86,-8,-11,1,-4,-36,-41,-58
83283418004,46,9,-20,-10,0,15,33,59
83283418787,-79,6,-30,-4,-6,9,-29,-21
83283418787,76,2,-65,-14,-11,-13,37,59
83283440596,47,-19,-94,-10,-7,0,-7,19
83283440596,-41,1,-103,-15,-10,2,18,-93
83283441212,63,6,-122,-8,-5,2,-27,-18
83283441212,23,17,-10,5,-1,4,-3,-4
83283455390,-70,-16,39,-14,-17,-5,-32,-91
83283455390,18,26,67,-6,-8,-22,-74,85
83283456200,18,-3,65,-14,-8,1,38,-11
83283456200,-8,7,41,2,7,14,-8,-2
83283478080,-11,18,40,7,-1,9,65,26
83283478080,-7,-16,58,-11,-7,-3,-40,-9
83283478769,-20,-4,116,1,-11,-17,-81,-118
83283478769,5,15,120,-7,-2,-1,91,67
83283500352,-12,-6,76,2,8,1,-38,-35
83283500352,12,-12,16,-4,-2,-1,0,-25
83283501202,-62,2,6,-2,-1,19,-25,-50
83283501202,20,-9,-26,-6,-13,-38,-49,68
83283523811,-43,-18,-45,3,-4,0,16,26
83283523811,17,17,4,-3,8,13,31,-28
83283524395,8,-13,-11,-5,-13,-17,-43,2
83283524395,-39,-2,-32,0,2,9,-53,-52
83283538095,7,-1,-18,-6,-4,-14,17,-3
83283538095,-5,-15,-25,4,-3,-11,-18,-43
83283538674,-14,-19,-14,4,4,-1,-39,-21
83283538674,-26,-16,-39,-15,-3,-13,-12,-125
83283560586,35,10,-22,9,-9,-6,-14,-65
83283560586,60,20,43,1,-2,1,13,-35
83283561234,-3,-1,15,0,4,2,-21,-20
83283561234,-24,-12,14,7,7,-7,4,14
83283575451,47,-2,17,-5,-5,17,-6,-12
83283575451,-74,-10,5,-5,-5,-8,-6,-31
83283576189,0,2,10,2,4,5,29,40
83283576189,2,8,21,0,0,-2,1,8
83283598060,-1,-4,32,-1,3,-1,-26,-5
83283598060,10,3,4,-2,-3,-11,-3,-15
83283598647,4,4,17,6,8,16,21,46
83283598647,-9,-6,8,-7,-9,3,6,-30
83283620640,12,5,14,-2,-5,-20,-28,4
83283620640,5,-3,8,3,-1,-10,11,-10
83283621186,32,5,6,0,0,5,20,20
83283621186,-17,3,13,-1,-2,5,-22,-28
83283635559,10,-2,-1,3,3,0,13,11
83283635559,3,3,-2,-1,4,4,6,-18
83283636176,25,-4,-13,-4,-8,0,13,60
83283636176,11,-1,0,-4,-3,8,7,42
83283657951,-8,-4,9,-5,-5,-6,-30,-15
83283657951,21,2,-1,0,-1,-6,5,-4
83283658670,-15,2,7,1,-2,-9,12,-6
83283658670,-13,14,-3,-3,-2,-10,-10,-22
83283680532,23,-3,-4,-2,1,7,-2,51
83283680532,-12,-3,-4,2,-3,2,-6,-23
83283681249,21,-1,-3,-10,0,0,8,-7
83283681249,-2,-2,-2,-4,-2,18,-3,1
83283695506,8,2,2,3,1,-19,2,-13
83283695506,-21,1,-9,-2,-7,-13,-11,-12
83283696155,-1,1,-6,5,7,8,15,26
83283696155,14,-3,-5,0,1,6,4,-4
83283717984,-11,-6,-6,-4,-2,28,1,-12
83283717984,19,-1,-11,5,3,-35,-10,77
83283718820,-20,-11,-7,-22,-13,-17,7,-14
83283718820,-17,-9,0,8,3,7,8,-23
83283740600,3,-5,-16,17,0,3,-14,2
83283740600,-6,10,0,-16,2,13,9,-20
83283741169,-2,-2,6,15,8,-8,-10,-15
83283741169,-7,-22,-8,-47,-22,6,8,-1
83283755586,2,-2,2,1,4,4,5,3
83283755586,8,2,8,11,5,-17,5,36
83283756214,-15,6,-2,1,-4,-14,-14,-13
83283756214,7,-4,-2,9,7,5,5,-18
83283778083,-11,1,-8,-3,7,8,14,5
83283778083,1,-2,-11,-2,-8,28,-7,-42
83283778742,-5,12,-18,10,6,-25,10,10
83283778742,-8,-7,-10,15,0,-7,-8,-7
83283800482,8,6,-12,5,1,-2,-3,1
83283800482,-5,-4,-9,-29,-2,18,4,-23
83283801173,-9,0,-7,7,1,-12,-11,-12
83283801173,-5,-4,-18,-29,-16,-12,-11,-4
83283815621,-49,-18,-12,10,4,1,2,-13
83283815621,3,4,19,23,-2,4,-5,-39
83283816234,5,-7,-25,-1,-3,10,3,35
83283816234,0,3,6,17,-1,-9,-5,3
83283846313,19,-5,-21,-12,-7,-2,-10,-9
83283846313,-8,-13,-30,-6,-15,-8,5,17
83283846886,-6,-2,8,-5,4,11,-1,-27
83283846886,-29,12,9,39,4,-3,-4,1
83283860579,10,14,1,-22,-11,-4,-4,5
83283860579,0,0,-5,49,6,-8,-14,-14
83283861154,4,8,-7,-13,-1,9,2,-2
83283861154,11,-8,9,-27,-7,8,2,14
83283875413,1,8,0,-26,-4,3,-10,-16
83283875413,3,-10,10,-25,-2,-2,-3,0
83283876216,-11,3,16,75,0,-11,-17,-14
83283876216,-3,-7,-13,-23,-2,-4,-3,-10
83283898065,-16,-19,-1,-47,-6,5,-5,-9
83283898065,-3,1,2,20,-2,3,6,-15
83283898649,0,-10,0,16,-14,-6,-3,-6
83283898649,-7,1,-8,-61,-5,-3,6,-11
83283920350,15,12,40,55,8,-7,4,6
83283920350,32,6,-8,-38,3,1,12,29
83283921132,-12,-11,9,14,6,0,7,10
83283921132,4,8,14,22,15,-3,11,19
83283935575,9,-9,-1,27,4,-2,9,17
83283935575,-7,-2,-11,-4,8,-4,8,2
83283936150,-13,-2,-17,-33,2,3,5,0
83283936150,14,8,3,24,1,-9,-1,-4
83283957907,1,8,-22,-17,-2,-8,-4,-1
83283957907,-28,-4,-9,69,13,3,4,-12
83283958680,31,-8,-14,-101,-10,10,3,1
83283958680,-10,-7,-23,22,-1,-6,-6,-5
83283980683,-6,2,8,-18,-10,-7,-7,-12
83283980683,2,3,8,-7,-14,-5,-9,-9
83283981241,4,2,11,16,-2,2,-7,-4
83283981241,12,-1,7,-8,0,-5,-5,4
83283995382,8,7,3,-3,-3,8,-4,-2
83283995382,1,-4,6,8,5,-8,-1,-5
83283996200,-7,5,3,-6,-7,7,-3,-10
83283996200,-34,-27,-11,-13,-6,-1,-6,-3
83284017876,-22,1,4,3,2,-15,-4,-2
83284017876,0,1,5,-10,-1,3,-2,-8
83284018714,-7,-7,0,-3,-5,4,4,1
83284018714,8,1,2,12,-3,4,3,0
83284041057,8,7,9,0,-2,7,3,3
83284041057,-11,-16,-11,-30,-9,-17,-26,-22
83284041939,-12,-4,2,10,8,-8,-2,44
83284041939,2,13,1,11,6,-9,-2,-1
83284054985,-1,-5,-10,-1,-3,12,5,-6
83284054985,0,11,1,-18,-11,-7,0,15
83284070499,11,3,4,12,-2,13,-12,-19
83284070499,-3,17,6,-11,-12,-27,8,-10
83284078123,0,-12,-17,-7,5,7,6,-1
83284078123,-9,-4,-8,-3,6,26,6,-5
83284078801,13,3,34,9,-8,-11,1,-3
83284078801,-21,-7,-4,1,-3,-5,-24,-52
83284101078,33,9,1,1,-2,4,-9,-42
83284101078,19,4,-10,-3,1,11,7,52
83284101871,-44,-9,-5,-11,-8,-30,-13,-10
83284101871,48,6,4,5,4,-2,11,44
83284115444,-17,-24,-14,7,-6,-10,2,-17
83284115444,-34,-9,-2,-9,-20,-37,-35,-55
83284116176,-17,-14,-12,-7,5,13,11,-39
83284116176,15,2,16,19,26,39,20,83
83284138086,-6,-2,0,-11,-16,-23,-7,1
83284138086,-9,1,9,-4,-2,11,12,-50
83284138702,8,-13,-17,-7,-5,-8,-18,38
83284138702,-19,12,7,4,-2,-15,10,-61
83284161165,-8,9,-11,-3,10,7,-25,33
83284161165,43,-9,4,-10,-3,12,30,90
83284161844,-16,26,-29,-6,-2,21,-22,-68
83284161844,-4,-9,-17,-2,-2,-36,-5,-21
83284175479,3,6,9,2,-5,5,18,26
83284175479,-17,-5,-11,9,5,1,-13,-36
83284176182,5,24,5,-12,6,14,42,42
83284176182,-19,0,-5,-15,-13,14,-15,-77
83284197954,14,-22,-9,2,-6,-26,-8,-14
83284197954,-9,10,18,6,3,14,5,-8
83284198735,23,14,10,16,6,-11,-13,-66
83284198735,34,-3,13,9,11,14,3,14
83284220441,-7,11,31,21,15,-6,20,-2
83284220441,17,-13,12,26,9,26,14,-10
83284221136,-3,-4,24,19,16,-29,3,4
83284221136,-51,-14,-15,-57,-20,-21,-21,-37
83284234983,19,0,-1,-12,-2,12,-26,-32
83284234983,-4,9,-2,-1,8,-8,11,31
83284243054,-39,-31,-13,0,-4,8,0,-21
83284243054,-20,-15,-21,14,-6,-15,35,15
83284257954,-93,-12,-7,0,25,19,-15,-105
83284257954,2,16,0,3,8,28,23,-8
83284258758,-2,-7,-5,-4,-2,30,-14,-46
83284258758,-21,-12,-8,-1,-20,-81,-49,13
83284281097,18,23,-1,-6,-13,11,23,13
83284281097,48,-21,-19,-7,-9,-30,-9,25
83284281908,-28,8,3,6,-3,0,1,-36
83284281908,-9,-17,-9,-3,-3,75,-47,-49
83284294766,7,16,-21,1,-2,-35,68,-50
83284294766,-22,2,-37,-17,3,-7,-7,-42
83284302949,30,-21,-25,-16,-23,-22,0,59
83284302949,21,17,9,-1,-6,12,-35,9
83284317870,-1,0,19,-3,-18,-24,9,30
83284317870,-50,11,40,-3,1,3,21,28
83284318648,-7,-11,1,0,9,10,-47,-18
83284318648,20,-19,10,1,6,9,10,-14
83284341110,-5,-8,37,-3,-13,2,-39,9
83284341110,-9,-42,-4,-18,-29,-21,21,-72
83284341904,43,12,15,0,3,-12,-61,-19
83284341904,-78,6,8,16,23,35,11,-26
83284354673,-37,-24,0,-15,-23,-16,-13,-33
83284354673,7,-7,17,14,30,41,65,23
83284362885,-26,52,15,-3,-12,-4,32,-23
83284362885,127,-16,-2,-15,-13,-11,4,-1
83284378186,0,-3,11,5,7,4,-11,50
83284378186,-53,-3,6,3,-3,-26,-12,11
83284378777,57,8,-19,-5,9,23,-12,6
83284378777,-8,18,1,-2,-15,-34,18,58
83284401123,52,-9,-15,9,39,81,76,36
83284401123,22,1,-6,-17,-34,-37,-107,-91
83284401823,-9,-65,-18,6,10,1,40,58
83284401823,9,16,-110,4,-15,9,22,-43
83284414757,26,-29,-128,1,2,-25,-72,35
83284414757,-74,7,-127,-5,5,-32,-63,-48
83284423021,-47,-9,-109,-19,-35,-58,-82,-40
83284423021,8,-33,-92,6,29,14,33,59
83284438062,76,15,-8,6,14,57,29,22
83284438062,-70,-15,48,2,-10,-18,-16,-49
83284438783,0,2,64,-3,4,4,3,-17
83284438783,45,33,127,3,-16,-15,-31,-37
83284461084,-33,24,13,8,12,6,36,43
83284461084,5,-7,38,-4,1,21,-20,11
83284461862,31,26,79,17,-21,-28,-33,-12
83284461862,-86,-31,59,3,25,2,-48,-34
83284483541,-88,-8,72,10,29,1,30,-23
83284483541,92,18,81,-13,-45,-16,7,6
83284484335,11,-4,31,18,37,35,14,59
83284484335,-23,0,34,5,3,4,6,29
83284497942,-36,-8,-10,-2,-10,8,-8,-26
83284497942,38,14,-23,-12,-18,-55,-35,18
83284498714,-82,-10,-18,4,1,3,29,-10
83284498714,11,-3,7,10,28,19,0,43
83284521110,18,2,19,-15,-45,-52,-101,-73
83284521110,13,8,6,15,43,46,67,54
83284521872,-66,-12,-37,-7,-8,-8,-26,-16
83284521872,-10,2,-5,3,-2,16,22,-4
83284534896,-5,6,-25,-5,-12,-31,-56,-29
83284534896,-20,-28,-3,-17,-1,8,-30,-14
83284543092,32,8,-8,6,4,19,34,20
83284543092,55,15,-16,-6,-14,-28,-5,-8
83284557881,-22,-1,12,-7,-2,8,2,44
83284557881,5,3,-11,11,15,11,-10,1
83284558641,31,9,-4,-11,-7,-15,58,45
83284558641,3,3,-18,-9,-9,7,16,-13
83284581277,15,-3,-3,9,7,-7,-3,-12
83284581277,-20,2,-29,6,13,15,12,-6
83284581860,1,0,6,-1,3,2,-31,-12
83284581860,-28,5,5,-4,-13,7,38,-6
83284603782,30,-10,2,-6,-2,-16,-35,2
83284603782,-12,0,-26,6,6,-12,13,8
83284604438,22,-1,-18,-1,5,14,10,-2
83284604438,-3,13,2,-3,-6,-27,-26,-7
83284618077,27,0,-24,-4,-2,23,35,-7
83284618077,20,5,-17,-1,-13,-37,3,-8
83284618688,-10,1,1,2,4,13,3,9
83284618688,-32,-12,-22,-6,3,25,29,9
83284648557,-12,4,-10,-4,-11,-22,-56,-3
83284648557,-34,2,-30,1,-10,2,-27,-28
83284649364,43,-2,79,1,8,-5,21,87
83284649364,1,-8,65,2,2,-8,-28,19
83284663734,-4,-8,126,-9,-11,-1,4,3
83284663734,5,-3,127,-1,-2,-4,17,-8
83284664340,22,-3,1,-8,-5,2,-6,-41
83284664340,-39,-4,-111,2,4,6,15,-7
83284678571,-14,-9,-50,-1,1,2,18,19
83284678571,21,4,-54,-1,0,-1,8,1
83284679146,0,-5,-107,0,-1,7,23,-38
83284679146,-3,4,-98,0,-2,-7,2,-24
83284700379,-29,-5,-113,-4,-5,31,24,-82
83284700379,12,-3,-121,2,2,-3,3,28
83284707917,4,2,-77,-6,-15,-15,-9,-8
83284707917,8,11,-20,3,2,5,-17,-18
83284723816,-3,11,26,6,9,-7,0,12
83284723816,-14,-8,-2,1,13,27,11,13
83284724396,-11,-2,-33,-4,-9,-9,-8,13
83284724396,-13,-1,17,-4,-19,-15,27,5
83284746006,41,15,35,6,21,-48,17,21
83284746006,8,2,46,-2,-4,59,-24,-29
83284746910,3,-12,-14,3,30,40,20,27
83284746910,-7,-4,14,-7,-27,-27,-35,-2
83284761186,28,-8,-6,1,-5,-12,0,17
83284761186,1,2,10,-2,7,-4,11,7
83284761837,-23,-1,-49,-6,5,22,-2,-36
83284761837,41,-3,-17,2,5,-12,-9,22
83284791253,-1,4,-38,0,-2,10,3,4
83284791253,17,1,-7,-3,-11,-24,-15,7
83284791888,7,0,81,-2,-12,-10,4,-14
83284791888,1,-4,48,-1,5,6,-5,5
83284797960,-18,-4,96,-6,-19,-26,2,-9
83284797960,-9,5,124,0,5,33,15,8
83284798793,-6,-6,127,-5,2,-31,-8,-8
83284798793,-8,-4,88,1,0,-5,-1,-8
83284821042,-36,2,112,-6,-7,-4,-12,-23
83284821042,19,4,-98,-8,-10,-15,-33,1
83284821871,9,15,-95,2,-4,-1,11,31
83284821871,6,-4,-124,-2,4,68,-9,-31
83284843621,10,-3,-128,3,9,-47,10,-7
83284843621,-2,3,-118,-1,2,-5,-11,-15
83284844371,8,-3,-118,-4,-7,-5,-9,-22
83284844371,-10,3,-99,1,-1,-7,12,2
83284857862,-4,-2,-94,0,-10,18,-8,13
83284857862,5,-5,-42,-15,-3,6,14,-20
83284858686,-41,-5,-19,4,-2,-24,-18,-22
83284858686,7,10,56,7,7,2,1,3
83284881158,-15,-1,52,0,0,22,10,-22
83284881158,-1,0,53,3,2,-15,13,65
83284881886,-1,0,57,-4,-3,1,2,-7
83284881886,4,-2,59,-6,-1,-10,-10,12
83284903670,6,-10,42,5,2,35,2,-7
83284903670,0,-3,81,5,-5,-46,7,28
83284904425,-2,4,63,-1,7,29,-2,0
83284904425,-16,-10,27,3,3,-30,14,12
83284918060,9,11,-14,-3,1,16,3,3
83284918060,-2,-7,-21,-5,-10,5,-5,-33
83284918672,3,-2,-6,2,3,-3,0,-17
83284918672,-8,-1,-12,1,3,-3,-10,-5
83284941319,20,2,-28,-2,-1,12,8,-11
83284941319,10,-1,-17,2,-2,-4,2,32
83284941956,1,0,2,-6,-8,-19,-5,13
83284941956,-2,2,2,1,-3,3,3,-20
83284963560,1,-11,-11,-2,-7,0,-11,7
83284963560,4,1,0,4,5,-21,-14,-20
83284964292,4,-2,7,-1,3,10,12,-5
83284964292,8,-8,4,-1,2,8,0,23
83284978064,7,-1,-10,-5,-5,-5,5,4
83284978064,-12,1,4,6,-2,16,1,10
83284978655,-7,-4,-5,-6,-11,-32,3,-26
83284978655,0,3,4,0,2,-6,-2,-26
83285001133,1,-4,-6,-4,5,1,0,70
83285001133,-5,0,0,-3,-1,21,-7,-36
83285001868,4,1,5,1,-2,-12,7,7
83285001868,-4,-10,1,-4,-2,0,-7,-8
83285023540,-1,-5,-8,-6,-4,-12,1,-34
83285023540,6,1,2,1,2,4,-3,-32
83285024330,-36,-9,0,-5,-7,-8,-20,-23
83285024330,40,-5,4,1,1,20,26,74
83285037870,-5,-16,-5,2,0,-30,-7,-7
83285037870,-4,-1,-3,0,9,23,11,-3
83285038714,0,1,1,0,-6,-3,-3,-13
83285038714,-4,4,2,-3,-1,-1,-11,-18
83285061038,-5,5,-2,-2,-7,-16,-13,-7
83285061038,7,-3,-2,-4,-2,-1,11,11
83285061812,8,-3,3,4,6,9,12,16
83285061812,-5,1,-1,-6,0,-4,-20,-6
83285083563,4,3,-1,3,0,4,10,20
83285083563,-5,-2,-5,-1,-3,-13,0,-1
83285084327,4,1,-1,-1,-1,7,-4,5
83285084327,-6,1,-2,-4,-3,-2,4,-6
83285106073,-6,5,4,0,1,0,-5,-14
83285106073,0,-3,-4,-6,-4,-13,-3,-2
83285106812,5,-1,-1,-1,-1,1,1,8
83285106812,1,0,1,0,0,-6,-1,-1
83285121064,0,0,0,-1,2,11,-4,3
83285121064,-2,-2,1,-2,-2,1,4,6
83285128839,6,-4,-1,-1,-3,-11,-4,11
83285128839,-8,0,-2,-4,-5,-4,-2,-14
83285143591,1,2,0,0,3,12,-3,10
83285143591,-7,-1,-3,1,1,3,1,-20
83285144349,1,-1,0,1,-2,-8,-4,8
83285144349,1,2,1,1,2,7,-2,-3
83285166090,-3,5,-3,-2,-6,-23,4,4
83285166090,-1,-5,-3,-3,-3,1,2,2
83285166846,-4,0,1,-1,2,12,-1,-6
83285166846,0,3,0,-1,0,-28,-20,3
83285188964,0,-3,0,0,-1,4,12,-5
83285188964,5,2,3,3,3,2,-3,7
83285189750,-2,-1,-2,-2,-3,-4,2,-8
83285189750,-5,-4,-3,0,-3,11,-10,-7
83285203587,-2,-2,-5,-4,-4,-7,6,4
83285203587,1,-1,-1,-1,-1,-1,9,20
83285204377,4,0,3,2,2,1,-2,18
83285204377,2,2,-2,0,2,2,1,-2
83285217151,-5,-1,-2,-1,-2,-1,-9,-14
83285217151,-3,-1,-1,-3,-4,-4,-3,-6
83285225327,1,-2,1,0,0,-2,1,3
83285225327,0,1,1,0,-1,-1,0,2
83285239660,-2,1,-1,1,-1,0,-2,-2
83285239660,-1,-1,-2,-1,1,3,2,4
83285248670,0,-2,-2,1,-2,0,-5,-8
83285248670,-1,-1,-2,0,-1,-4,3,-2
83285263511,2,-2,-2,0,2,8,-3,0
83285263511,1,-1,-3,-1,-1,-7,-5,-6
83285265105,-2,-1,-2,-3,-4,-2,-4,-5
83285265105,-2,1,0,-3,-2,2,9,4
83285277460,-2,-1,1,-2,0,1,-4,-1
83285277460,-6,0,-1,-1,-2,-4,-6,-5
83285286206,0,0,1,-1,-3,-2,0,-3
83285286206,1,-3,-2,0,-1,1,4,5
83285299934,0,0,-1,-2,0,0,-7,-5
83285299934,-2,-2,0,-1,-2,-5,-4,-6
83285308741,-2,0,-1,-2,-2,3,2,-1
83285308741,-1,0,1,-1,-1,1,1,-2
83285323526,-2,-1,0,-2,-2,0,-4,-2
83285323526,-3,-2,-1,-1,-1,0,3,-1
83285325184,0,-1,-2,-1,-1,0,1,1
83285325184,1,0,-2,0,0,-1,0,0
83285337184,-2,0,1,0,-1,-2,-2,0
83285337184,0,-1,0,-2,-1,-1,-2,1
83285346171,-1,0,-2,-3,-1,-2,-3,-3
83285346171,-3,-2,0,0,-2,-1,1,-5
83285360383,2,0,-2,-1,-1,1,-2,4
83285360383,0,-2,0,0,-2,-4,-2,-2
83285367138,-2,-1,0,0,-1,-2,-2,-3
83285367138,0,-3,0,0,0,0,1,-7
83285383537,-2,-4,-1,0,-1,-2,-1,4
83285383537,0,-1,-2,0,-1,-1,-3,0
83285385148,-2,-2,-1,-2,-1,-1,-1,-1
83285385148,9,-1,-2,-1,-2,-1,1,4
83285397217,0,0,1,-1,-2,1,-2,-4
83285397217,-2,1,-2,1,-1,-2,-2,-4
83285412170,-2,-20,-1,1,1,0,0,3
83285412170,3,-1,0,0,0,-2,0,6
83285420370,-3,-1,-2,-2,-1,-1,-3,-4
83285420370,0,-1,-1,-1,-2,-2,-2,-1
83285427113,-1,3,-2,-1,-1,-1,-2,-8
83285427113,-10,-4,-1,-1,-1,-2,-1,8
83285443580,0,-5,-3,-1,-1,-2,0,-1
83285443580,-1,1,-3,0,-2,-2,2,-2
83285445125,1,4,0,-1,-3,-2,0,-2
83285445125,-1,0,-2,-1,-2,-2,-3,-5
83285457238,1,1,1,-3,0,0,-1,-2
83285457238,-3,-2,-1,-2,0,-1,-1,0
83285466132,-2,2,-1,-1,0,-2,-2,0
83285466132,-1,0,-3,-1,0,-1,-1,-3
83285480566,-2,-1,-3,-2,-1,0,-2,-2
83285480566,-1,-2,-1,-2,-1,0,-2,-2
83285487248,-1,-1,0,-1,-1,-1,0,-1
83285487248,-1,-1,0,-1,0,-1,0,-4
83285503581,-1,-2,0,-2,0,0,-1,-3
83285503581,-2,-2,0,-1,-2,1,-1,-1
83285505132,0,2,-2,-1,-2,-2,-2,-1
83285505132,-3,-1,-1,-2,-2,-1,-1,-2
83285517138,2,-2,-3,-2,-1,-2,0,-2
83285517138,0,0,-1,-1,-1,-1,-1,-1
83285526232,-2,-1,0,0,-2,-1,-1,0
83285526232,1,-1,-1,-1,-1,0,-1,-1
83285540374,-4,-1,0,1,-2,0,-1,-2
83285540374,0,-2,0,-2,-1,0,0,-1
83285547158,0,0,-3,-1,0,0,-1,-3
83285547158,-1,-1,0,0,-2,0,-1,6
83285563565,-2,1,-2,0,-1,-2,-1,-5
83285563565,-2,0,-2,-2,-1,-2,-2,-2
83285565209,-1,0,-1,-2,-2,0,-2,-2
83285565209,-2,-1,-1,-1,0,-2,-2,-5
83285585120,-1,1,0,0,0,0,-3,0
83285585120,2,-1,-2,-2,-1,-2,0,1
83285593735,-1,-1,0,0,0,-1,0,0
83285593735,0,-1,-1,-1,-2,-1,-1,-1
83285599959,-1,-1,-1,0,-1,-1,-1,3
83285599959,-1,-2,-1,-1,-1,-2,-1,1
83285608732,-2,-1,-3,0,-1,-2,0,0
83285608732,-2,0,-1,0,-1,1,-1,-1
83285623575,-1,1,-1,-1,-1,-1,2,-3
83285623575,0,0,-3,-1,-3,-1,-1,3
83285625170,-1,-1,-1,-1,0,-1,-2,0
83285625170,0,0,-1,-2,0,0,-1,-2
83285646066,-2,-1,0,0,-3,-1,-2,-3
83285646066,-1,-3,0,0,-2,-1,-3,-3
83285647698,-6,-1,-2,-1,0,-1,-1,-3
83285647698,0,-2,-1,0,-3,0,-1,-1
83285668482,-1,-2,0,-1,0,0,1,-1
83285668482,0,-1,-2,-2,0,0,-1,-4
83285670105,0,0,0,0,-1,-1,-2,2
83285670105,-2,-3,-1,-2,-1,-2,-2,-3
83285683563,-2,-1,-1,-2,0,-1,-1,2
83285683563,-2,-1,0,-1,-1,-3,-3,-1
83285685127,0,-3,-1,-1,-2,-1,-1,-1
83285685127,0,-1,-3,-1,-1,-1,1,0
83285706044,1,-2,-1,-1,-1,-2,-1,0
83285706044,-1,0,-2,0,-1,-2,0,-1
83285707802,0,-1,0,-2,-2,-1,-2,1
83285707802,-2,0,-2,-2,0,-2,-1,-1
83285719737,-2,-2,-1,-1,1,-1,-2,-3
83285719737,-1,0,1,-1,-1,-1,0,-1
83285736217,1,-1,-3,-1,0,0,-1,-2
83285736217,-1,-2,0,-1,0,1,-2,-1
83285743585,-1,-1,-2,0,-2,-1,1,-3
83285743585,-2,0,-1,0,0,0,-2,-1
83285745088,-1,-1,-1,-1,-1,-1,-1,0
83285745088,0,-2,0,-2,-1,-2,0,-2
83285766014,-1,-1,-1,-2,-1,0,-2,-1
83285766014,0,-2,-2,-1,-1,-2,-3,-2
83285767685,-1,-2,-1,-2,-1,0,-1,-1
83285767685,-1,-1,-2,-2,-1,-1,-1,1
83285788798,-2,0,-2,-1,-1,1,-1,-1
83285788798,-1,-2,-1,-1,-2,-1,1,0
83285790114,-1,-3,0,-1,-1,0,0,-3
83285790114,-1,-1,-1,-2,-1,-2,0,0
83285803546,1,-2,-1,1,0,-2,0,1
83285803546,-1,-2,-1,-1,0,0,-2,0
83285805156,0,1,-2,0,-3,-1,-2,-2
83285805156,-2,-1,-1,0,-1,-1,0,-1
83285826084,-1,-1,-2,0,-3,-2,-1,-1
83285826084,0,-1,-1,0,-3,0,-2,0
83285827642,0,-1,-1,-2,-2,-1,-1,1
83285827642,-1,-1,-1,-2,-1,0,-1,-2
83285840461,0,-1,-2,-1,-2,-1,-2,-1
83285840461,-2,-1,-1,-1,-2,0,1,-1
83285847338,-1,-1,0,-1,0,-1,1,-2
83285847338,-1,-1,-1,-1,0,-2,-1,0
83285863617,-2,-1,-1,-2,-1,-1,-1,-3
83285863617,-1,-1,0,0,-1,0,-2,-1
83285865119,1,0,-1,-1,0,-2,-1,-2
83285865119,-1,0,-2,-1,-2,0,-2,-1
83285886082,-2,-1,0,-2,-2,-3,-1,-3
83285886082,0,-2,-1,-2,0,-1,-1,0
83285887709,-2,-2,-2,-1,-2,-2,-2,1
83285887709,0,-2,-2,-1,0,-1,-1,-1
83285900611,-1,0,-2,-1,0,0,-1,-1
83285900611,-1,0,-1,-2,0,-2,1,-1
83285907215,0,-2,-1,-1,-2,1,-2,-2
83285907215,0,0,-1,-1,-1,0,-1,-2
83285923637,-2,-1,0,-2,-2,0,-1,1
83285923637,-3,-2,0,-2,0,-1,-1,-2
83285925130,-1,-1,0,0,-2,-1,-1,-2
83285925130,-2,0,-2,-2,-2,-1,-1,-2
83285946042,0,-2,-1,0,-3,-2,-1,-2
83285946042,0,-2,-1,0,0,-2,0,-1
83285947685,-2,-1,0,-2,0,-1,0,-2
83285947685,0,-1,-1,0,0,-2,0,-1
83285960336,-2,-3,-1,-2,2,-2,-2,-1
83285960336,1,-3,0,-2,-3,-1,-1,-2
83285967125,-1,1,-2,-1,0,0,0,1
83285967125,-1,-1,0,0,-1,-1,-1,0
83285983567,0,0,-1,-1,0,-1,0,0
83285983567,-2,0,-2,-1,-2,-2,-1,-3
83285985131,1,-1,0,-1,0,0,0,-3
83285985131,-1,-2,-2,-1,-1,0,-2,-2
83286006063,-1,-2,-2,-1,-2,-1,-1,0
83286006063,-1,-2,-1,-1,1,0,-2,0
83286007711,0,-1,0,-1,-1,-1,-1,1
83286007711,-2,-2,0,-1,-1,0,-2,-1
83286019691,-3,-3,-1,-2,-2,-1,-1,-3
83286019691,-2,-1,-2,-1,-1,-1,-2,-1
83286028727,-1,-1,0,-2,-1,-1,-1,-2
83286028727,-1,0,0,0,-2,-2,-1,-2
83286043517,0,-1,-1,0,0,-2,0,-2
83286043517,0,0,-1,-1,-1,-1,0,-2
83286045119,0,-1,-2,0,0,-1,-2,-7
83286045119,-2,-1,-1,-2,-2,0,0,0
83286066016,0,1,0,-3,-2,-1,0,0
83286066016,-3,1,-1,0,-1,0,0,2
83286067678,1,-2,-2,-1,0,-1,0,-1
83286067678,-2,-4,-2,-2,-3,-1,-1,-1
83286079689,-1,-2,0,-1,-1,0,-3,0
83286079689,-2,-2,0,-3,0,-2,-1,-2
83286096301,-4,-1,-1,-1,-1,-2,-2,-1
83286096301,0,-2,-1,-1,-1,-2,0,-1
83286103505,-1,2,-1,-1,-1,-1,-2,-1
83286103505,-1,-1,1,-1,-1,-1,0,-2
83286105250,-2,-2,-2,-1,-3,-2,-3,1
83286105250,-2,0,-1,-2,1,-1,-3,-3
83286126271,0,-1,0,-1,-1,-1,-2,-2
83286126271,1,-1,-1,0,-1,-2,-2,-1
83286127763,-1,-1,-3,-2,-1,0,-1,1
83286127763,-1,0,0,1,0,0,-1,-1
83286139896,-1,0,-2,-2,-3,-2,-1,-1
83286139896,0,0,-2,0,0,0,1,-1
83286148768,0,0,-1,-1,-2,-1,-3,1
83286148768,-1,0,-2,0,0,-3,0,-6
83286163776,-1,-3,-1,0,-1,-2,-1,-1
83286163776,-2,0,-2,-1,-3,-2,-2,-2
83286165198,-2,0,-1,-2,-1,0,0,2
83286165198,0,0,-1,-2,0,1,-1,-1
83286186116,0,-1,0,-2,-1,1,-1,-1
83286186116,-1,-1,-2,-2,-1,-2,-1,0
83286187705,-2,-1,0,-1,-1,-1,0,-3
83286187705,-1,-1,-1,-2,-2,-1,-2,-1
83286199711,0,-1,0,-1,0,-1,0,0
83286199711,-1,0,-2,-1,-1,-1,-1,0
83286208746,0,-2,-2,-2,1,-2,-1,0
83286208746,-1,-2,-1,-1,-2,-1,-1,1
83286223794,-3,0,-1,-1,-1,-2,-1,0
83286223794,-1,0,-1,-1,0,-1,-2,-1
83286225248,0,-1,-2,-2,-1,-1,-2,0
83286225248,0,0,0,-1,-2,-2,0,0
83286246059,0,-1,-2,-2,-1,0,-1,-2
83286246059,-1,-1,-2,-2,-2,0,-1,-2
83286247607,-1,0,0,0,-1,-1,-1,-2
83286247607,-1,0,-2,-1,0,1,0,-1
83286259947,-2,-1,-1,-1,-1,-2,-1,-1
83286259947,-1,-1,0,-2,-1,-2,-2,-1
83286268782,-1,-1,-2,0,-1,0,-2,-1
83286268782,-1,-1,-1,-1,0,-1,0,0
83286283745,-1,-2,-2,1,-1,0,0,-1
83286283745,-2,-3,-2,-2,-1,0,0,0
83286285208,0,-2,-2,0,-1,-1,-1,-1
83286285208,0,-2,-2,0,-1,-2,0,0
83286306270,-1,0,-1,-1,-1,0,-1,0
83286306270,-2,-1,-3,-1,-1,-1,-1,-1
83286307691,-2,-1,-1,-1,-2,-2,-1,-1
83286307691,0,-1,0,-1,-1,-2,-3,1
83286319800,0,-2,-1,-1,1,0,-1,-2
83286319800,-1,1,-1,-1,-1,-1,0,-4
83286328753,-1,0,-1,-1,-1,-1,-1,8
83286328753,-1,-1,0,-1,0,0,0,-2
83286343555,-2,-2,-1,-3,-1,-3,-1,-1
83286343555,1,-1,-1,-2,-3,0,-1,1
83286345095,-1,-2,-2,-3,-1,-1,-1,-3
83286345095,0,-2,-1,-1,0,-2,-2,-2
83286366090,-1,-1,-1,0,0,0,-1,0
83286366090,-3,-2,-2,0,-1,-1,-1,-1
83286367690,-1,0,-1,0,0,0,-2,-3
83286367690,0,1,0,-3,0,1,-1,-1
83286379747,-2,-2,-1,-1,0,-1,-1,-2
83286379747,-1,-1,0,0,0,-1,-1,1
83286388795,-1,-1,0,-2,-1,0,0,-1
83286388795,-1,-2,-1,-1,-2,-2,-2,-2
83286403629,-2,-2,-1,-1,-2,-1,-2,0
83286403629,1,-2,-1,0,-1,-1,-1,-2
83286405165,-1,-1,-1,0,-2,0,0,-2
83286405165,0,-1,-1,-1,0,1,1,-1
83286426014,0,0,0,0,-1,-1,-1,-1
83286426014,0,-1,0,2,-1,-2,-2,0
83286427710,-2,0,-2,0,-1,0,-2,-3
83286427710,-2,0,0,-2,-1,-1,0,0
83286439695,-1,0,0,-4,-1,-2,0,1
83286439695,-1,-1,1,-2,0,-1,-1,0
83286448743,-1,0,1,-2,0,-2,0,-1
83286448743,-1,0,-3,-1,-2,0,-1,-1
