timestamp,emg1,emg2,emg3,emg4,emg5,emg6,emg7,emg8
59600154392,1,-1,-1,-1,0,-1,-1,1
59600154392,-1,-2,-2,1,-3,-1,-1,-2
59600163471,-2,0,-1,-2,0,-2,1,-3
59600163471,-2,0,-4,-6,-1,1,-1,-2
59600178297,-1,-2,3,-3,-3,-2,-1,-1
59600178297,1,-2,-1,0,0,-2,0,-1
59600179908,1,0,0,0,-1,0,-3,-1
59600179908,-3,-2,-2,-5,-1,-2,-1,1
59600200742,0,0,-2,4,-1,-1,-1,2
59600200742,-1,0,-1,0,0,0,0,2
59600202383,-2,-2,-1,1,-2,0,0,-14
59600202383,-2,-1,-2,-11,-1,-2,-1,-2
59600223338,-2,-1,-1,6,0,-2,-3,-2
59600223338,-1,-4,1,-6,0,-2,0,1
59600224897,0,-2,-1,-2,-2,-1,0,4
59600224897,0,-1,-3,5,1,1,-3,-3
59600238304,-1,1,1,-4,-3,-1,-3,-2
59600238304,-1,-1,0,1,-3,-3,-2,-2
59600239845,1,1,-1,-2,-1,-2,-2,2
59600239845,-1,-2,-1,1,-1,-3,-1,-1
59600260780,0,-1,-1,0,0,-2,-1,0
59600260780,1,-1,-3,-5,0,1,-2,0
59600262453,0,0,0,-1,-1,0,-1,0
59600262453,-1,-1,0,-1,-2,-2,0,-1
59600283267,-1,-2,-3,-3,0,0,0,-1
59600283267,-2,-1,-2,1,-1,0,1,-1
59600284878,-2,-1,-1,0,-2,-2,-1,-1
59600284878,-1,0,0,-2,-1,-1,-2,-2
59600298276,0,-2,-1,4,-3,1,-2,6
59600298276,-1,-2,-1,-7,-1,-2,-2,-4
59600299898,-1,-1,0,0,-1,-1,-3,3
59600299898,0,0,-1,0,-2,0,1,0
59600320562,-1,-1,-1,2,0,-1,-1,2
59600320562,-1,-1,-2,-7,-2,0,-1,-1
59600326929,0,0,-1,2,0,-2,-1,-2
59600326929,-2,-1,-2,-2,-1,-1,-1,0
59600343285,-2,-2,-1,-2,0,-1,-1,-4
59600343285,-3,0,-1,5,0,0,-3,0
59600344911,-1,-2,1,-2,0,0,-2,-2
59600344911,-1,-3,-2,-2,-2,0,0,1
59600358285,1,-2,-2,-4,-1,-2,-2,-1
59600358285,-1,0,2,0,-2,-2,-1,-4
59600359911,-1,-1,-4,3,-2,-2,-2,-1
59600359911,0,0,-3,-3,-1,0,-3,-3
59600380723,-1,0,0,-6,1,-1,-2,-1
59600380723,-2,-3,-4,-2,-2,-1,-1,0
59600382368,-1,-2,0,0,0,0,-1,2
59600382368,0,-1,0,1,-1,-3,-1,-2
59600403295,-2,0,-4,0,-2,-3,0,-3
59600403295,0,-5,-2,-1,1,0,-1,6
59600404937,-1,0,0,0,0,0,0,-8
59600404937,-1,-2,-1,-3,-2,-1,0,1
59600417576,-1,0,0,-2,-2,-1,-3,0
59600417576,0,0,0,1,-2,-1,-2,-1
59600424386,-1,-3,-3,0,-1,-1,0,0
59600424386,-1,-1,-1,3,0,-1,-1,0
59600440753,-1,0,-3,-9,-1,-2,-1,-4
59600440753,-2,0,3,1,-1,-1,-1,-4
59600442362,0,0,2,-1,-1,0,0,1
59600442362,-1,-2,-1,-1,-1,-2,-1,-2
59600463265,-2,-4,-2,-1,-1,0,0,0
59600463265,-1,0,-3,-1,-1,-1,-1,-2
59600464875,-1,-3,-2,-3,-1,-2,-1,1
59600464875,-2,0,0,4,0,-2,-1,-1
59600477586,-2,-1,-3,0,0,-1,-2,-1
59600477586,0,0,-1,2,-2,0,-1,-2
59600484424,-2,-1,-1,2,-1,0,-1,-1
59600484424,-1,-2,-1,-2,-1,-1,0,-2
59600500785,1,0,-1,-3,-2,-2,-2,5
59600500785,-2,-2,-2,2,0,0,0,-10
59600502370,0,-1,-2,-3,0,-2,-1,1
59600502370,-3,-1,-3,-2,-1,0,0,-1
59600523348,-2,-1,1,2,-2,1,0,1
59600523348,-2,-2,0,-4,-2,-2,-1,0
59600524969,-3,0,0,-2,-1,-2,-1,-2
59600524969,0,-2,0,-4,-1,0,-1,0
59600537623,-1,2,0,6,2,0,-1,-4
59600537623,1,1,0,-4,0,-1,-2,2
59600544428,-2,-1,-2,-3,-2,0,-2,-1
59600544428,-2,-1,-1,0,-2,-1,-1,-2
59600560785,1,-2,0,-1,-2,-1,0,-2
59600560785,1,0,-2,-4,-1,-1,-1,-1
59600562413,-1,0,0,0,-1,-2,0,1
59600562413,-1,-1,-2,2,-2,-2,-3,0
59600583217,0,-1,0,3,-1,1,1,0
59600583217,-1,-2,-1,-2,0,-1,0,-3
59600584872,0,0,-1,-6,-2,-2,-2,-3
59600584872,0,-1,-3,0,0,0,-1,1
59600597550,0,1,-2,1,0,-2,-1,-2
59600597550,-2,-2,0,0,-1,-2,-2,0
59600604432,0,-1,-1,-1,-1,-1,-1,0
59600604432,-1,0,0,0,-2,0,1,3
59600620800,-2,-3,-1,-8,-2,-1,-2,-8
59600620800,-2,-1,0,-1,-3,-1,0,1
59600622402,1,-1,0,-2,0,0,-1,0
59600622402,-1,0,1,-1,1,-1,-1,-1
59600643259,-2,-1,-5,-2,-3,-3,-1,-2
59600643259,-2,0,-2,2,2,1,-1,0
59600644859,-2,-2,-1,8,-2,-3,-1,-1
59600644859,-1,0,-1,-10,-3,-1,-1,-2
59600665814,-2,0,0,3,0,-1,-1,-1
59600665814,-1,0,-2,-1,-1,-1,-2,-2
59600667410,0,0,-2,-2,-1,-2,-1,0
59600667410,-1,-2,-5,-5,-2,0,-2,-3
59600680754,0,-1,0,0,-4,-1,-1,-1
59600680754,-2,-1,-1,3,1,-1,-1,1
59600682415,0,-1,-1,-5,-2,-2,-2,-3
59600682415,-2,0,-1,-2,-2,-3,-1,-2
59600703279,0,-2,-1,-8,1,0,-1,1
59600703279,1,1,-2,-3,-1,-1,-2,-1
59600704875,-1,-1,-2,2,1,1,0,-2
59600704875,0,-4,-1,1,-2,-1,0,-1
59600716895,0,0,1,0,-2,-1,0,6
59600716895,0,-1,0,-1,-2,-1,0,-6
59600725923,0,-1,-3,-1,-1,-1,-1,2
59600725923,-1,-1,-1,-6,-1,-2,-2,-2
59600740788,-3,0,0,3,-1,-1,-1,0
59600740788,-2,-3,-1,-7,-3,0,-1,0
59600742385,-2,-1,-1,-1,-1,0,-2,0
59600742385,-2,-1,-3,2,0,-1,-1,-2
59600763276,-1,-3,-1,0,-1,-1,1,-4
59600763276,5,-1,0,1,0,-1,-1,3
59600764855,-10,-2,-1,-3,0,-1,-2,-9
59600764855,-2,-2,1,5,-1,-2,-2,1
59600776945,-3,0,-3,-3,-3,-2,-2,-3
59600776945,-3,-1,-2,0,0,-2,0,0
59600785948,0,-2,0,-3,0,-1,1,2
59600785948,0,-1,-1,-3,0,2,-1,-2
59600800750,0,-1,0,-2,0,0,-2,-2
59600800750,0,-3,-1,7,-3,-2,-1,-1
59600802362,0,0,2,-1,-2,-1,-2,-1
59600802362,-2,-1,-2,-1,-1,-1,0,-1
59600823271,1,-1,-1,0,-2,0,0,0
59600823271,-1,0,-1,1,0,0,-1,0
59600824903,0,1,-1,0,-2,-1,-1,-1
59600824903,1,-1,-1,-11,-4,-1,-3,-2
59600836890,-2,-2,-1,0,-1,-2,-2,0
59600836890,-2,0,0,2,2,0,-2,-2
59600845911,-1,-1,-1,-3,0,-1,2,-1
59600845911,-2,0,0,-1,1,1,0,-2
59600868384,-2,-2,-2,7,0,-3,-1,-3
59600868384,1,-2,1,-3,-1,-2,-2,0
59600869917,1,0,0,-2,-1,0,-1,1
59600869917,1,0,1,1,-3,0,-1,0
59600883375,-1,0,-1,-3,-1,-2,-1,-7
59600883375,0,0,0,0,0,0,0,1
59600884871,-1,-2,-7,-4,-1,-2,-3,-1
59600884871,-1,-2,1,2,0,-1,-1,-2
59600896888,-3,1,1,0,1,0,-3,0
59600896888,-2,-2,-3,-1,-3,-1,-1,-3
59600905980,-1,-2,-1,-7,-2,-1,0,1
59600905980,0,-1,0,0,0,-2,-1,0
59600920738,0,-2,-2,3,-1,0,1,-1
59600920738,-2,-1,-2,-9,-5,-1,-1,-1
59600922406,0,0,0,0,-1,-1,-2,-2
59600922406,0,-1,-1,2,-2,0,-2,-2
59600943244,0,-2,0,-2,-1,0,-1,1
59600943244,0,0,0,-1,-1,-3,-1,-1
59600944896,-1,-1,-1,-2,-3,-2,-2,-3
59600944896,-1,-1,-1,-2,-1,-3,0,0
59600956926,-2,-3,0,1,-2,0,-1,0
59600956926,-2,-2,-3,0,-3,-2,2,-3
59600965921,0,-1,-2,-4,0,0,-1,0
59600965921,-2,-2,0,1,0,0,0,-1
59600980848,-2,-1,-1,-6,-1,-1,-1,0
59600980848,0,0,-1,6,0,0,-2,0
59600982421,0,-1,0,1,-2,-1,-3,-1
59600982421,-1,0,-2,-1,-1,1,-1,-4
59601003242,-2,-1,0,-5,-1,-3,-1,-1
59601003242,-1,1,0,-1,-1,0,-1,4
59601004855,-1,-2,1,4,0,0,1,-10
59601004855,0,-2,-1,1,0,-1,-1,2
59601017364,0,-2,-1,1,-3,-1,-1,1
59601017364,-1,-2,-2,-10,-3,-2,-2,-2
59601031908,-2,-1,0,-1,0,1,-1,1
59601031908,-1,-2,-4,-1,-1,0,-1,-2
59601040815,0,-1,1,2,1,-1,-1,-3
59601040815,-2,-1,0,-5,-2,-2,-2,-2
59601042415,-1,-2,-3,0,-3,-2,-1,0
59601042415,2,-1,1,-1,-1,-2,-2,-1
59601062376,-1,0,0,2,0,0,-2,1
59601062376,0,-2,-1,-2,-1,1,0,0
59601070911,-2,-1,-3,-1,-1,-2,-1,-2
59601070911,-2,-1,-2,-6,-2,-1,-1,0
59601076922,-1,-2,0,1,-1,-2,-1,-2
59601076922,-1,-1,1,-1,1,-1,0,-1
59601086584,-2,-1,-1,0,-1,-2,-2,-2
59601086584,-2,-1,-3,7,-1,-1,1,0
59601100801,0,-2,-5,-10,-2,-2,-1,-2
59601100801,-1,-1,-1,2,0,0,-1,-3
59601102400,0,-1,-1,-6,-3,-2,0,1
59601102400,-3,0,-2,0,-1,-1,-1,-1
59601123273,-3,-4,-2,-1,0,-1,0,-1
59601123273,0,-3,0,4,-1,0,-1,-4
59601124913,0,-2,-1,0,-1,-1,-1,2
59601124913,0,-1,-1,-6,-2,-2,1,-1
59601145763,0,1,-2,3,-2,-1,0,0
59601145763,-3,-1,-2,-3,-1,-1,-3,-12
59601147379,0,-1,-1,2,2,-1,0,1
59601147379,-1,-2,-1,-8,-2,-2,-1,0
59601160752,-1,0,-1,-1,0,1,-1,0
59601160752,-4,0,0,0,-1,-1,0,1
59601162349,-2,-2,-1,-1,-3,0,-1,0
59601162349,-2,0,1,3,0,-1,-1,-2
59601183278,-2,-1,-4,-3,-2,-1,-2,0
59601183278,0,0,0,-9,-3,-2,-1,1
59601184914,0,0,-1,-2,1,-1,0,-2
59601184914,0,-1,0,-1,-1,-1,-1,0
59601205727,-1,0,-1,-1,1,0,-2,-1
59601205727,-1,0,-1,-2,0,1,-1,1
59601207376,-1,-4,0,-2,-1,-3,-2,-1
59601207376,-2,0,2,0,-3,0,-2,-4
59601220803,-1,1,0,-2,0,-2,0,0
59601220803,-2,0,-1,4,-1,-2,-2,-1
59601222412,-2,0,-1,-1,-1,1,-1,0
59601222412,-1,-2,-1,-3,0,0,-3,-1
59601243281,-1,-1,2,1,-1,-1,-1,-2
59601243281,-1,2,-2,-2,0,-1,0,3
59601244887,-1,0,-3,-1,-1,-2,-2,-1
59601244887,-3,-2,-4,1,-1,-2,0,-2
59601265805,1,-1,0,-3,-2,1,0,1
59601265805,-1,-1,-1,0,-2,0,1,0
59601267416,0,-2,-1,-1,-2,0,-1,-2
59601267416,0,0,-1,-1,-2,-1,-1,-6
59601280810,1,-2,-1,-4,-2,0,-2,2
59601280810,-1,0,-3,-2,-1,0,-1,-1
59601282398,-1,0,-1,0,0,-3,-1,-1
59601282398,-2,1,-3,-5,-1,-2,0,2
59601303238,-1,0,-1,1,-1,-1,-1,-2
59601303238,0,0,-1,1,0,0,-1,-1
59601304889,2,1,1,1,0,0,-1,2
59601304889,0,0,-1,2,1,0,1,0
59601325781,-2,1,-3,-6,-2,-1,-5,-3
59601325781,0,-1,-1,4,0,-1,-1,-1
59601327424,0,-1,-2,-8,-1,0,-2,-1
59601327424,0,-1,-2,2,0,-3,-1,0
59601340128,-1,0,0,2,0,-1,2,-1
59601340128,-2,-2,0,-8,-4,0,-1,-1
59601346921,0,0,1,5,2,0,0,-2
59601346921,1,-2,1,-1,-3,-1,-1,-1
59601363267,-1,-1,-3,1,0,-1,-2,-2
59601363267,0,0,-1,-3,-2,-1,-1,2
59601364881,-2,-2,-1,1,-1,-1,-1,-2
59601364881,-3,-1,-1,-7,-2,-2,-2,-1
59601385793,-1,-2,0,-2,-3,-1,1,-1
59601385793,0,-2,1,0,0,-2,-1,0
59601387358,-2,-2,-4,-5,-2,0,-1,-2
59601387358,-3,-1,-3,1,0,-3,-1,1
59601400118,0,1,-1,-2,-2,-1,-2,-1
59601400118,-1,-2,0,-4,-1,-1,-2,-3
59601406926,0,0,0,-1,-1,-2,1,3
59601406926,-2,-1,-1,-1,0,-1,0,-2
59601423276,-2,1,-3,-5,-1,-4,-1,-2
59601423276,-1,-1,0,5,-1,-3,-1,-2
59601424912,-2,-1,-1,-1,-2,-1,-3,-3
59601424912,0,-1,0,-6,-2,0,0,-1
59601445753,-1,-2,1,6,-1,-2,-1,-1
59601445753,-1,-1,-1,0,-2,-1,-1,-2
59601447382,0,-1,-1,-3,-3,0,0,-4
59601447382,-1,0,2,3,0,0,-2,-2
59601460075,-1,-3,-1,-2,-3,0,-2,0
59601460075,0,-1,-1,1,2,-1,0,0
59601466923,-3,1,-2,0,-1,-2,-1,0
59601466923,0,0,-2,0,0,-1,0,-1
59601483898,1,0,-1,-3,-1,-3,-1,3
59601483898,-2,-2,0,0,1,0,-3,-10
59601485530,-1,-2,-3,-4,-2,-1,-2,0
59601485530,1,-2,-1,0,-1,1,-2,0
59601505791,-2,-1,-1,-1,-2,-1,-1,3
59601505791,-1,-2,-1,6,-1,-2,-1,2
59601507374,-1,1,0,0,-1,-1,-1,0
59601507374,-2,-3,-4,-3,-1,-3,-3,0
59601520193,-1,0,-1,-1,-1,0,0,-3
59601520193,-2,-2,-3,-5,-2,-2,-3,-1
59601526933,-1,-1,0,5,0,-1,-1,-3
59601526933,-1,-3,-1,-1,-1,0,-1,-2
59601543252,0,-2,-2,1,0,-1,-1,-2
59601543252,-1,-4,-2,-3,-1,-2,0,1
59601544877,-1,-1,-1,-3,-1,-2,-1,0
59601544877,-2,0,0,0,-1,-1,-3,-3
59601565787,-2,0,-3,1,0,-2,0,-1
59601565787,-2,0,-1,-6,-2,-1,-1,-3
59601567408,1,-2,-1,-2,-2,-2,1,0
59601567408,-1,-2,-1,0,-1,-1,0,2
59601580096,-2,-2,0,-2,-1,-1,-1,-3
59601580096,0,0,-3,0,-1,0,-2,-1
59601586904,-3,-2,-1,2,-1,-1,-1,-2
59601586904,-2,0,-3,-4,-2,-1,-2,1
59601603251,-1,0,-1,-3,-2,-1,0,-1
59601603251,-1,0,0,-5,-1,-1,0,0
59601604885,0,-1,1,4,1,-1,-3,-2
59601604885,0,-2,0,1,-1,0,-1,-1
59601625807,-1,-2,0,-8,-1,-2,0,-2
59601625807,-2,-1,-2,2,1,-1,-1,0
59601627409,0,-1,-1,-1,-1,-1,0,5
59601627409,-1,-2,-4,0,-1,-3,0,-2
59601640077,-1,-1,1,5,-3,1,-2,-1
59601640077,-2,-2,-1,-3,-2,1,0,0
59601646924,0,1,-1,-4,0,0,-2,0
59601646924,-1,-2,-3,-3,0,0,-1,0
59601663270,0,1,0,-5,0,-1,-2,-3
59601663270,-2,1,1,3,-3,-3,0,1
59601664850,-4,-1,0,-1,-1,-1,1,0
59601664850,-2,-1,-1,-4,-3,-4,-2,-2
59601685758,0,-2,0,-2,1,0,-1,-3
59601685758,1,-2,0,3,0,-2,-2,1
59601687349,-1,-3,-1,-2,-2,0,-3,-2
59601687349,-1,-1,0,6,-2,-1,-2,0
59601699433,-1,-2,1,-1,-1,-1,-2,1
59601699433,-1,0,0,-3,-1,0,-2,-1
59601708404,0,0,-2,-1,0,-1,0,-2
59601708404,-1,0,1,-4,1,-1,0,0
59601723299,-2,-2,-6,5,-1,-1,0,-1
59601723299,-3,-3,-1,2,-1,0,0,-1
59601724917,-2,0,-1,-7,-1,0,-2,-1
59601724917,-2,1,1,-2,-1,-1,-2,-6
59601746007,-2,-1,0,0,-3,0,2,-1
59601746007,-1,0,-2,-5,1,1,-2,-2
59601747447,-1,-1,0,2,-3,-2,-2,1
59601747447,0,-1,0,2,0,0,0,1
59601759526,-1,-3,-1,-2,1,-1,-1,-1
59601759526,-2,-1,-1,-5,-1,0,0,-2
59601768433,-2,0,-1,-2,-3,-2,0,-2
59601768433,1,0,-1,-1,-1,-1,-2,-2
59601783288,0,-1,-1,4,0,0,-1,-1
59601783288,0,0,0,0,0,-2,-2,-1
59601784865,-1,-2,-5,-10,-1,0,-3,-4
59601784865,-2,-2,-1,1,-2,-4,-2,1
59601805776,-3,-3,-4,-4,-2,-2,-2,-2
59601805776,0,0,1,4,0,-1,0,1
59601807395,-2,0,0,0,0,-2,0,0
59601807395,-2,1,-3,-3,-1,0,1,-1
59601819452,-1,0,0,-4,-1,-1,-4,1
59601819452,-2,-2,-2,0,-2,0,-1,-1
59601828460,0,-2,0,-2,-1,-1,0,3
59601828460,-2,-2,-4,-1,-1,-1,0,-11
59601843502,-4,0,1,-1,-2,-2,-1,0
59601843502,-2,1,-2,-4,-2,-1,-2,-1
59601844974,-1,-1,-1,5,0,0,-2,-3
59601844974,-1,-3,-1,-4,0,0,-1,1
59601866015,1,-1,-3,-2,0,0,-2,-2
59601866015,0,-2,-1,1,0,-2,-2,-1
59601867447,-1,-2,-3,1,1,-2,0,0
59601867447,-1,-1,0,3,0,-1,0,1
59601879417,-1,0,0,-1,-3,-3,-1,-3
59601879417,-1,-2,-2,0,-2,-2,1,2
59601888424,-1,-1,-2,5,-2,-2,-1,-2
59601888424,0,-1,-1,-11,-2,0,-1,0
59601903500,-1,2,-1,4,1,-1,-3,-1
59601903500,-1,-1,-2,-1,0,-1,-2,-2
59601904944,-2,1,0,0,-2,1,-2,-2
59601904944,-1,0,-1,-2,-1,0,-2,1
59601925927,0,-1,-3,3,-3,-2,-1,1
59601925927,1,-1,-2,1,-4,-2,0,-1
59601927473,-1,-1,0,0,-1,-1,-1,-4
59601927473,-1,-1,-2,1,-1,-2,-2,0
59601939413,0,-2,0,-4,0,-1,-2,1
59601939413,-2,-1,0,0,-1,-1,-2,-3
59601948453,1,-2,-2,-2,-1,-1,1,-2
59601948453,0,-1,1,4,0,-1,0,0
59601962619,-1,0,-3,-3,-1,1,-1,-1
59601962619,1,-3,1,-2,-1,-1,-1,-2
59601963403,-2,0,-3,1,-2,1,-1,1
59601963403,-3,-2,-3,-4,-2,-2,-1,-1
59601985333,-3,0,1,3,-1,-1,-2,-3
59601985333,-2,-1,-1,-12,-1,0,-2,2
59601985911,1,-1,0,-2,-2,-1,-2,-2
59601985911,-1,0,-3,5,-1,-1,-2,-1
59602007597,0,-2,0,-4,1,-2,1,1
59602007597,-2,-2,-2,3,0,-1,-1,1
59602008366,-1,-3,-2,-6,0,0,0,-1
59602008366,0,-2,1,4,0,1,-1,-1
59602022698,0,-2,-1,-5,-1,-2,-1,0
59602022698,-2,-2,-1,1,0,0,0,-2
59602023435,-1,0,0,0,0,-2,0,-2
59602023435,-2,-3,-3,-1,-2,-2,-1,-2
59602045320,-2,-3,-3,-7,-2,-2,-1,0
59602045320,-2,0,1,2,0,-1,0,0
59602046018,-1,1,-1,-1,-1,-1,-3,-1
59602046018,0,0,0,1,1,-1,0,-1
59602067559,-2,-1,-1,-5,-3,0,-1,-1
59602067559,0,-2,-2,0,-2,-2,-2,-4
59602068357,-2,-1,0,-3,-2,0,-1,0
59602068357,0,1,-3,-7,-1,-1,-1,-1
59602082596,-1,0,0,2,1,0,0,-2
59602082596,-1,-1,-2,1,-3,-2,-1,-1
59602083379,-2,-3,0,-2,-3,-1,-1,1
59602083379,-1,-3,-1,-2,0,0,-2,-2
59602105089,-1,0,-1,0,-2,0,-1,0
59602105089,-2,1,-2,0,-1,0,-1,-1
59602105865,-1,0,2,0,0,-4,-1,-2
59602105865,-2,-1,0,1,-2,0,-2,2
59602127584,-2,-1,-1,-5,-2,-3,-3,-2
59602127584,-2,-2,-1,1,0,-1,0,-2
59602128364,-1,-1,-3,5,-1,1,1,2
59602128364,0,1,2,-3,-1,-1,0,0
59602142610,-1,-3,-3,1,-2,-1,2,-2
59602142610,-1,0,-2,-4,0,0,-4,-3
59602143437,0,-2,-2,-11,-3,-2,-4,-2
59602143437,-1,0,1,5,0,-3,0,0
59602165289,4,0,2,3,1,2,2,3
59602165289,0,-3,-1,-4,-2,1,-1,-2
59602165912,-1,-2,-1,3,-1,-3,-2,-2
59602165912,-1,0,-1,-3,-1,0,-1,-3
59602187778,0,-1,-3,-4,0,-1,-1,1
59602187778,-1,0,-1,-8,-1,0,1,-1
59602188440,-2,-1,-2,6,-1,-1,0,-2
59602188440,-2,0,-3,-9,-3,-1,-1,0
59602204066,-1,0,0,4,-2,-3,-1,-4
59602204066,0,-1,-1,3,1,-1,-4,1
59602204895,0,-2,-3,-5,-4,-2,-1,-3
59602204895,1,-1,1,2,-1,-5,0,0
59602225036,-2,-2,-3,-1,-3,-5,-2,-2
59602225036,-1,-1,-1,-9,3,18,3,-3
59602225836,0,-1,2,8,3,-9,-2,-1
59602225836,0,-1,2,4,0,1,0,-1
59602247683,-1,1,0,-20,-4,-5,-5,0
59602247683,-1,-3,-3,-2,-5,-9,1,-2
59602248443,-2,-1,-1,-2,0,7,1,-3
59602248443,-1,-1,-2,-5,0,-1,2,1
59602262169,-2,0,2,21,2,3,0,-1
59602262169,-2,-1,-3,-9,-2,-9,-2,-2
59602270382,2,0,-4,-6,-6,1,-1,1
59602270382,-2,1,0,0,3,2,-2,-3
59602285305,-1,0,-2,-1,-1,5,-1,-1
59602285305,-2,0,-3,2,0,-3,-1,-2
59602285897,-2,-2,-1,4,0,-14,0,-2
59602285897,5,-1,1,0,-1,-3,-2,1
59602307747,-2,1,-2,-10,0,1,0,3
59602307747,-4,-2,2,5,-3,2,-2,0
59602308443,1,-3,-3,0,-2,5,0,0
59602308443,-2,-2,-4,0,0,2,-3,-5
59602322189,-2,-3,0,-1,-4,9,1,-4
59602322189,-1,-1,-3,-4,-1,-8,-4,-1
59602330367,2,6,-1,-7,1,-8,-1,3
59602330367,-3,-1,1,3,0,2,2,-1
59602345303,2,-2,-2,0,-2,-8,-7,4
59602345303,-5,-4,-1,2,-3,11,7,-9
59602345915,-1,-1,-1,-4,3,5,0,2
59602345915,-2,-2,-4,1,0,-3,-3,-7
59602367691,0,-2,-1,-2,-3,-9,0,5
59602367691,1,1,0,-11,-3,-5,-2,5
59602368387,-3,-1,-1,3,0,6,2,-3
59602368387,-4,-3,-5,-21,-7,-8,-5,-2
59602382134,-3,-3,-3,14,-4,-1,-5,-9
59602382134,1,-1,0,7,7,12,1,5
59602390168,-3,-1,0,0,4,2,-2,-1
59602390168,0,-3,0,-8,-3,-12,-4,3
59602405247,-1,-1,0,4,3,8,3,-7
59602405247,12,1,0,3,-6,-17,-4,11
59602405971,-12,-2,0,-4,0,-1,-3,-17
59602405971,2,0,2,3,1,12,2,-2
59602427852,-1,-3,-2,-2,0,12,8,4
59602427852,-6,-3,-8,2,-6,-11,-1,-3
59602428413,0,0,-1,-7,-1,-7,-5,-9
59602428413,-3,0,-2,-2,-6,-9,-8,4
59602442832,-1,0,-2,-7,-7,-17,-3,-2
59602442832,-4,-2,-4,-6,11,53,1,-5
59602443420,-1,-2,-1,4,-4,-32,-4,4
59602443420,1,-1,-4,-4,-4,2,5,4
59602465149,4,10,4,-1,6,-4,-8,-3
59602465149,-3,-6,4,1,-2,-15,-1,-6
59602465917,-2,-2,-1,-6,-4,-5,-13,-5
59602465917,4,-2,1,18,-1,16,25,16
59602487707,-4,-1,-1,-9,-3,-1,-2,-1
59602487707,1,1,-2,10,1,-1,-6,-10
59602488455,-3,-2,-3,1,3,12,-4,0
59602488455,-4,-3,-2,-44,-14,-30,-6,-2
59602502648,-2,-4,-4,8,5,19,-1,-1
59602502648,-1,1,3,5,4,9,1,3
59602503392,1,-1,-2,1,-5,-33,-4,2
59602503392,-1,3,1,14,3,16,2,-12
59602525196,2,-2,-2,-4,2,7,11,25
59602525196,0,1,4,-4,-12,-44,-14,-4
59602525959,3,1,-1,4,3,28,8,-2
59602525959,1,1,0,-1,6,8,7,9
59602547814,-15,-2,2,-4,-3,1,-7,-16
59602547814,-2,-2,-5,-4,-7,13,10,-2
59602548426,-5,-4,-2,-5,-8,-23,-14,3
59602548426,0,1,-1,8,7,-4,-12,-14
59602570913,4,-3,2,-10,2,5,7,7
59602570913,2,8,2,12,-4,-15,1,3
59602571651,-7,-12,-2,-19,-2,27,12,1
59602571651,-4,-4,3,15,-1,-14,-9,-10
59602585043,2,0,1,4,0,-21,-8,2
59602585043,1,2,1,9,3,5,-5,-8
59602585826,-1,-4,-5,-44,-12,-14,-5,8
59602585826,-1,1,-1,8,9,30,9,-1
59602607846,0,-7,-6,1,0,-1,-4,-2
59602607846,-1,-1,3,-2,4,-21,-3,2
59602608473,1,2,4,33,3,27,6,-5
59602608473,-4,-5,-2,-19,-6,-9,-5,1
59602622177,-2,0,-4,0,-14,-21,-14,-14
59602622177,-1,-4,-6,8,2,4,3,2
59602630233,8,15,1,11,0,2,4,9
59602630233,-5,-5,1,-12,6,19,-2,2
59602645353,3,3,2,9,-4,-19,-1,-15
59602645353,-1,-3,1,5,6,8,4,9
59602645973,-3,-2,-2,-20,-8,8,4,-5
59602645973,-2,0,2,26,-5,-27,-12,-5
59602667740,-1,-1,0,2,-2,-24,-12,-4
59602667740,0,-2,0,-13,7,30,11,0
59602668443,-2,-4,-1,-9,1,2,6,5
59602668443,-7,-6,-7,-11,-4,26,2,-4
59602682858,3,-4,-1,9,-8,-38,-16,-8
59602682858,-4,-2,-4,-31,-7,-2,0,4
59602683467,2,-1,0,20,17,13,-1,3
59602683467,1,0,0,-7,-2,-22,-6,-1
59602705366,-1,1,-1,3,3,46,22,5
59602705366,-5,-3,2,-29,-16,-22,-6,-7
59602705929,2,3,2,22,1,-12,-6,-6
59602705929,-5,-15,-3,5,-6,-13,-10,2
59602727669,-3,-1,-2,-6,4,12,-2,5
59602727669,0,1,0,-6,0,16,1,-13
59602728426,-5,-3,-4,-11,-13,-27,1,0
59602728426,3,4,-2,21,10,0,-8,-1
59602742291,-3,-3,-5,-16,0,32,11,-1
59602742291,-5,-5,-2,0,-8,-21,-16,-17
59602757860,2,0,-1,3,2,-1,-13,10
59602757860,2,4,1,-26,-7,-8,17,4
59602765250,-1,-1,3,23,10,4,-1,-3
59602765250,2,0,-6,-17,-3,-3,-1,3
59602765912,-2,-3,-2,19,-3,-6,-8,-12
59602765912,-1,2,2,5,2,16,12,2
59602787680,-7,-5,-6,-19,-17,-48,-14,1
59602787680,3,9,3,27,10,25,-4,2
59602788427,1,-7,3,5,11,15,10,-8
59602788427,1,3,6,-3,-2,-4,1,10
59602801987,1,0,-1,5,14,23,-5,-9
59602801987,-1,-1,-2,-23,-16,-61,-1,0
59602810192,-2,-4,-9,1,-10,16,-4,0
59602810192,-2,1,-1,-6,-1,-4,-1,-12
59602833528,-1,0,0,40,3,0,5,12
59602833528,-4,-3,-1,-35,3,23,10,-2
59602834167,0,-1,-1,21,-2,-25,-6,2
59602834167,-1,-2,-4,6,-2,3,-10,-12
59602847730,-2,-3,0,1,-1,21,13,8
59602847730,0,-4,2,-3,0,-29,-14,2
59602848427,-3,4,-1,9,-1,-6,9,-6
59602848427,2,1,-2,-16,3,5,-7,-3
59602862037,0,-2,1,19,6,14,20,14
59602862037,-1,-3,-4,-8,-2,9,-21,-7
59602870113,-3,2,8,-10,0,-22,2,-12
59602870113,-3,-2,-6,3,-8,-15,-5,1
59602893268,1,4,1,-19,5,24,-9,-4
59602893268,-7,-4,2,38,2,-13,4,12
59602894025,-4,-3,-2,-13,-15,-1,-2,-4
59602894025,1,-1,-8,-58,-13,-3,-3,-1
59602907524,-5,-2,-1,14,-5,-13,5,-1
59602907524,-2,-13,-1,18,3,9,4,-2
59602908365,-2,-1,-2,-7,19,22,1,9
59602908365,2,2,7,-1,-11,-13,4,6
59602922089,-3,-2,-1,-11,-5,-22,-16,-15
59602922089,0,0,-6,-20,-9,7,4,-5
59602930230,0,0,4,23,15,16,1,19
59602930230,0,-2,0,-4,-3,-12,-3,-2
59602945159,-1,-1,-3,-11,-4,-4,-18,-3
59602945159,-1,-1,-5,2,-3,8,2,-4
59602945955,-1,2,-4,-35,-5,-20,-3,-8
59602945955,3,6,7,44,12,6,7,11
59602967663,-3,-4,-4,-23,-19,-15,-9,-12
59602967663,1,4,2,40,12,11,-3,13
59602968355,1,-3,-6,-21,-16,7,-4,-11
59602968355,-3,-6,-8,11,-1,-18,-4,2
59602990792,2,3,4,-16,5,12,14,-18
59602990792,1,0,-1,31,1,-2,-3,14
59602991538,3,7,3,-17,-2,3,-4,-7
59602991538,-5,-11,-1,38,6,1,-1,-11
59603005008,-4,-2,-3,-25,0,-6,-5,4
59603005008,7,1,-2,-26,-8,-3,-3,-11
59603005812,-5,0,-2,5,2,8,9,19
59603005812,-1,3,-6,-28,-6,1,-29,-28
59603035828,-5,-5,2,15,0,7,19,16
59603035828,0,-2,1,19,-3,-24,-15,-3
59603036624,12,3,-2,-4,1,14,16,1
59603036624,-8,-7,2,-7,1,0,-17,-7
59603041855,6,0,-3,-12,-9,-13,2,-2
59603041855,-3,1,-5,9,-4,-3,19,26
59603050156,-2,-2,1,2,-1,-1,-67,-50
59603050156,19,2,-3,-14,-2,8,84,64
59603065157,-12,3,2,21,10,5,9,20
59603065157,11,-4,-1,-33,-2,1,39,26
59603065912,-17,0,7,26,-4,-13,-33,-42
59603065912,-11,3,0,-24,-1,9,-33,-50
59603087675,-35,-39,-12,0,-5,-15,26,10
59603087675,61,19,3,-4,3,8,5,-30
59603088409,-17,4,3,-5,0,2,10,10
59603088409,-14,5,-5,19,7,15,-5,-20
59603110771,-27,8,3,-4,-1,-13,-23,-23
59603110771,-5,-4,-3,3,-10,5,-26,-14
59603111486,14,-1,-6,-26,-2,-24,32,27
59603111486,-10,-10,0,2,2,11,-41,-9
59603125161,-5,1,0,1,-1,10,-10,-19
59603125161,-14,-3,0,4,7,-6,0,-3
59603125916,1,0,-5,-4,-8,3,4,3
59603125916,0,-5,-6,11,-8,-16,-5,-26
59603147606,32,11,-4,-4,1,-3,-17,55
59603147606,-40,-8,-3,-11,-11,-6,19,26
59603148374,0,13,4,11,10,6,-10,-48
59603148374,18,-19,-5,-16,-1,-11,-3,41
59603170825,5,5,8,-5,-3,3,-41,-72
59603170825,-16,7,-2,-2,3,2,48,-11
59603171632,23,1,-9,-11,-2,7,3,29
59603171632,-31,0,1,11,-7,-17,-20,5
59603185094,2,4,0,5,-2,16,-40,-33
59603185094,-8,-8,-2,-1,1,-19,-10,48
59603185874,-45,-21,-2,3,6,-10,1,55
59603185874,30,21,1,0,-6,7,65,0
59603207834,13,4,2,-10,-5,-5,8,19
59603207834,-6,6,1,-6,3,8,-59,-22
59603208426,11,-3,-2,2,-10,-10,-16,-27
59603208426,2,2,-4,0,6,7,18,25
59603230802,1,2,-6,-13,2,0,27,17
59603230802,0,-5,-1,7,1,2,-21,-48
59603231581,-22,-2,-2,-4,-7,-6,-20,-26
59603231581,8,0,1,7,0,2,19,29
59603246473,-1,-8,-5,-23,-4,-11,0,-6
59603246473,-10,-3,-2,15,2,-1,-12,-47
59603247393,-4,-10,-6,0,4,8,19,23
59603247393,-22,1,0,4,-2,2,-5,-4
59603267827,2,-4,-7,5,-9,16,-12,53
59603267827,9,9,0,-2,1,-49,-23,4
59603268413,12,4,0,5,7,21,5,45
59603268413,-11,-12,-1,-8,-3,-8,-34,-30
59603290995,8,0,-1,4,2,10,-13,-6
59603290995,-11,1,5,-1,-1,16,25,-34
59603291598,-1,-4,1,-4,-11,-9,-1,16
59603291598,16,3,7,3,12,3,18,3
59603305155,-6,0,-1,-2,3,1,30,-42
59603305155,-10,-6,-2,-9,-11,-5,-41,2
59603305936,9,-2,-1,3,11,12,25,0
59603305936,0,1,6,-6,-10,-2,-2,-33
59603327564,18,0,-5,8,-1,-7,15,67
59603327564,3,6,-2,-15,1,-10,16,37
59603328328,-4,0,0,-4,2,18,20,-9
59603328328,-9,1,-5,-3,-9,-8,-41,14
59603350736,0,-3,8,15,4,-1,13,-69
59603350736,18,-4,2,-4,-2,-23,-49,3
59603351514,4,-2,-4,-16,-6,0,-2,-9
59603351514,-1,-2,-4,6,7,6,-10,-12
59603365173,-17,-3,-1,-3,-12,-13,-18,-35
59603365173,-11,-3,0,-9,1,8,-19,-58
59603365956,9,-2,-2,6,6,17,62,18
59603365956,8,0,-1,-1,3,-12,-32,-6
59603387846,-18,-26,-6,-6,-2,-16,70,87
59603387846,-6,-1,-1,11,-1,16,15,-7
59603388470,13,2,6,-1,6,2,-15,-11
59603388470,-6,-1,-2,-9,-1,10,19,-1
59603410897,26,5,-3,4,2,-3,-11,56
59603410897,4,-1,-2,-3,-9,-2,-6,-13
59603411640,-4,-9,-5,4,-5,-8,15,2
59603411640,6,2,1,4,7,8,6,23
59603425120,-7,3,1,-9,-8,-23,-21,-53
59603425120,14,-3,0,3,7,21,57,77
59603425893,-4,5,-3,-4,-15,-18,-42,-10
59603425893,5,-6,-2,8,11,3,22,27
59603448404,-8,5,4,-2,-2,-7,-36,-49
59603448404,2,-3,-6,1,3,24,34,20
59603449136,-2,-5,1,3,-7,-26,-6,-4
59603449136,8,7,-4,-5,-4,10,3,8
59603471009,24,-1,0,-4,1,-4,7,-3
59603471009,-8,2,3,6,1,0,2,10
59603471584,-8,-3,1,6,0,-2,-9,-21
59603471584,-6,-1,-2,3,-2,0,1,-1
59603485121,4,3,-4,-22,3,14,6,1
59603485121,7,-3,0,15,-11,-6,-17,-15
59603485917,-3,-6,-4,-4,1,-8,-10,1
59603485917,-12,-1,1,-13,-7,-7,-12,-40
59603508566,-3,-1,-3,16,9,7,1,14
59603508566,-16,-8,-1,-6,1,2,15,4
59603509096,15,6,-2,-2,-12,-5,-21,-19
59603509096,-10,-7,-2,-5,4,1,19,-10
59603530879,-11,5,2,-5,0,-11,-20,-5
59603530879,-1,-3,12,45,4,6,3,5
59603531640,2,-3,-26,-66,-5,0,3,4
59603531640,2,2,2,-19,-9,-3,-10,-11
59603545196,-3,-15,0,16,3,7,0,-6
59603545196,0,-3,-8,-3,-5,-8,2,-3
59603545968,-6,0,8,19,4,5,2,4
59603545968,1,-5,-3,-46,-6,-4,-10,3
59603568324,-2,3,1,29,5,6,6,0
59603568324,4,-1,-5,-20,1,-13,-10,-5
59603568985,-3,-4,-1,18,-2,6,3,0
59603568985,-7,-1,-2,8,-10,-10,-1,-1
59603590818,5,7,2,12,10,19,0,-5
59603590818,1,1,2,0,-1,4,1,5
59603591675,-3,-3,1,-13,-7,-11,-3,-8
59603591675,0,-2,2,44,10,15,-1,20
59603605250,-4,-1,-3,-31,-17,-24,1,-3
59603605250,4,-3,-6,-1,16,2,4,5
59603605938,-5,0,2,12,-6,-7,-4,-2
59603605938,-1,1,3,24,4,7,3,-3
59603627642,-1,1,-2,1,1,5,-1,-3
59603627642,-2,-2,-3,-20,-11,-3,-9,-7
59603628452,-1,1,6,26,9,-11,0,-5
59603628452,-2,0,-2,-20,-12,2,-5,-3
59603650749,0,-1,-5,18,-1,-15,2,4
59603650749,0,0,0,-71,0,12,2,-2
59603651576,-3,0,2,-2,-6,6,1,1
59603651576,-2,-2,-2,22,-3,-10,-9,-3
59603665085,-4,-1,-6,-31,-12,-5,-5,-7
59603665085,1,0,1,24,4,3,0,-3
59603665852,2,0,4,6,6,4,1,1
59603665852,-4,-16,-2,-4,-9,-7,-9,-12
59603689045,2,2,3,-8,7,2,12,14
59603689045,-4,-2,-1,2,-5,-18,-4,0
59603689869,-3,0,-1,-10,0,19,5,-1
59603689869,-2,-1,-3,10,-2,-18,-4,-16
59603710924,2,2,2,6,1,8,0,0
59603710924,1,-3,2,7,-3,-10,-5,1
59603711636,0,0,-1,-8,-3,-11,-2,8
59603711636,-1,2,-2,-13,1,8,2,-5
59603724397,0,0,-2,10,-4,-12,-7,-10
59603724397,0,1,-2,2,6,18,7,-1
59603732661,0,-3,-1,4,-1,-3,-2,1
59603732661,2,2,-1,5,7,-2,-2,6
59603747847,-5,-1,-3,-31,-2,10,-3,4
59603747847,-4,-14,-2,9,-14,-28,-11,-10
59603748441,-1,1,0,18,9,-5,2,-2
59603748441,0,2,-1,-10,4,24,3,3
59603770754,-1,-2,-1,-20,-6,-4,6,5
59603770754,-1,2,4,29,0,7,-2,-5
59603771510,-2,-3,-5,-24,-9,-10,-8,3
59603771510,-1,1,-1,14,-2,-10,0,-1
59603784402,-1,0,1,-8,8,26,-6,-1
59603784402,-1,1,-4,-10,-2,-21,2,5
59603793286,1,1,2,19,6,5,-5,-4
59603793286,0,3,1,-16,-6,-5,4,10
59603807539,-3,-2,2,2,-5,-1,-1,-4
59603807539,0,-1,0,4,-2,8,0,-2
59603808354,0,-2,0,4,0,6,1,-2
59603808354,2,0,-3,-6,8,-12,-3,-3
59603830874,0,0,0,12,-1,-2,-2,-1
59603830874,-1,11,0,-9,1,-11,-6,-9
59603831611,0,0,-3,-1,-2,11,7,3
59603831611,-2,-1,-1,-12,-1,6,-3,-2
59603844614,-1,-4,0,12,-4,-12,-4,-5
59603844614,0,3,-3,-9,5,24,-2,-9
59603852819,-5,-2,-3,2,-2,-12,-5,-10
59603852819,-1,-2,-3,0,-5,-26,0,3
59603867784,2,3,0,2,0,4,-1,-5
59603867784,-3,-3,-2,-3,-6,-2,-5,2
59603868552,-1,-2,-4,-5,0,2,4,0
59603868552,-1,-2,1,24,6,9,4,5
59603890986,-3,-2,-4,-25,-9,-7,-1,3
59603890986,0,-3,-1,0,-5,0,-5,-19
59603891584,-3,-1,-1,-13,-2,4,-4,-3
59603891584,1,0,1,3,-2,-12,-6,-4
59603904672,-5,-1,-4,-2,-4,-4,-4,-5
59603904672,-2,-3,-4,2,4,12,5,8
59603912810,1,-3,-2,-3,3,7,1,-2
59603912810,1,-1,-1,-9,-8,-17,-4,1
59603927832,0,-1,-1,2,-2,-5,0,-5
59603927832,-1,-1,-1,-6,0,-4,-9,1
59603928383,-2,-1,0,-5,1,12,11,3
59603928383,0,-1,-5,6,-1,4,4,21
59603951026,-1,-3,-3,-3,2,4,-6,0
59603951026,-1,-4,-2,0,0,-7,1,5
59603951601,0,1,0,3,0,-14,-1,0
59603951601,-3,-1,-1,-25,-3,6,-7,-11
59603964566,-1,-2,-7,-2,-8,-9,1,-5
59603964566,-4,-1,-4,-3,1,12,5,-2
59603972870,-1,0,1,2,2,2,-4,-3
59603972870,-2,-2,0,1,3,9,-1,-3
59603996622,-2,0,-1,-7,-1,-7,0,8
59603996622,0,0,1,5,-2,2,-4,1
59603997245,0,-2,-1,-7,-7,-8,-4,-5
59603997245,-1,-3,-5,-3,-4,-14,-3,-7
59604010770,4,-1,1,7,4,5,-5,-2
59604010770,2,0,0,-7,-2,6,1,15
59604011514,-2,0,3,3,-1,-5,9,-1
59604011514,-3,2,-1,4,-1,-3,-5,-8
59604033482,5,13,0,-1,-4,6,-9,-21
59604033482,0,-2,0,4,8,-7,7,8
59604034212,2,2,1,-4,-2,11,-4,9
59604034212,-1,0,4,4,4,-3,2,-1
59604047697,-2,-1,0,2,-3,-1,1,0
59604047697,-1,-1,-1,2,-4,8,2,-7
59604048403,-1,-2,-2,-5,-4,-21,-7,-1
59604048403,-1,-1,-2,1,-4,0,-2,-8
59604071030,-6,-6,-1,1,4,-5,-11,7
59604071030,-1,1,-1,-20,0,11,6,1
59604071690,-3,-3,0,3,1,-5,2,-5
59604071690,1,1,1,-9,-5,2,-2,4
59604093254,-4,-5,-3,8,2,-6,-3,-9
59604093254,-2,-4,-4,-6,-6,-10,-2,-3
59604094022,1,3,2,3,-4,-16,-6,-2
59604094022,-3,-3,-4,0,3,11,3,-2
59604107784,2,-2,2,1,6,12,1,-4
59604107784,-3,-2,-3,-15,-6,-9,-3,1
59604108402,-5,-4,-4,-2,-3,1,-1,0
59604108402,10,7,0,1,-1,-8,3,-5
59604130949,-1,-2,2,4,0,8,0,8
59604130949,3,3,-2,6,-1,-12,6,6
59604132419,-1,-1,-2,-10,-2,7,-8,-3
59604132419,1,-3,-3,-4,2,9,-1,36
59604153448,0,1,-2,-2,-2,-5,3,-16
59604153448,-2,-2,1,1,-1,-5,-6,-6
59604154911,2,0,-5,3,-4,-3,-3,2
59604154911,-3,-2,2,6,3,-11,1,1
59604166864,-1,0,0,6,5,11,6,3
59604166864,-2,-2,2,2,0,4,-1,0
59604175833,-1,-3,-1,-4,-2,-3,-5,-3
59604175833,-5,-5,-1,-3,-6,1,-2,-8
59604191021,-4,-5,-3,-10,-6,-23,-6,2
59604191021,-1,3,-2,2,1,2,0,-8
59604192476,4,1,1,2,1,7,3,6
59604192476,-1,-1,0,5,0,1,0,-11
59604213496,-1,-2,-7,-14,-6,-6,-2,-1
59604213496,-4,-2,-1,-4,-3,1,-6,1
59604214941,-2,0,1,3,4,3,-2,-7
59604214941,3,12,3,2,1,-1,7,7
59604227057,-1,-3,1,4,-1,-10,0,2
59604227057,3,-1,1,4,2,0,-5,-4
59604235868,-1,-1,-1,-4,-3,-2,0,1
59604235868,0,0,-1,-10,-4,-2,-7,-7
59604250727,-2,-2,-2,0,2,8,3,3
59604250727,-2,-1,-2,0,-2,-6,-2,-3
59604252337,-1,0,0,9,0,-4,-3,-1
59604252337,-1,-5,-1,-10,-2,4,0,-3
59604273519,0,-1,2,3,-1,-6,7,4
59604273519,-2,-4,0,5,0,15,-1,-4
59604274934,-3,-6,-8,-17,-6,-19,0,0
59604274934,-3,-4,-2,6,-1,3,-4,-3
59604287177,-3,-1,1,2,-3,-6,-6,-11
59604287177,-1,0,-6,-3,-2,5,4,-1
59604295974,-3,-2,-1,-2,-2,-1,-4,1
59604295974,1,-3,-3,-4,1,-3,1,0
59604310935,-1,0,-1,-6,-1,1,-1,1
59604310935,2,-1,1,4,-2,-3,0,6
59604312440,-7,-15,0,0,-1,4,0,-2
59604312440,-5,-4,-2,1,-5,-4,-4,-6
59604333422,-5,0,-3,1,1,-4,-4,5
59604333422,-3,-3,-1,-2,1,2,-4,-8
59604335004,2,3,0,9,-1,3,8,12
59604335004,4,0,-1,8,0,-2,-5,-1
59604347385,1,-2,-1,-16,-1,2,0,-6
59604347385,1,0,-2,-2,-3,-6,-3,-17
59604355961,0,3,-1,6,0,0,4,13
59604355961,-5,-3,-1,1,-1,3,-1,-7
59604370770,3,2,2,8,-1,0,-3,1
59604370770,-2,-3,-1,-7,-1,-5,-1,1
59604372422,1,1,-1,-14,-1,-2,1,-6
59604372422,-2,-3,-2,2,0,0,-1,-2
59604401068,-1,-1,0,1,0,-1,0,0
59604401068,-1,2,1,1,-2,-4,-2,1
59604402466,0,-1,1,-6,1,-1,-4,-7
59604402466,-2,-1,-1,-5,-2,0,-4,-5
59604407137,1,-3,-2,0,-2,-2,1,3
59604407137,-3,-4,1,0,-1,-2,3,5
59604423430,0,1,0,1,-1,0,-3,-9
59604423430,1,0,-3,-5,-1,0,-5,-2
59604430925,-7,-21,-3,2,-1,0,2,0
59604430925,-1,1,0,1,-3,-3,2,7
59604432420,0,-1,-2,0,0,-3,-2,0
59604432420,2,0,0,-3,-3,-2,-2,-4
59604453497,-3,3,-3,6,-1,2,1,-1
59604453497,-2,0,-2,-2,-1,-4,-1,0
59604454869,-3,-3,1,0,-2,1,-4,-7
59604454869,-5,-1,-2,-3,-1,-1,1,-1
59604467068,0,2,0,-5,-3,-1,-2,-1
59604467068,0,-3,0,-2,1,-1,0,-3
59604475941,-2,2,0,-6,-2,0,-3,-5
59604475941,-5,-5,0,5,0,1,1,1
59604490876,0,2,-3,1,-2,-2,0,-1
59604490876,1,-3,-2,-7,0,-1,-2,-3
59604492466,5,7,1,6,0,2,0,0
59604492466,-6,-18,-1,3,0,-2,-1,-1
59604513520,1,2,-1,-13,2,0,-2,0
59604513520,3,2,-3,24,-4,-1,0,-3
59604514920,-2,-5,-2,1,-1,0,0,1
59604514920,3,3,-1,3,-1,-3,1,-1
59604527182,-3,1,-1,7,1,2,-1,-5
59604527182,-3,-2,0,-11,-1,0,1,2
59604535992,-2,0,-5,-8,-6,-1,-3,-1
59604535992,-2,3,-2,4,1,0,2,-2
59604550839,0,0,3,-2,-1,-1,-2,-1
59604550839,-3,2,2,1,0,-1,-2,-3
59604552464,-6,-2,-2,-4,-3,-1,-1,-3
59604552464,-1,-1,-3,-12,-2,-1,0,1
59604573302,7,15,-1,2,-1,-2,0,2
59604573302,0,0,2,-2,0,-1,0,-1
59604574883,-2,0,0,4,0,1,-2,-2
59604574883,-2,0,2,-3,-5,0,-1,-2
59604586846,-11,-1,-3,-1,-3,-2,-3,-3
59604586846,3,-2,-2,0,-1,0,-1,3
59604595928,-1,-1,-2,2,1,-1,-1,-3
59604595928,0,4,-1,-7,0,0,0,3
59604610836,-2,-7,-1,6,-2,-2,0,0
59604610836,0,-2,-1,-4,-3,-3,-4,1
59604612426,-4,-9,0,-3,-1,-1,1,-1
59604612426,0,1,-2,-2,-3,-2,-1,-3
59604633531,2,-2,0,-4,-1,1,-2,-3
59604633531,-1,0,-1,-1,0,0,-1,4
59604634964,-2,2,-1,-5,0,-1,-4,-3
59604634964,0,-1,2,4,-1,0,-1,-1
59604647181,-1,-3,-1,3,-1,-2,0,-2
59604647181,3,13,-1,-1,-1,0,0,-3
59604655957,-2,-1,-2,-6,-1,-1,-2,-3
59604655957,1,2,0,13,0,-3,0,3
59604670816,3,-1,-3,-7,-1,0,-3,-2
59604670816,-2,0,1,-4,2,-1,-1,-4
59604672369,-3,0,1,-10,-2,-1,-1,3
59604672369,4,-3,0,18,3,1,-2,-3
59604693216,3,-2,0,-19,-8,-1,-1,1
59604693216,-3,-11,-6,0,-2,-3,1,-2
59604694830,3,2,0,-5,-1,0,1,0
59604694830,-5,-3,-2,-8,-1,-2,-2,5
59604706884,-2,-3,1,6,1,-1,-2,-5
59604706884,-2,-5,-1,-6,-1,-1,-3,0
59604715915,1,-1,-3,5,-2,-1,-3,0
59604715915,-16,-22,-6,-8,-2,-3,-3,-12
59604730757,6,6,0,-2,3,-1,0,6
59604730757,0,2,-2,-7,-4,-2,-2,-1
59604732393,3,1,2,9,0,-2,0,1
59604732393,6,6,-1,-7,-1,0,-1,0
59604753301,-5,-6,-1,1,-2,0,1,1
59604753301,-2,-2,-1,1,-1,-1,-2,-6
59604754850,-5,-2,-3,6,-1,-2,-1,-8
59604754850,12,7,0,-10,-3,-1,-1,0
59604775960,-4,-4,-2,8,0,-1,-1,-5
59604775960,-2,1,-2,-7,-3,0,1,3
59604777450,3,10,0,-3,0,-2,-3,-2
59604777450,-4,-5,-1,1,-2,-1,-1,-3
59604790907,-1,-1,-1,2,-2,-1,-2,1
59604790907,-2,-4,-2,5,-3,-1,-1,-3
59604792447,-4,1,1,-3,0,0,-1,0
59604792447,-6,-2,-4,-1,-1,-2,-2,0
59604813278,-2,-1,-2,-4,0,-1,-1,1
59604813278,-6,1,1,3,-1,-2,-2,-1
59604814820,0,-6,-1,-1,-1,-2,-1,5
59604814820,1,3,-1,-7,-3,1,0,-7
59604827171,-4,-5,0,-2,1,-1,0,0
59604827171,0,-3,-3,4,1,-1,-1,0
59604835954,-4,-4,-1,1,1,1,-1,2
59604835954,2,4,2,-4,-2,0,-1,1
59604850273,-1,-1,-1,-5,-2,-1,-1,-4
59604850273,-1,-3,-1,-5,-1,-2,-1,-3
59604857094,11,-3,-3,8,-2,-3,-1,5
59604857094,-11,-1,1,1,2,1,0,-7
59604873538,0,2,-2,-8,-5,-2,-1,-1
59604873538,6,2,0,-1,0,-3,-1,3
59604874939,3,-14,-1,4,-2,-1,-2,-2
59604874939,11,8,-1,-1,-1,-3,0,2
59604887106,-5,-3,-1,3,0,-1,-2,-7
59604887106,-3,3,0,-8,-3,-2,-2,2
59604896042,-4,0,-2,-6,-2,0,-1,-2
59604896042,-2,-4,-3,0,-1,-2,-1,1
59604910193,3,10,0,2,-1,0,0,-3
59604910193,2,-5,-1,1,0,1,0,7
59604916949,-17,-10,-4,-4,-1,-2,-2,-4
59604916949,-2,-2,-2,-1,-2,-1,-2,3
59604933328,-4,-2,-3,-1,-1,-2,0,2
59604933328,-8,-8,-1,0,0,0,-1,-3
59604934851,1,0,-1,-1,-2,0,1,0
59604934851,-2,2,-2,-4,-1,-1,-1,-3
59604947183,-1,-6,-2,1,-2,-2,-2,1
59604947183,-1,-2,-4,4,0,-1,-2,-4
59604955992,-2,0,0,-4,-2,-1,0,-5
59604955992,3,-3,-2,-4,-1,-2,-4,0
59604970353,1,-3,-1,-1,-1,-1,-1,-1
59604970353,2,-1,-1,-1,-2,-1,-1,-1
59604977172,-13,3,0,2,-2,0,-1,-12
59604977172,-7,-6,-3,-5,-4,-1,1,3
59604993527,2,0,0,-3,0,-1,0,0
59604993527,0,-1,0,-3,-2,-2,-3,-3
59604994973,2,0,-1,-2,0,-1,-2,2
59604994973,-3,-10,0,3,-1,0,-1,-2
59605015746,-13,-2,-1,0,-1,0,-1,-3
59605015746,-2,-2,-3,-2,-1,-1,2,-2
59605017426,0,-1,-1,0,-2,-4,-1,1
59605017426,-2,1,-1,-3,-1,0,-2,-8
59605030056,7,-1,-1,-2,-2,-2,0,14
59605030056,-1,-3,0,0,-2,-1,-1,-2
59605036880,2,4,0,-2,0,0,-2,0
59605036880,-1,1,-1,-2,-2,-1,0,1
59605053231,-2,-4,-1,0,0,-1,-3,-5
59605053231,-2,0,0,0,-4,0,0,-1
59605054830,1,-2,0,-3,1,1,3,1
59605054830,2,1,-2,-1,-1,-3,-1,3
59605076021,0,-2,0,3,0,0,-1,-1
59605076021,-4,-3,-2,14,1,1,-2,-2
59605077431,7,-19,-5,-14,-3,-1,-4,-3
59605077431,6,10,5,0,1,-2,3,5
59605090815,0,2,-1,3,-2,-3,-3,-3
59605090815,1,0,-2,-7,-1,-3,-3,-2
59605092455,-4,2,0,3,-1,-1,0,1
59605092455,-4,-2,1,1,0,-1,-2,1
59605113541,0,-3,0,-3,1,-2,-1,-4
59605113541,2,4,2,-3,0,0,-2,0
59605114870,0,4,-1,-1,-1,-2,-1,-1
59605114870,-3,-3,-4,-2,-1,-2,-2,-1
59605135838,-1,0,-1,0,0,-1,2,0
59605135838,-2,-3,-1,-4,-3,0,0,0
59605137351,10,5,-1,-2,1,-1,-2,8
59605137351,-7,-4,-1,2,-2,0,-1,-7
59605150335,-2,-2,-1,-1,0,1,0,1
59605150335,-2,-1,0,7,-1,-2,0,1
59605157129,-2,-8,-2,0,-1,-2,1,1
59605157129,0,1,-3,-1,0,0,-2,-1
59605172530,0,0,-1,-5,-2,-1,-2,-2
59605172530,-2,-2,0,-5,0,0,-1,-3
59605180943,-3,4,1,6,-1,-2,-2,-2
59605180943,-1,-3,0,1,-1,1,-2,-1
59605195809,-3,-4,-3,-6,-1,1,0,-2
59605195809,3,6,-1,1,0,-2,-2,0
59605197399,-5,1,-3,-2,-2,-3,-1,-11
59605197399,5,-1,0,-3,-2,-1,0,0
59605210117,0,1,-1,2,-3,-2,-6,-4
59605210117,-2,0,-1,-3,0,1,2,3
59605216934,1,0,-1,-1,-1,-1,-3,-2
59605216934,-4,-3,-3,-4,-2,-2,-2,2
59605233432,-1,0,0,2,-1,-1,3,-2
59605233432,-2,-3,-1,-2,0,-1,-1,-1
59605234836,-5,0,0,3,-1,-1,-1,-1
59605234836,1,0,0,2,0,-1,-1,-4
59605255934,0,-3,0,2,0,-1,-4,-3
59605255934,0,-3,-5,-8,-1,-1,-1,0
59605257432,-1,2,-1,-3,0,1,-1,-2
59605257432,-4,0,-1,1,-1,0,0,-3
59605270137,0,4,0,7,-1,-1,-2,3
59605270137,-6,-16,-1,-8,-2,-1,-1,-3
59605277049,2,0,0,1,-2,-1,-1,1
59605277049,-2,-1,-2,-3,-1,-1,-2,-2
59605293362,-2,1,-3,-5,-1,-2,-1,3
59605293362,-2,1,-1,6,0,-1,0,-3
59605294929,0,0,-3,-5,-2,0,-1,0
59605294929,-6,-4,0,3,-2,-1,0,0
59605315811,-2,-3,-2,-8,-2,0,-1,-1
59605315811,0,0,-3,-5,-3,-1,-1,0
59605317381,-3,-3,-3,-4,0,-1,-1,1
59605317381,-3,2,0,0,-1,-1,1,-1
59605330284,2,-2,-1,-2,-1,0,0,3
59605330284,-1,2,2,5,0,-1,-1,-4
59605336922,-2,1,-2,-1,-1,-2,-2,0
59605336922,-1,-1,-1,-4,-1,-2,-1,-2
59605353477,0,-3,1,1,-2,0,1,-1
59605353477,-2,-1,-3,2,-1,-1,-1,0
59605354953,-1,4,2,1,-1,-1,-2,-6
59605354953,-5,-17,-5,-5,-1,0,0,5
59605376091,-1,-1,-2,1,-2,-1,0,-3
59605376091,-2,3,1,-2,0,0,-2,-4
59605377439,1,0,-1,3,-1,-1,-1,3
59605377439,3,3,-4,-6,-1,-1,-2,-3
59605390338,-5,-3,-2,-1,0,1,1,0
59605390338,-1,-2,-1,-2,-3,-2,-1,1
59605396936,-1,-4,1,1,-1,-4,-1,0
59605396936,0,1,3,0,1,-1,-1,0
59605413336,0,-4,-6,-5,-1,-3,-2,1
59605413336,1,4,-1,3,0,1,-1,1
59605414960,-2,-3,-2,-5,-2,-1,-1,0
59605414960,0,2,0,1,-1,-2,-1,-2
59605435957,1,0,1,0,-2,-1,-2,1
59605435957,-1,0,0,0,-1,-3,-2,-3
59605437374,-2,-2,-3,-4,0,0,0,-5
59605437374,-4,-3,-4,-1,-2,-1,-1,0
59605450375,2,-1,1,2,-1,1,-1,2
59605450375,-2,-2,1,-1,-1,0,-2,-3
59605457185,3,8,-1,-3,0,0,0,2
59605457185,-4,-9,1,-4,-1,-1,-2,-2
59605473560,-4,0,-2,4,-1,-2,-2,-4
59605473560,1,1,-3,-10,-2,-1,-1,3
59605474970,0,2,1,0,-1,-1,-1,2
59605474970,-2,3,-2,4,-1,-1,-1,-2
59605503245,-2,1,1,-1,-3,-2,1,-2
59605503245,-2,-4,-1,-1,0,-3,-1,-1
59605504849,3,-4,-3,-3,-2,-2,-2,2
59605504849,-8,0,0,-1,-1,-1,-2,-7
59605509380,2,0,0,-3,1,0,-2,-2
59605509380,1,1,-3,0,-1,0,-1,-1
59605518387,-2,-4,-2,-2,0,-1,0,-3
59605518387,4,2,-2,1,0,0,0,4
59605533209,-2,0,-2,-4,0,-3,0,-3
59605533209,-2,0,-1,0,-2,-1,-1,-2
59605534833,-4,-3,0,-5,-2,-1,-2,-2
59605534833,1,0,-2,0,0,0,-2,2
59605555759,-1,-3,-1,0,0,-2,0,-2
59605555759,1,-2,0,6,-1,0,1,-1
59605557366,-5,-4,-2,-16,-4,-3,-2,-1
59605557366,1,1,0,-1,-1,-1,1,0
59605569489,0,-1,-2,1,-3,-2,-3,-2
59605569489,3,10,0,5,2,-1,-1,1
59605585900,-4,-6,-1,4,0,-1,-3,-1
59605585900,0,3,-1,-5,-1,-3,-2,0
59605593213,-4,-2,-1,-2,-2,-1,-2,-3
59605593213,-2,1,0,-3,0,-2,-4,-1
59605594843,7,-1,0,1,-2,-2,-1,6
59605594843,0,0,-4,-10,-3,-2,-2,-4
59605615990,-1,-2,-1,0,-1,-1,-2,0
59605615990,-2,-5,-2,-2,-1,-2,-3,-3
59605617472,-1,-1,-3,1,-1,1,0,0
59605617472,0,0,-1,0,-2,2,-2,-1
59605629618,1,-1,0,0,-1,-2,0,-2
59605629618,-1,-4,-1,-6,-3,-1,0,1
59605638476,-3,0,-1,4,1,1,-1,-5
59605638476,1,-1,0,3,0,0,0,0
59605653369,-4,0,-3,-2,-1,0,-1,-12
59605653369,0,-2,-2,-5,-2,1,0,1
59605654928,-4,-1,-1,5,-3,-2,0,-2
59605654928,-2,0,1,-2,-3,-1,-2,-2
59605683518,1,-1,-1,-3,1,-1,-1,4
59605683518,-2,-2,-1,1,0,0,0,-2
59605684976,-1,2,-1,1,1,-2,0,-2
59605684976,1,-2,-2,1,0,-1,-2,3
59605689426,-1,0,1,-2,-2,-1,-1,2
59605689426,-1,1,-1,-3,-1,-2,-2,-2
59605698418,-4,-2,-2,-2,0,-1,-4,-4
59605698418,0,-1,-3,0,-3,-4,-1,-1
59605713311,-2,-2,-1,2,-1,0,0,-2
59605713311,-2,1,-1,-2,-1,-1,-1,-2
59605714868,0,0,-1,0,-1,1,-2,0
59605714868,-2,-3,-1,-2,1,-1,-2,-5
59605735720,2,-3,-1,-4,-3,-1,0,-2
59605735720,-5,-3,-2,-1,-2,-1,-3,-13
59605737355,2,0,-2,-2,-1,-1,-3,1
59605737355,-7,-19,-4,0,-1,-3,4,6
59605749447,-9,-10,-2,-5,0,0,0,-9
59605749447,4,-1,3,3,0,-1,4,12
59605758447,-10,-5,1,-2,0,0,2,-9
59605758447,4,6,1,0,-1,-1,-3,-2
59605773364,-1,3,-1,3,1,0,1,-2
59605773364,2,-5,-5,-5,-3,-2,-4,3
59605774903,-15,-2,0,-6,-2,0,2,-12
59605774903,-1,4,2,-2,-1,0,-1,0
59605795837,0,-1,-2,1,-1,-2,-2,4
59605795837,1,4,0,2,0,0,-3,-2
59605797363,4,0,-2,-1,-1,-1,-1,6
59605797363,0,3,2,3,-1,-1,-2,-3
59605809416,-1,1,-1,-11,-1,-2,-3,1
59605809416,-5,-5,-1,0,0,-3,-1,-1
59605818383,4,0,1,0,-1,0,0,1
59605818383,0,-1,-3,0,0,-1,1,0
59605833231,0,0,-1,11,0,-2,-1,0
59605833231,-2,-1,0,-7,-1,-1,-1,3
59605834830,1,0,-2,-6,-5,0,1,-5
59605834830,1,0,1,2,1,-1,-4,-4
59605855802,-2,-3,0,-3,-2,-2,-1,0
59605855802,1,2,-1,-3,-1,-1,0,4
59605857398,2,-1,-1,2,0,-1,0,2
59605857398,-2,-3,-2,-2,-3,-1,-3,0
59605869439,0,0,-4,1,0,0,-3,2
59605869439,-2,-2,1,1,-3,-1,1,-4
59605885887,8,-1,0,0,0,-2,-3,9
59605885887,1,5,0,-1,0,-2,2,-2
59605893314,-5,-16,-1,-3,0,-1,-1,2
59605893314,-2,0,-2,-4,-2,0,-2,-4
59605894852,3,3,-1,-1,-2,-2,0,3
59605894852,-6,-1,-3,-1,0,-1,0,-2
59605915780,8,4,1,-2,-3,-2,-4,-2
59605915780,-2,-2,-3,-7,-1,-1,1,-1
59605917371,-4,-3,1,2,1,-1,-1,1
59605917371,-3,-1,-1,-3,-3,0,-3,-11
59605938212,-1,4,0,-3,-1,0,3,5
59605938212,-1,-2,-3,-2,-4,0,-3,-4
59605939848,0,1,0,2,-1,-2,-4,-1
59605939848,0,0,1,3,1,-1,0,3
59605953203,0,0,-1,-3,0,0,0,-2
59605953203,-2,-1,-1,3,0,-2,0,-4
59605954838,-4,-1,1,0,-1,-1,-1,-4
59605954838,0,-3,-1,-4,-2,0,0,1
59605975775,-1,0,-1,1,-2,0,-4,-5
59605975775,-2,1,-1,2,0,0,-2,1
59605977347,-1,-2,1,-6,0,-2,0,-3
59605977347,-3,-3,-2,-2,-4,-1,-1,1
59605998286,-2,1,-3,0,0,-3,-2,-1
59605998286,-3,-2,-1,-2,-1,-3,-3,-7
59605999919,2,-1,-2,-2,-2,0,3,3
59605999919,-11,0,-1,4,0,0,-3,-9
59606013159,-1,1,-4,-11,-1,-2,1,-2
59606013159,1,-1,1,1,-1,0,-1,-9
59606014795,-5,4,-1,1,-1,-1,-6,-2
59606014795,6,-11,-2,-2,0,0,5,10
59606035800,-1,0,2,-1,-3,-2,-2,-4
59606035800,-3,-1,-1,1,2,1,2,-1
59606037415,0,0,-1,6,0,-2,-1,-1
59606037415,1,3,0,-9,-2,-1,-1,0
59606058229,-5,-1,-2,-3,-1,-2,-1,-2
59606058229,0,-4,0,-1,0,-2,-2,1
59606059876,-2,-3,-1,0,-3,-1,0,-7
59606059876,1,-1,-2,5,-2,-4,-4,-1
59606072802,1,-2,1,1,0,0,-1,2
59606072802,-5,0,0,-3,-1,-4,-1,2
59606086980,0,1,-2,-2,1,-1,-2,-2
59606086980,-1,-1,0,-4,-1,-1,-2,-1
59606095838,0,1,-1,0,-1,0,1,-2
59606095838,7,-1,-2,4,0,1,-1,7
59606097433,-9,-3,-3,-8,-2,-1,-3,-12
59606097433,0,0,-4,2,-1,-1,3,3
59606118348,-1,-2,-1,0,-2,-2,-1,1
59606118348,-1,0,-1,-1,-2,-2,-1,0
59606119936,0,-3,-1,-1,1,-1,-1,9
59606119936,-1,2,0,-3,-1,-1,-1,-7
59606132666,-3,-1,-1,-1,0,0,-3,-1
59606132666,0,-1,0,-1,1,-1,0,1
59606139427,0,0,0,-4,-1,-3,-3,-1
59606139427,-1,-1,-2,-3,0,-2,-1,-6
59606155847,1,0,-1,4,0,0,-1,-3
59606155847,-2,-1,-2,-10,-4,0,-2,4
59606157402,1,-1,-2,-1,-1,-1,0,-2
59606157402,0,-1,-3,-1,-2,1,-3,1
59606178617,-1,-3,-2,-1,-1,-1,0,-4
59606178617,-3,-2,-1,2,-2,-1,-3,-7
59606179873,-1,-4,-2,1,-1,-2,0,1
59606179873,-1,1,1,-6,1,-1,2,3
59606192621,-4,0,2,-3,-2,-1,-3,-5
59606192621,6,-1,1,1,0,-2,-1,3
59606199402,-7,-1,1,0,0,0,1,-7
59606199402,-1,-2,-2,4,-2,0,-2,2
59606215763,0,-1,-2,1,-1,0,0,1
59606215763,0,0,-2,-1,0,-1,0,0
59606217339,2,-1,-4,-2,-2,0,-1,2
59606217339,0,-2,0,-4,-2,-1,-4,-3
59606238330,-2,-1,0,-2,0,-2,-2,-1
59606238330,-4,1,-1,2,0,-1,0,-5
59606239869,1,-1,-1,3,-1,-1,1,2
59606239869,-3,0,-3,-1,0,-2,-2,-4
59606252668,1,-2,-1,-4,0,-1,-1,1
59606252668,-3,-1,-1,1,-2,-1,-2,-1
59606259407,1,-1,2,0,-2,0,-1,-2
59606259407,1,-1,0,0,-1,-3,-1,2
59606275755,1,-2,-1,2,0,-1,-2,-2
59606275755,-2,-1,-1,-2,0,-2,-2,2
59606277389,-3,-1,-2,0,-1,-1,-1,-10
59606277389,-1,-1,-1,-1,-1,-1,-1,-1
59606298219,1,-1,-1,-1,0,-1,1,2
59606298219,-3,-1,-2,-5,-3,0,1,1
59606299844,-14,-2,-2,-3,-1,-1,-4,-12
59606299844,-3,-1,1,-1,-2,-2,-1,-1
59606312765,-1,1,-2,3,-2,-2,0,1
59606312765,-2,0,-4,-6,0,0,-2,-3
59606319590,2,0,2,-1,-4,1,-1,6
59606319590,-1,-1,0,1,-2,0,0,-5
59606335809,-4,-2,0,-3,-2,-3,-3,-3
59606335809,-1,-2,-3,2,-1,-3,-3,-12
59606337372,3,-1,-4,-4,-1,0,-1,4
59606337372,0,-1,-2,-5,0,-2,0,1
59606358482,1,1,-1,-1,-2,1,-1,-3
59606358482,-2,-2,0,1,-2,-1,-2,-1
59606359873,1,-3,0,-1,0,-2,0,0
59606359873,-2,-1,0,-5,-1,0,0,-3
59606372602,-1,0,-3,2,1,-3,1,1
59606372602,-3,-2,1,-2,0,-3,-1,-3
59606379389,1,0,-1,-1,0,-3,-1,4
59606379389,-1,0,-2,2,-3,0,0,-2
59606395989,-4,-1,-3,-5,-3,-1,-1,-1
59606395989,-1,-1,-1,0,-1,1,0,1
59606397403,2,-4,-2,-5,-1,-2,-1,-1
59606397403,0,-1,0,2,-2,0,0,-1
59606418521,3,-2,-3,-1,-3,1,0,1
59606418521,-3,-3,0,-3,-1,0,0,-3
59606419910,-1,-1,-1,5,-3,-4,1,1
59606419910,-1,-1,-4,-6,-1,-2,-1,1
59606432071,-2,-3,-1,2,0,0,0,-3
59606432071,1,-1,-2,1,-2,-4,-3,5
59606440917,-12,0,-1,-1,0,-1,-3,-11
59606440917,-1,-3,0,-1,-4,-2,-4,-1
59606455853,1,1,-1,-6,-1,-2,2,2
59606455853,-3,1,-1,2,1,0,1,2
59606457343,2,1,0,-3,0,0,-3,0
59606457343,-2,1,-1,-1,-1,1,0,2
59606478294,-2,-2,1,1,-1,-1,-3,-2
59606478294,0,-1,-1,-1,-3,0,0,0
59606479988,-1,-1,0,3,-2,0,-1,2
59606479988,-1,-1,-2,-4,0,-1,-2,-4
59606491880,-1,-1,-2,-3,-3,-2,-2,0
59606491880,-1,-1,-1,-2,-1,0,-1,-8
59606500941,2,0,0,0,-2,1,-1,-3
59606500941,-2,-3,0,1,-1,-2,-1,2
59606515755,-2,-2,0,0,0,-2,-2,-3
59606515755,1,-2,-2,2,-3,-1,0,-9
59606517379,-2,-3,-2,1,1,-2,-1,3
59606517379,11,-1,-3,1,-1,-1,-3,3
59606538280,-5,-1,2,-2,-3,-1,1,-3
59606538280,-1,-1,0,-3,-2,-2,-4,2
59606539823,2,-2,-2,-3,-3,0,-1,5
59606539823,1,0,0,-2,1,-2,-2,-1
