timestamp,emg1,emg2,emg3,emg4,emg5,emg6,emg7,emg8
117435863253,4,42,2,0,-2,-2,-2,3
117435863253,23,-4,1,-2,2,1,2,20
117435864127,1,-3,-5,-1,-2,-2,-3,-17
117435864127,14,10,4,1,2,0,2,12
117435864815,7,9,-2,-1,0,-2,1,-4
117435864815,-16,-12,-2,-1,-1,-1,0,-1
117435865551,3,-6,-2,-2,-2,-2,-1,5
117435865551,-4,-3,-2,-2,-2,-1,-3,-7
117435876851,-3,-11,-3,0,-2,-1,-1,-1
117435876851,-9,5,0,-2,-1,-1,-3,-16
117435893855,2,-18,-3,0,-1,-1,-2,-4
117435893855,-6,0,-2,0,-4,1,-3,2
117435895930,-5,-13,0,-2,-1,1,0,2
117435895930,3,2,-2,1,-1,-1,-2,3
117435907400,-5,-2,2,-1,0,-2,-2,-1
117435907400,-7,-8,-4,-3,-2,-3,-2,0
117435914415,1,-4,1,-1,-1,1,-2,-6
117435914415,0,-1,-1,-1,-1,0,-1,-5
117435922318,-7,30,1,-1,-1,1,1,3
117435922318,-3,-3,-2,0,-1,-1,0,-6
117435946415,8,-15,-4,0,-1,-2,1,3
117435946415,-11,0,0,-1,-1,-1,-2,-4
117435949253,0,5,0,0,1,-1,0,5
117435949253,-4,-3,-2,-1,0,0,-2,-3
117435952803,-1,-1,-2,-8,-1,0,-2,-4
117435952803,2,3,-5,3,-2,-2,-2,1
117435999375,-1,-1,3,-1,1,-1,0,-2
117435999375,0,1,2,-7,-2,0,-1,0
117436000224,0,-3,-4,23,2,-1,-1,-1
117436000224,1,-2,-11,-52,-8,-1,-1,-2
117436000988,-1,3,9,9,5,-1,1,2
117436000988,2,-2,4,-41,-10,-2,-3,0
117436003450,-2,0,9,44,7,2,1,0
117436003450,-3,-4,-5,-33,-5,-3,-2,-2
117436011632,-2,-1,-5,-8,-2,2,0,-1
117436011632,-2,-2,-2,17,0,-1,-1,1
117436018412,-2,0,8,10,6,-1,-1,1
117436018412,-2,-2,-4,-1,-6,-3,-2,-3
117436025900,0,-3,4,-5,-8,0,0,0
117436025900,-3,-1,-10,-1,-2,-3,1,-4
117436040930,0,10,-4,-11,4,-3,3,-1
117436040930,1,-1,3,42,8,-2,-3,1
117436048421,-1,-3,-9,-12,-6,-2,-3,-1
117436048421,0,-4,0,9,-6,-2,-1,-3
117436057443,-4,-1,-14,-18,-5,-1,0,-3
117436057443,-2,-1,20,-2,6,7,5,2
117436071620,-10,-2,4,7,15,3,-1,-23
117436071620,2,8,-16,-11,-22,-4,-3,3
117436078415,-3,-11,-1,-56,-17,-21,-11,-4
117436078415,3,5,-3,11,5,0,-5,3
117436085945,-9,-3,-1,9,3,3,2,-13
117436085945,-1,0,6,11,1,-2,-4,-5
117436100922,-8,0,-6,-9,13,15,4,-3
117436100922,1,-31,-9,-7,-9,-13,-3,-7
117436108560,-13,-1,2,-1,-4,-6,-3,-8
117436108560,0,-2,-1,3,11,-3,-7,-3
117436123476,4,22,-1,-12,-17,6,2,4
117436123476,-2,4,0,-6,7,13,3,1
117436131648,-14,-2,-8,-17,-7,-10,-7,-37
117436131648,3,-6,1,22,-6,-28,-4,13
117436138588,4,0,8,16,24,9,3,-1
117436138588,-9,3,-1,18,7,21,5,-6
117436146213,7,-2,-9,-29,-5,-12,4,6
117436146213,-6,3,9,5,-6,13,-8,-6
117436161113,2,-10,-11,-8,-24,-19,-1,2
117436161113,-19,5,1,11,-4,-14,-19,-28
117436168527,13,-21,-9,-17,12,19,15,2
117436168527,-1,11,4,25,35,18,4,26
117436183697,-2,-4,5,2,-5,19,0,0
117436183697,-15,-3,-8,-8,-38,-41,-9,-58
117436191683,5,5,1,16,10,-16,-10,37
117436191683,0,6,-2,-19,-10,-5,-5,-6
117436198459,5,-25,-4,10,1,9,14,-35
117436198459,1,3,0,-7,0,6,-10,22
117436205963,1,15,-2,4,-16,-23,-9,5
117436205963,1,-15,-4,-7,16,39,7,-13
117436220951,-1,0,0,24,4,-15,-7,-12
117436220951,13,0,-4,-23,-9,-15,7,16
117436228440,-1,1,3,31,-5,16,3,4
117436228440,-9,-5,-3,9,-6,-6,-10,10
117436244960,-7,-1,-5,-11,12,7,7,-4
117436244960,6,-4,-5,3,-3,10,0,10
117436251606,0,-4,0,9,-17,-34,-15,7
117436251606,-6,1,2,-3,17,26,12,-15
117436258413,-1,-2,-3,2,-20,10,4,13
117436258413,-1,3,4,-4,2,-24,-15,9
117436265933,5,8,-8,-17,-21,2,-18,-1
117436265933,5,-12,-2,-24,-1,-7,15,-4
117436280925,-4,-1,-4,28,7,-19,-12,-2
117436280925,23,5,6,17,0,24,20,52
117436288422,-5,-3,-3,-10,6,-1,-1,-5
117436288422,5,0,4,-23,-8,-12,-5,-2
117436303472,19,9,6,36,19,8,6,11
117436303472,-11,-1,-5,-41,4,4,-8,-15
117436311840,-15,-21,-3,-12,-3,8,7,-3
117436311840,-5,7,-10,16,6,-12,-7,2
117436318463,-3,0,18,-14,-18,-8,3,5
117436318463,-1,-2,1,13,-10,-5,-8,-9
117436325875,4,21,5,9,8,0,7,11
117436325875,7,-10,-1,-26,3,2,5,-6
117436340998,-6,2,-8,34,4,-4,-8,0
117436340998,-5,1,-1,20,1,27,5,0
117436356657,7,5,7,11,12,-26,-14,-1
117436356657,-5,-1,1,22,-7,4,6,-5
117436363727,-2,0,-2,-41,-6,-2,-10,3
117436363727,6,0,2,-3,0,-13,10,3
117436371658,1,-6,-2,20,4,27,0,-9
117436371658,1,2,-2,-5,5,-15,-4,6
117436378501,-2,-3,-3,-26,-12,-8,-7,2
117436378501,-7,-15,-6,-4,1,0,1,-7
117436386075,2,-3,0,6,-1,1,-3,-4
117436386075,-2,-1,0,-17,4,-4,-2,-1
117436401142,-3,0,-6,-27,-17,2,1,-1
117436401142,2,4,7,30,17,-3,-1,-6
117436408514,0,0,0,-7,-6,7,3,-3
117436408514,-2,-4,-2,0,-4,-5,-1,2
117436423516,-4,-1,-4,4,4,-3,-3,3
117436423516,8,3,-4,-6,-4,-5,-2,-4
117436431716,-10,-9,-3,2,6,4,3,-8
117436431716,8,17,-3,14,-5,-3,1,8
117436446019,3,1,1,-32,-5,-5,-7,3
117436446019,23,13,2,-2,1,3,1,6
117436454353,2,2,1,7,-2,7,1,-67
117436454353,-2,-7,1,9,0,-4,1,53
117436461018,-2,4,1,1,1,-2,-2,13
117436461018,-14,-1,-4,-15,6,3,2,-9
117436468463,1,6,-1,6,3,0,1,13
117436468463,-4,-3,-1,-7,-16,-19,-11,-28
117436483533,-6,-7,0,-1,3,6,-1,-5
117436483533,-10,4,-3,3,2,6,1,7
117436491876,6,-5,-5,-26,-3,5,3,15
117436491876,-3,-6,3,14,-5,-4,-3,-11
117436498611,-5,-7,-8,-6,4,-2,-2,-6
117436498611,-5,4,-1,-7,-9,-6,-6,0
117436514260,1,-20,-4,-9,4,1,2,15
117436514260,-1,-1,-2,-2,-8,-1,-3,-5
117436521064,-12,0,-6,-58,-9,-5,-5,-39
117436521064,-26,-10,-1,54,6,-3,0,52
117436528556,9,1,2,0,3,2,1,10
117436528556,5,-3,-5,-15,-1,2,2,10
117436543593,-6,-2,3,8,4,-1,-7,-19
117436543593,0,-5,-5,-11,-7,-3,-6,-1
117436551687,-13,8,-2,-3,-3,-1,-2,3
117436551687,-13,1,2,8,2,1,-4,-6
117436558473,3,0,-3,-1,1,0,0,0
117436558473,5,-5,-3,-12,-4,-3,-4,-15
117436574231,2,4,4,10,-3,1,-1,17
117436574231,-11,-6,-8,-23,-9,-2,-4,-53
117436580898,3,-3,2,19,2,-2,3,57
117436580898,10,-4,0,5,7,0,1,9
117436588586,-2,12,-4,-12,-4,0,-1,-1
117436588586,3,-3,2,7,-2,1,3,2
117436603454,-9,9,-1,-22,0,-1,-2,-6
117436603454,4,-4,0,4,-1,0,1,-13
117436611880,1,14,-3,8,-13,-2,1,12
117436611880,1,5,0,-11,12,1,-2,-5
117436618437,5,2,0,21,3,-3,0,2
117436618437,2,2,0,0,2,-1,0,-18
117436634421,-7,-5,-1,-29,-3,-2,-3,-15
117436634421,0,0,0,11,-5,-1,-1,5
117436640957,3,-5,0,9,2,0,-1,-3
117436640957,0,1,-1,-11,0,2,3,-8
117436648559,1,-12,-1,6,-5,-3,-3,3
117436648559,-7,-8,-5,-5,0,-1,-1,4
117436663507,4,-1,1,6,-4,-1,1,3
117436663507,-13,-3,-2,8,-2,-5,-1,-12
117436671716,-25,-29,-6,-1,2,-2,-3,-10
117436671716,2,20,4,-29,-5,0,-2,41
117436678464,14,0,0,3,1,-4,2,-12
117436678464,-8,-8,-2,-4,3,1,-1,1
117436694234,0,6,0,7,2,-1,-5,-44
117436694234,-1,1,-1,1,4,0,1,-13
117436701018,-8,-3,-3,5,-7,-4,0,44
117436701018,-28,12,0,-7,-3,-3,-2,-2
117436708458,0,-1,0,-8,2,2,3,18
117436708458,22,3,1,13,1,0,-1,-7
117436723460,-19,-8,-2,-6,-2,-1,4,9
117436723460,34,25,4,7,5,-1,-1,-32
117436731598,2,1,4,3,-5,3,7,20
117436731598,8,-2,0,6,0,-1,-2,38
117436763225,-1,9,-5,-10,-2,-6,-6,-19
117436763225,-15,-30,-3,0,-1,0,-3,5
117436764638,22,0,6,14,12,-3,-3,-9
117436764638,-32,-24,-8,4,-21,1,-2,-8
117436765512,2,16,1,-6,0,2,-8,-107
117436765512,-23,-43,5,-12,8,-1,8,73
117436785062,15,6,-8,3,-2,-4,-2,0
117436785062,-7,-7,-12,-44,-14,-6,-1,-48
117436786473,7,-18,-15,1,1,3,-6,23
117436786473,-12,8,10,7,-13,-2,-6,-54
117436791572,-10,-14,5,24,4,-11,0,9
117436791572,28,17,8,0,10,9,9,26
117436799804,-7,5,10,32,0,4,7,3
117436799804,14,25,5,-6,9,9,0,2
117436814458,-8,-20,-3,-15,-9,4,-5,12
117436814458,-10,3,-1,30,10,-28,-18,-68
117436821106,2,-10,-5,-17,-10,23,13,22
117436821106,3,-1,-10,27,24,-8,-14,-13
117436828679,-5,6,7,17,-10,3,15,-21
117436828679,-1,-1,-4,-28,20,15,6,-2
117436843773,1,-2,2,-3,6,-16,-7,0
117436843773,7,4,9,-6,-17,-2,-1,4
117436851894,-4,8,-7,-4,34,1,-6,1
117436851894,-4,-11,7,9,-30,-4,-1,12
117436858494,12,7,-2,0,-34,-11,-1,12
117436858494,0,18,-17,-50,5,-5,-6,-9
117436874343,-1,-6,-8,8,12,2,-5,1
117436874343,-3,-1,-1,-6,-9,5,3,1
117436881052,-6,-6,3,3,2,-2,-7,-6
117436881052,1,-4,-6,-8,-16,-11,0,-9
117436888521,-2,-1,1,2,-10,-1,-3,0
117436888521,-6,6,1,-3,4,3,5,4
117436903475,7,-11,-7,-23,-13,-10,-2,-4
117436903475,7,-11,-1,-20,-14,-6,0,4
117436911868,2,7,-2,-10,-4,2,-3,11
117436911868,-6,-4,-2,11,14,4,-1,2
117436926220,-4,-4,-2,8,-3,-8,-2,-1
117436926220,-8,4,0,6,16,11,8,-14
117436934445,8,1,-2,-43,-10,6,1,-4
117436934445,-5,-3,-3,7,-21,-8,-10,-10
117436941046,-15,0,-1,7,24,4,1,12
117436941046,22,10,8,4,12,-3,1,4
117436948699,-7,-1,-6,-20,-43,-16,2,-1
117436948699,-3,-5,4,31,30,9,-10,12
117436963709,-3,0,-1,-21,-17,7,-13,-18
117436963709,-4,-5,-2,4,-31,-9,4,-3
117436971705,2,17,2,1,20,10,5,27
117436971705,4,-3,0,4,-13,-14,-4,-14
117436985919,-2,-1,2,0,19,4,-3,-2
117436985919,-15,-21,-1,3,-1,7,-2,-24
117436994420,-4,4,-2,14,-9,-11,-1,0
117436994420,-17,2,0,-13,2,6,-8,-4
117437009293,8,-15,0,3,3,8,10,21
117437009293,-16,-13,-5,-7,-9,6,-4,-4
117437009883,0,-5,-5,1,-2,-8,-2,-70
117437009883,3,9,3,-3,1,-12,8,32
117437023625,5,16,6,13,10,-1,-9,-8
117437023625,8,15,-2,1,0,2,-15,-7
117437031735,-7,-16,-1,-1,2,1,6,-21
117437031735,7,2,-4,-1,-5,0,-3,18
117437062349,-6,2,0,1,3,-2,8,-9
117437062349,2,-4,-2,1,-10,6,3,15
117437063201,3,2,0,-4,-1,5,-6,10
117437063201,-1,-4,-5,-4,-7,-15,-8,-31
117437068976,-7,5,1,8,4,-7,-1,-34
117437068976,2,0,-4,-2,5,-3,3,10
117437076923,-7,8,0,-28,-9,-5,-6,11
117437076923,17,-8,-4,8,-11,1,6,4
117437083455,-8,7,2,-7,0,-6,-10,-15
117437083455,8,-2,-2,17,7,-3,2,4
117437091684,3,1,-1,10,7,1,-2,-34
117437091684,-13,-1,0,-32,3,3,0,-5
117437106069,13,0,-4,-5,-10,-1,4,-1
117437106069,-16,-7,2,-16,-1,1,8,70
117437114459,17,3,3,25,6,-1,-4,10
117437114459,-3,-17,-3,-12,-1,3,3,11
117437129299,-3,-5,-3,7,0,-3,-1,4
117437129299,3,2,1,-11,-1,0,1,-16
117437129900,-2,-9,-2,-1,-4,0,-7,5
117437129900,-3,-1,0,15,4,4,1,2
117437143739,-4,-43,-4,-11,-1,-1,1,10
117437143739,-5,6,-2,9,-2,-4,-5,-19
117437151941,0,2,0,-2,-2,-1,-1,16
117437151941,8,-2,-3,3,0,-3,1,-14
117437166190,-1,7,0,8,-2,-2,-1,11
117437166190,4,1,-2,2,2,-1,-5,-12
117437174278,-5,-10,-2,-6,-3,-3,1,9
117437174278,-9,3,-3,-4,-2,-1,-1,-3
117437189119,13,3,-3,-1,-1,-3,-3,-4
117437189119,0,-4,-1,0,-1,-3,0,-1
117437189941,8,9,-1,-2,-2,0,0,8
117437189941,-16,12,1,3,-1,-1,0,1
117437203443,-19,24,0,-6,-3,-4,-10,-45
117437203443,-5,-3,2,3,2,-1,2,-8
117437211716,-2,11,0,3,-2,0,-4,6
117437211716,1,-20,-5,2,0,-1,-4,-27
117437225947,17,5,-1,5,0,0,-2,-31
117437225947,-6,7,0,-7,-2,-1,3,29
117437234201,0,6,0,0,-2,-2,-2,-6
117437234201,-1,4,-1,-5,-4,-2,-3,-8
117437265607,-3,-6,-2,-1,-4,-3,1,3
117437265607,2,-13,-3,16,5,-3,-2,-11
117437266303,-21,-11,-3,-5,-1,0,-2,7
117437266303,-2,-1,1,-2,1,-1,-2,-58
117437267933,6,-18,0,-16,-3,0,2,32
117437267933,-14,6,-4,5,-2,-4,-2,9
117437271768,-13,-17,-2,1,0,2,-3,-13
117437271768,9,4,-1,-1,0,0,3,7
117437285991,-11,5,-1,-3,2,0,-1,3
117437285991,-26,-1,-5,-13,-3,-3,-5,-18
117437294467,5,-21,-2,-12,-4,-3,-2,-46
117437294467,16,-4,-1,0,-1,1,4,67
117437309168,4,2,1,10,3,1,4,38
117437309168,-4,-12,-2,0,-1,-1,-2,-3
117437309919,-13,4,0,10,2,-2,-1,12
117437309919,-5,0,0,-10,-2,0,-6,-69
117437323462,-1,-4,-2,10,-8,-1,6,42
117437323462,21,1,-1,7,4,1,0,-2
117437340692,3,10,1,0,1,0,4,10
117437340692,19,-10,-5,12,-2,-3,6,88
117437354877,-31,-7,-1,8,6,0,-6,-44
117437354877,22,-2,-5,-30,-4,0,2,7
117437356417,1,-6,3,8,4,0,-1,-19
117437356417,11,9,5,8,-2,0,5,38
117437368455,-8,-28,-9,6,5,0,0,3
117437368455,6,-6,-1,-24,-11,-2,-3,31
117437377492,-29,-11,-6,37,8,-3,-7,-16
117437377492,1,4,-3,-10,-4,-3,-9,-94
117437383533,2,0,8,-19,2,2,3,25
117437383533,-12,-1,3,-16,-2,1,1,-3
117437400028,11,34,-7,15,-12,0,4,62
117437400028,7,-4,-2,-3,7,-1,-5,-30
117437406054,14,9,3,25,6,-1,-2,6
117437406054,-8,-21,-12,-58,-25,-3,-6,-28
117437414926,10,10,-10,3,1,0,3,12
117437414926,4,-19,19,-5,-4,-2,0,25
117437428500,-10,7,-7,-16,6,2,-3,-18
117437428500,10,9,0,27,11,-2,1,15
117437437496,32,5,16,-4,-3,-3,1,-10
117437437496,0,2,-11,5,-13,-6,-6,-20
117437443719,13,-1,0,-28,-8,1,5,19
117437443719,6,7,5,32,10,1,-4,-58
117437460709,-9,-25,-27,-46,-6,1,2,46
117437460709,-28,13,2,6,-2,2,0,-41
117437466008,13,14,-3,-1,-9,-11,-1,34
117437466008,-18,10,-10,6,-3,0,-7,-11
117437474924,-9,0,4,-7,3,2,-4,-38
117437474924,-6,-1,-14,-43,12,16,11,39
117437488673,-13,-10,4,5,8,-10,-13,-29
117437488673,6,-1,10,24,-12,2,2,17
117437497506,6,3,0,-23,-22,-30,3,-10
117437497506,-5,5,4,40,42,24,-2,12
117437511680,7,-3,-3,7,8,9,5,10
117437511680,-7,-7,0,-17,-23,8,-4,31
117437518482,-5,7,1,15,9,-11,-8,-12
117437518482,-7,-3,-6,6,-31,-8,-7,-20
117437525965,4,0,-2,12,-2,-13,2,-17
117437525965,-4,18,8,37,3,-10,-4,-41
117437534950,24,-15,13,68,30,14,7,63
117437534950,-3,-5,-15,-56,-26,-14,-2,-3
117437557387,-8,1,8,-8,5,8,-8,-26
117437557387,17,-30,-16,-46,6,-8,1,-11
117437559003,-19,-20,1,5,-10,2,1,-9
117437559003,14,-16,2,7,6,-5,-5,8
117437571682,6,-15,-6,-3,-15,-4,-1,-7
117437571682,14,1,-18,13,11,2,6,20
117437578397,13,-5,2,-20,-2,7,-3,-7
117437578397,0,5,-3,-6,-7,-6,-3,16
117437586161,-24,6,4,22,2,5,0,-26
117437586161,6,2,1,-8,-2,-2,-1,51
117437595002,-10,0,-3,-16,-4,4,-9,-36
117437595002,31,31,9,15,2,0,11,66
117437608678,8,6,-3,-4,-7,-1,1,6
117437608678,-13,-1,7,14,14,3,0,-16
117437617421,-3,-2,-3,-12,-9,1,-1,-9
117437617421,-15,-8,-3,2,-1,-4,0,-1
117437632498,-13,-5,-2,-8,-1,2,-3,-8
117437632498,-1,-5,-4,19,-7,-5,-1,2
117437634098,-7,11,-1,-18,-1,1,0,-3
117437634098,-20,-10,-2,10,-1,-4,-3,-20
117437646077,1,0,-1,-6,-3,-2,-4,7
117437646077,-20,-2,-1,-4,1,-1,-2,-13
117437655017,2,21,0,10,3,0,-3,16
117437655017,-9,-2,2,-1,-5,-2,-2,-10
117437668421,-13,-3,-4,-14,-5,-3,-4,-70
117437668421,6,-1,0,-2,1,-1,2,44
117437683450,-7,-2,-4,1,-2,-1,-1,-12
117437683450,-13,3,1,18,5,-2,-2,-8
117437691697,-18,-8,-4,-19,-5,-2,-4,-54
117437691697,-8,6,1,6,1,-2,-4,-35
117437698658,5,-10,-1,-2,1,0,2,8
117437698658,-9,-5,0,3,1,1,-3,-7
117437705986,25,7,1,4,-4,-1,0,25
117437705986,0,-2,2,5,5,-1,-3,-21
117437714988,-2,-9,-2,-11,-6,0,1,7
117437714988,2,6,0,-1,0,-2,-2,-4
117437728727,2,6,-1,2,-1,0,3,22
117437728727,9,-2,0,4,-3,-4,-2,6
117437737430,1,-15,-4,-16,-2,-1,-3,-4
117437737430,7,2,0,1,-1,1,0,-2
117437750999,-5,0,-3,0,-2,0,2,24
117437750999,16,2,3,4,4,0,3,-3
117437759959,-6,1,0,-3,-4,-1,0,-5
117437759959,-4,-15,-3,0,3,-4,-5,-5
117437765911,-3,-3,-1,-3,-6,0,-1,14
117437765911,-11,-5,1,14,4,3,2,-4
117437774890,-2,-6,-4,-24,0,-4,-3,-4
117437774890,3,-1,0,-9,-5,1,1,5
117437788473,6,-3,-4,0,-5,-6,-3,9
117437788473,-2,-1,0,4,1,2,-1,-9
117437797448,1,13,1,3,-2,-2,-2,0
117437797448,0,-8,-2,17,-1,-3,0,0
117437811679,-7,0,-3,-2,2,0,-3,-2
117437811679,5,4,0,-11,-7,-3,-3,-9
117437818447,2,16,-1,-2,-4,-3,1,20
117437818447,-13,2,-3,-9,2,-2,-2,-5
117437825943,2,-4,0,8,-2,-6,2,5
117437825943,-2,-5,-2,-6,2,7,0,-2
117437835078,-8,-4,1,9,3,3,1,-6
117437835078,16,9,2,-1,1,2,0,0
117437848650,2,3,1,6,3,-2,1,13
117437848650,3,-16,-5,-12,-3,-6,0,3
117437857510,1,-4,-2,2,0,0,-1,-5
117437857510,-6,1,-3,-6,-7,-4,-2,-1
117437871693,-5,1,0,-2,0,0,-4,-38
117437871693,1,6,1,0,2,-1,2,19
117437878530,-3,-8,-2,3,-3,2,-2,-6
117437878530,1,-5,-2,-3,3,0,0,3
117437885951,0,-1,0,-1,2,1,1,0
117437885951,3,-4,-5,-29,-11,-4,-3,18
117437895056,-1,-7,-1,13,5,0,0,0
117437895056,-1,4,1,-5,-5,-2,-1,-3
117437908503,-5,-2,-1,-7,2,3,1,14
117437908503,-8,1,-1,11,3,-4,-4,-26
117437917466,13,-13,-3,-4,-3,-3,-4,-1
117437917466,0,-4,0,0,1,-2,0,-3
117437932484,-6,-5,-3,-3,-4,-3,-7,-4
117437932484,6,-1,1,8,1,-1,0,3
117437933930,-14,1,-2,-5,-6,-3,-4,-11
117437933930,-9,-4,-1,6,3,1,-1,14
117437946095,8,7,1,-4,1,-1,1,-13
117437946095,-5,1,0,-1,-2,1,-2,-11
117437962525,-1,-1,0,-3,2,-1,1,7
117437962525,4,5,-1,5,-3,-2,-2,-22
117437968559,1,0,-1,4,0,0,3,18
117437968559,0,-1,-1,0,-4,-3,-2,-1
117437977465,-2,6,-1,-10,-3,-1,0,-2
117437977465,3,5,-1,-3,3,-1,-2,-1
117437992428,0,-3,0,9,1,2,1,8
117437992428,-2,-2,-1,-18,-4,0,-1,7
117437993945,7,-5,-2,12,-4,-1,-1,-8
117437993945,-14,-4,-3,1,-3,-3,-3,-13
117438005989,1,-3,-1,3,4,1,3,32
117438005989,-7,0,-2,-7,3,-2,-1,-15
117438015014,-2,-2,-2,-8,-10,-5,-2,0
117438015014,13,-4,0,-4,0,0,2,13
117438028713,5,2,0,-2,-1,-1,-2,-5
117438028713,6,3,0,12,1,-1,-1,1
117438037587,-2,-6,-2,-10,4,1,0,3
117438037587,-5,-6,-2,1,0,-2,-1,4
117438052316,3,-17,-5,-5,-5,-4,-3,-3
117438052316,-13,-4,-1,3,0,-1,0,-4
117438053895,-4,-1,-1,0,-1,-1,-2,-2
117438053895,-4,-4,-5,-13,-3,0,-1,-5
117438066020,-8,1,0,0,-4,-1,0,-5
117438066020,-1,3,0,1,5,-1,-3,-4
117438074989,0,-1,-1,8,-2,-1,-1,-3
117438074989,-7,0,-4,-14,-9,-2,-3,-3
117438088675,1,2,1,8,2,-1,-1,1
117438088675,3,-4,-3,3,-4,-2,-1,1
117438097468,-2,0,-4,-6,-5,0,0,-4
117438097468,1,-1,1,18,2,-1,-2,-2
117438112377,-2,0,-4,-25,-8,-2,-2,-3
117438112377,-10,-2,-2,-7,2,-1,-2,-2
117438113960,-10,-23,-2,-11,3,-2,0,-1
117438113960,-1,4,-1,1,-3,-3,0,0
117438126206,-3,-2,0,9,8,2,0,-3
117438126206,-10,-1,-1,-4,-15,-3,-2,-8
117438134961,1,2,-4,1,-2,-2,0,10
117438134961,-1,0,-1,-3,-5,-1,-1,1
117438148569,-4,1,-2,-2,-2,-1,-1,-4
117438148569,4,-1,1,3,7,2,1,0
117438157544,-5,-4,-1,6,-2,0,-2,-3
117438157544,11,0,1,-3,2,1,2,-8
117438172308,-20,0,-1,0,1,-1,0,29
117438172308,2,7,2,5,-1,-1,-1,-4
117438173876,10,4,2,3,0,-2,-3,-3
117438173876,-10,-15,3,8,7,3,1,1
117438186091,4,-16,-3,-11,-7,-2,-1,-6
117438186091,-1,-4,-3,3,-2,-2,-4,-14
117438194978,-1,6,2,-3,-2,-2,1,11
117438194978,-7,-4,-6,-1,1,-4,-3,-12
117438208530,3,10,2,-2,1,-2,-1,-8
117438208530,-4,8,-1,6,0,-2,-3,-2
117438217467,2,-7,0,0,3,1,-2,-9
117438217467,-9,0,-9,-8,-5,-1,-1,3
117438232303,-20,2,-2,0,-3,0,0,-10
117438232303,13,-7,-1,-4,0,0,2,21
117438233960,-3,5,-2,-1,-2,-1,-2,-6
117438233960,-2,1,2,0,-3,-1,-2,5
117438246065,-1,13,1,-1,-1,0,-2,-4
117438246065,21,-8,-5,-2,0,0,-1,9
117438254929,-22,4,0,-1,-1,-2,-2,-20
117438254929,3,-1,2,-1,-1,-1,0,0
117438268731,9,-1,2,4,1,-3,1,-10
117438268731,2,2,0,-2,-3,0,0,2
117438277690,4,1,-3,1,2,0,1,3
117438277690,5,-5,-1,1,1,-1,-4,-24
117438292526,14,-6,-2,-1,-4,-1,-1,7
117438292526,8,9,5,4,1,1,0,2
117438293979,4,0,-2,-1,-1,0,-2,-6
117438293979,-11,-1,-1,-1,0,1,-1,-13
117438306066,-4,20,-5,-4,-2,-2,-4,0
117438306066,14,-33,-6,-3,-3,-2,2,16
117438315037,1,4,1,0,0,-1,0,29
117438315037,-7,4,0,-2,-2,-2,0,6
117438328526,-16,-16,-6,-1,-3,-2,-2,-51
117438328526,0,8,1,-2,1,-1,4,36
117438337468,-9,6,-4,-3,-2,-2,-2,-10
117438337468,14,-3,1,-1,-1,1,2,11
117438351879,2,-1,1,0,-2,0,-1,5
117438351879,-32,-6,-5,-1,-2,-1,-6,-31
117438358512,4,1,3,-3,0,0,0,-9
117438358512,1,-2,-4,-3,0,0,0,4
117438365965,27,0,-3,3,0,-2,3,33
117438365965,-9,-2,0,-3,-4,-3,-2,-2
117438374992,2,-10,-1,-6,-3,0,-2,-43
117438374992,4,2,1,1,1,0,3,31
117438388464,-4,-5,-1,-3,-1,0,-3,-43
117438388464,-5,2,-3,-1,0,-1,0,31
117438397480,-1,9,0,2,1,1,1,-8
117438397480,-6,8,2,0,1,-1,-3,-5
117438411667,-4,25,0,0,-1,-2,-2,-13
117438411667,6,-1,0,-2,0,1,0,-18
117438418524,0,-5,-3,-1,-3,-2,-1,5
117438418524,5,-8,-1,1,1,0,0,1
117438425974,-6,7,-2,0,0,-2,-1,18
117438425974,1,-5,2,1,0,0,-2,-15
117438434860,7,-1,0,1,1,-1,1,20
117438434860,-6,-5,-4,-3,-3,-3,-4,-9
117438464794,7,-32,-1,0,-1,0,0,-16
117438464794,-13,2,-2,-6,-3,-2,-2,9
117438466406,4,-7,-3,-2,0,-1,2,6
117438466406,-3,-1,-1,0,-2,-3,-1,-4
117438471644,-14,-12,-4,-5,-1,-1,-1,-5
117438471644,5,14,2,1,0,1,1,-6
117438478420,-1,3,-1,-2,-2,-1,-1,6
117438478420,26,5,-1,-3,-3,0,0,8
117438485923,5,-5,6,6,4,1,-1,-42
117438485923,4,-5,-7,-7,-5,-3,2,25
117438494956,-10,-1,-2,0,1,-1,-3,3
117438494956,-3,22,2,-2,-1,0,-2,-14
117438517272,-4,-15,-2,-5,-2,0,-2,-35
117438517272,-2,-2,1,1,2,0,-1,4
117438518890,6,3,1,-1,0,-2,-1,-2
117438518890,-9,1,-4,-4,-4,-1,-2,5
117438531605,-4,8,2,1,-2,0,-4,24
117438531605,-9,1,-2,1,0,0,-5,-15
117438538387,-8,-8,-6,-1,-3,-2,-3,-26
117438538387,19,-3,-3,0,1,-2,2,43
117438554769,-7,-2,-4,-2,-3,-1,-2,25
117438554769,-3,-3,-1,0,-1,-3,-2,-19
117438556362,2,-1,0,1,-1,-3,-2,4
117438556362,-21,-6,-2,-1,-1,-3,-4,-21
117438577307,-3,-29,-4,-4,-3,-4,-2,16
117438577307,10,8,-2,0,-1,-1,-1,-3
117438578817,-18,-50,-7,-1,-2,-1,1,44
117438578817,-11,-5,-1,1,0,0,0,-11
117438592064,5,1,-2,-2,-4,-1,1,26
117438592064,-9,-5,-2,-1,-2,-1,-4,-17
117438598411,8,5,-1,-4,-1,0,-2,-13
117438598411,1,-1,2,-3,-2,-3,-3,-6
117438614818,-11,8,1,-1,-1,1,-1,6
117438614818,3,3,-1,-1,0,0,-1,-10
117438616405,8,12,0,1,0,1,0,3
117438616405,-3,5,3,0,0,-1,1,2
117438628477,-3,10,-2,-2,-2,-3,-2,-20
117438628477,6,-2,-3,-1,-1,1,3,54
117438637419,-11,8,-2,-3,-2,0,0,1
117438637419,9,1,1,2,0,0,0,3
117438651594,2,-1,-2,0,1,-1,-1,8
117438651594,-19,1,-1,0,0,-2,-3,-29
117438658415,13,9,3,-1,-1,-1,1,7
117438658415,-5,-14,-2,-3,-4,0,-2,-9
117438674823,20,10,4,0,0,1,5,25
117438674823,-2,-6,-1,-1,-1,-2,-2,-9
117438676420,-14,4,0,-1,0,-2,-3,-3
117438676420,-2,3,0,-3,-1,0,0,-12
117438688415,3,-1,-2,-1,0,-3,-1,-4
117438688415,-1,0,1,-1,-1,-1,0,1
117438697458,5,-3,-2,1,-1,-1,-1,-1
117438697458,-4,-1,-3,-1,1,-1,-1,2
117438711632,-9,-18,-5,-3,-1,-1,-2,-27
117438711632,5,0,-4,-2,0,-3,-5,-8
117438718422,-2,6,1,-1,-1,-1,-2,-12
117438718422,-5,-8,-3,-1,0,-1,-4,11
117438734512,12,5,-3,0,-1,-1,-2,-5
117438734512,-32,-19,-4,-2,-1,-1,-2,-36
117438740918,4,-1,0,0,-2,-1,-2,-32
117438740918,-2,2,-4,-1,-2,-1,0,27
117438748457,-3,-2,-2,-2,0,-2,-1,4
117438748457,3,4,2,-1,0,0,1,6
117438757438,0,0,-2,-1,-2,-1,-2,-7
117438757438,2,4,-1,0,-2,-1,-2,-17
117438771626,-4,-17,-2,1,-2,-2,-2,2
117438771626,8,4,2,-4,-3,-2,1,-13
117438778386,0,5,-1,-1,-1,-1,3,42
117438778386,0,-1,-2,-1,-1,-2,-1,-11
117438795251,-1,7,3,2,0,-1,1,21
117438795251,2,7,-1,-3,-2,-1,0,3
117438796849,7,-7,0,-1,0,-1,2,-6
117438796849,5,-2,0,-1,-3,-2,0,8
117438808440,-1,6,-1,-2,0,0,-2,4
117438808440,-11,-4,1,-1,0,0,-3,-49
117438817386,-5,-16,-5,-5,-3,-2,-1,10
117438817386,3,-3,-1,0,-1,0,0,-2
117438831642,4,17,5,-2,-1,0,0,0
117438831642,-2,-3,-3,-1,-2,-2,-2,-4
117438838449,-9,0,-2,-4,-1,-2,-4,-5
117438838449,2,-1,-2,1,0,0,-2,-20
117438854817,-7,6,-2,-1,-2,1,0,4
117438854817,1,1,-2,-2,-1,-2,-3,14
117438856410,2,6,4,1,0,-1,-1,1
117438856410,-8,-8,-6,-4,-2,-1,-2,-7
117438868451,-33,-2,-6,-4,-1,-1,-4,-21
117438868451,9,7,2,-1,0,1,2,11
117438877445,-4,0,-1,-1,-2,-2,-3,-14
117438877445,-6,16,1,1,1,0,0,1
117438891620,2,6,-4,0,-1,-2,-2,-5
117438891620,6,-5,-3,0,0,-2,-1,16
117438898392,-2,-3,-1,-1,-1,-2,0,-2
117438898392,-2,-4,0,0,-4,-2,0,-3
117438914773,5,12,3,-1,-2,0,1,14
117438914773,-3,-7,-2,-2,0,-2,0,3
117438916358,5,1,1,0,0,0,-1,3
117438916358,-5,-2,0,0,2,-1,-2,1
117438928456,-1,-4,-3,-2,-2,-1,0,-5
117438928456,1,1,2,1,-2,0,2,4
117438943482,-3,-3,-3,-2,-1,-1,-2,-6
117438943482,7,-7,3,-1,-3,-2,0,-2
117438951644,3,-2,0,1,0,-1,0,5
117438951644,-1,-5,-6,-1,0,-3,-4,-9
117438958424,-8,0,-2,-1,-1,0,-1,4
117438958424,-8,-1,-1,-2,1,-2,-2,-1
117438974762,3,-17,0,-1,-2,-1,-1,1
117438974762,-7,1,-1,-2,-2,-1,-2,4
117438976394,4,-17,-1,-1,1,-2,2,3
117438976394,10,-2,-3,-2,-2,-2,-3,-4
117438988435,-10,-3,-1,1,1,-2,0,2
117438988435,-1,-3,1,0,-1,0,1,-1
117439003478,0,3,-1,-1,-1,-1,-2,-8
117439003478,6,4,-2,-2,-1,0,1,2
117439011620,-6,-8,-3,-2,-1,0,-2,0
117439011620,11,6,2,1,-2,1,-1,-8
117439018352,2,3,-1,-1,-1,-2,-4,12
117439018352,-12,1,1,-2,-2,-1,-5,-35
117439034770,-6,20,3,-1,0,0,-1,-33
117439034770,-1,12,2,1,-1,0,3,45
117439036355,7,-3,-3,-1,-1,0,3,7
117439036355,-19,-2,-2,-1,-1,-1,-3,-6
117439048448,7,-3,-3,-2,0,0,0,-2
117439048448,-17,-2,-4,-2,-2,-1,-2,-21
117439057418,-4,7,1,0,-2,0,0,-55
117439057418,-18,-6,-3,-2,-1,-1,0,18
117439071649,6,-5,-2,-1,-2,-1,-1,-12
117439071649,9,-9,-4,-3,-1,0,-1,21
117439078393,-4,4,-2,-1,-2,-1,0,10
117439078393,2,-4,-2,0,-1,-2,-1,-1
117439095228,17,-3,-3,-2,-3,-2,-3,3
117439095228,-13,13,2,0,1,0,-1,-17
117439096908,21,-4,-2,0,0,0,-2,2
117439096908,10,0,0,-1,0,-1,1,1
117439108389,-7,-25,-4,-1,-3,-2,-1,22
117439108389,-5,-7,-2,-2,-1,-1,-5,-63
117439117416,-8,1,-1,-3,0,0,1,53
117439117416,0,-2,-3,2,-1,-1,0,6
117439131577,-6,0,-2,-4,0,0,-1,6
117439131577,-10,-9,-3,-1,-1,-2,-3,-19
117439138426,-5,2,1,0,0,0,-1,-2
117439138426,2,-3,-2,-1,-3,-1,-1,8
117439154736,7,7,1,-2,0,-2,0,3
117439154736,-3,2,2,0,0,-2,2,4
117439156401,18,2,0,0,2,0,0,13
117439156401,9,0,2,-4,0,0,1,3
117439168409,6,3,1,0,0,0,1,-5
117439168409,10,-8,-3,-2,0,-1,0,59
117439177437,-3,-4,-4,0,-4,-2,-2,-9
117439177437,-16,-23,-4,-1,-1,-2,-1,-28
117439191625,2,-2,-3,-3,-2,0,1,9
117439191625,0,1,-1,-2,-1,0,-3,-29
117439198413,-11,-6,-1,-1,-1,-3,1,38
117439198413,-2,1,-2,0,-1,1,-3,-4
117439214767,-18,7,-5,1,-1,-1,-3,0
117439214767,13,24,1,-2,-3,-1,0,-1
117439216390,-10,-4,-1,0,0,-1,-2,-26
117439216390,8,0,-2,-4,-2,-2,-3,-18
117439228395,-5,-1,4,3,1,0,1,14
117439228395,-12,-14,-5,-2,-2,-2,-4,-5
117439237395,12,5,-2,-1,-2,-1,-1,4
117439237395,8,5,1,1,0,-1,0,15
117439251572,-4,-10,0,-3,-2,-1,-3,-28
117439251572,-20,-11,-3,-3,-4,-4,-2,45
117439258398,-15,18,-1,-2,-2,-4,-5,-57
117439258398,-7,-4,3,2,1,1,1,17
117439274066,1,-5,-2,0,-2,0,-1,6
117439274066,40,3,1,1,0,0,3,-1
117439280937,-29,-2,-4,-6,-4,-3,-5,-14
117439280937,-4,8,-1,1,-1,0,1,0
117439288447,5,1,0,-1,-2,-3,-3,-12
117439288447,-6,11,2,0,-2,-1,-1,-8
117439297437,-11,-30,-4,-1,-1,0,-3,-29
117439297437,29,25,-1,-2,-2,-2,0,12
117439312007,7,-4,1,0,0,-2,0,19
117439312007,-3,-18,-5,-2,0,0,-2,-10
117439319846,21,24,4,1,1,1,0,31
117439319846,-15,-14,-6,-2,-1,-3,-3,-49
117439334098,-5,-1,-3,-3,-3,1,2,25
117439334098,14,3,2,3,2,-1,0,14
117439340883,-5,-18,-2,1,-1,-2,-3,-2
117439340883,5,-2,3,0,-1,-1,2,7
117439348438,16,0,-3,-2,0,-2,-4,-7
117439348438,-6,-16,-5,-3,-1,-2,0,-4
117439357383,-11,-6,-3,-1,-2,-2,-1,4
117439357383,3,-2,0,1,1,-1,-2,1
117439371551,-6,-1,0,-2,-1,0,1,29
117439371551,-10,-4,-4,0,-1,0,0,-4
117439378458,-1,-2,-3,-3,-4,-2,-1,0
117439378458,1,7,-2,-1,-2,-1,2,31
117439393844,-20,-8,-7,-5,-4,-4,-6,-24
117439393844,-2,-11,0,0,1,1,-2,-52
117439409088,12,17,2,1,-1,0,3,-5
117439409088,3,-32,-2,-2,-1,0,-1,21
117439409909,-6,-2,0,0,-1,-2,0,-5
117439409909,-27,2,-4,-4,-2,-3,-7,-23
117439417448,-11,-15,-3,-2,-2,-1,-1,-27
117439417448,-1,9,-3,-3,-2,-3,-4,8
117439431579,-8,2,0,-1,-1,0,1,-44
117439431579,7,4,-1,-1,-1,-1,2,39
117439438414,5,9,2,0,-1,0,0,4
117439438414,-9,6,-1,-2,-1,-3,-4,-3
117439454205,4,-13,-2,-1,-2,0,0,9
117439454205,-6,-9,-1,-2,-2,-1,-4,2
117439460926,9,-1,-3,-3,-2,-2,-1,-6
117439460926,-31,10,0,-1,-1,-1,-2,-16
117439477479,16,10,0,0,-2,-2,-1,4
117439477479,3,6,0,2,-2,-1,-2,6
117439478869,-11,-5,-1,0,-2,-1,-2,-11
117439478869,3,-4,-1,-1,0,0,-1,7
117439499734,-2,3,-1,-2,-1,-1,-1,-25
117439499734,18,7,3,0,-2,-1,1,2
117439501318,3,4,-1,-2,0,-3,-4,-6
117439501318,-9,-7,-3,1,1,-1,0,-8
117439514085,-10,-14,-1,0,0,-1,-2,3
117439514085,6,-5,4,0,0,-2,3,6
117439520919,12,2,-1,-1,1,-1,1,3
117439520919,6,1,1,-1,-1,1,2,79
117439537362,-1,1,-3,-1,1,-2,-1,5
117439537362,-4,4,-1,-1,-1,-2,-3,-10
117439538878,-11,-13,-1,0,-1,-1,0,13
117439538878,-5,-6,-4,-4,-4,-3,-5,-22
117439550945,4,4,0,1,-2,-2,0,10
117439550945,-22,1,-4,-2,-1,-2,-2,7
117439560796,9,-3,0,1,-2,0,-1,11
117439560796,2,-9,-2,1,0,-1,-1,-35
117439574681,17,-6,1,-1,1,1,1,51
117439574681,-9,5,-2,-1,0,-1,-1,-14
117439580927,-22,-5,-5,-1,-1,-1,-3,-9
117439580927,-16,11,0,1,-1,0,-2,-22
117439597438,-2,-4,-2,1,-1,-2,-3,16
117439597438,1,-11,-1,-1,-1,0,0,6
117439598949,8,11,1,-2,0,0,3,6
117439598949,-1,-1,-1,-4,-4,-3,0,15
117439611637,11,13,1,1,0,0,-1,-17
117439611637,-1,-14,-7,-5,-3,-3,-4,3
117439618377,-5,-11,0,-2,0,-1,0,8
117439618377,12,13,0,-3,-1,-1,-1,-22
117439642319,-13,-8,0,-1,1,-1,0,-11
117439642319,7,1,-3,1,-1,1,-1,3
117439643835,-1,-3,-2,0,-2,-1,0,-2
117439643835,-13,1,-2,0,-1,-1,-1,3
117439657485,-7,-4,-3,-3,-3,-2,-2,-15
117439657485,-1,2,2,2,3,-2,-2,4
117439658942,7,4,-3,-4,-1,-3,-3,0
117439658942,2,9,0,1,0,-1,-2,-11
117439670926,-2,6,2,1,-3,-1,3,10
117439670926,-1,0,0,1,-1,-2,-1,-10
117439679868,3,3,-3,2,1,0,1,3
117439679868,27,15,4,-3,-2,0,6,52
117439694324,-13,13,2,-1,0,0,-3,-42
117439694324,26,5,-1,-3,-1,-1,1,17
117439700995,-15,-6,2,0,0,1,1,7
117439700995,-8,-10,-4,0,0,-3,-2,-24
117439717226,-4,-11,-5,-2,-2,-3,-2,-12
117439717226,-8,-4,1,-2,-3,-2,-1,-9
117439718850,-1,4,-2,-2,-1,-1,-2,-8
117439718850,-2,-16,-2,1,-1,0,-1,-15
117439731158,-10,-3,-2,-3,-2,-1,0,10
117439731158,0,3,0,0,1,-2,0,-4
117439739958,-5,18,-2,-1,-3,0,-3,-3
117439739958,1,7,1,1,1,-1,-1,-2
117439754195,1,-4,-1,-1,-1,0,-2,-1
117439754195,-11,5,-1,-3,-4,0,-2,-7
117439760920,-19,-2,-1,-2,-2,-4,-2,-14
117439760920,16,-3,-1,0,0,-3,-1,16
117439777594,17,17,3,2,0,-1,3,16
117439777594,-3,-1,-2,-2,-1,-1,0,-2
117439778945,16,-10,-4,-1,-1,0,1,21
117439778945,-2,-12,-1,-2,-1,0,-2,-28
117439790895,2,-11,-6,-4,-1,-2,-4,-3
117439790895,-23,-9,-2,0,1,2,-1,-3
117439799955,8,3,1,0,-1,0,1,40
117439799955,2,-5,-2,-1,-1,-1,-2,3
117439814315,1,4,0,0,-1,0,0,-2
117439814315,0,3,-1,0,0,0,-2,-1
117439820868,8,-4,0,-1,-3,-1,-4,-27
117439820868,-15,-1,-2,-1,-1,-3,-2,-1
117439837268,-11,-3,-2,-2,-1,-2,0,24
117439837268,9,-2,0,0,-1,-2,-1,-14
117439838945,-20,-17,-2,-3,-1,-2,-5,-52
117439838945,17,2,0,-1,-1,1,2,17
117439851000,-8,-2,-1,-1,-3,-1,-2,-20
117439851000,-7,-1,-3,-3,-2,-1,-3,-25
117439859837,-3,-8,0,2,2,0,1,-16
117439859837,4,4,-2,-2,-2,-1,2,37
117439874199,-17,-26,-9,-2,-2,-3,-4,-14
117439874199,5,20,-1,-3,-3,-3,-2,6
117439880909,2,-6,-1,-1,-2,-2,-1,0
117439880909,-17,-3,0,-1,-2,-2,-3,-17
117439896563,1,13,2,-1,0,-1,-1,-4
117439896563,-7,-12,-3,-2,0,-2,-2,-2
117439905014,6,4,-2,-2,-2,0,-1,4
117439905014,3,0,0,0,0,-2,-2,-9
117439911637,3,8,-1,0,1,-1,-1,6
117439911637,-1,-4,-1,-1,-2,0,1,-2
117439918438,9,7,1,-1,0,-1,-2,-25
117439918438,-9,-11,-1,-4,-3,-2,0,7
117439934189,5,-2,-1,-1,-2,0,0,-8
117439934189,11,-8,0,0,1,-1,0,-2
117439940919,-16,-7,-1,1,-1,-1,-1,8
117439940919,-14,-2,-2,1,1,0,-1,-52
117439957369,0,-3,0,-3,-1,-1,4,34
117439957369,-13,-5,-3,0,-3,-1,-1,13
117439958822,-2,11,-2,-2,-2,-3,0,9
117439958822,-6,-3,-2,-2,-2,-1,-4,-23
117439971062,-10,15,2,-1,-1,-1,-2,-1
117439971062,12,-2,0,-1,-1,0,-3,-6
117439979973,-2,0,-2,-1,0,-2,0,11
117439979973,0,-2,-1,-1,0,1,-1,-34
117439994237,10,-2,-1,-2,0,-2,-3,4
117439994237,-18,1,-2,-2,-4,-1,-3,-2
117440000919,0,-3,0,0,-1,-1,-1,1
117440000919,-8,4,1,1,-1,0,-2,3
117440017279,36,-2,-2,2,-2,0,-3,-8
117440017279,-42,16,3,-1,-2,-2,-6,-63
117440019081,-2,-40,-4,0,-2,-1,-1,8
117440019081,8,4,-2,-2,-3,-3,-1,16
117440031000,-6,-7,0,-1,-1,-2,0,-2
117440031000,12,-6,-1,-4,-2,-1,0,-7
117440039930,29,17,0,0,0,0,2,39
117440039930,-5,-3,-3,-1,-1,-2,-5,-33
117440054462,7,-14,-5,-2,1,-1,0,5
117440054462,18,8,1,1,1,1,3,22
