timestamp,emg1,emg2,emg3,emg4,emg5,emg6,emg7,emg8
115774481115,-2,-2,-3,0,1,-2,-1,-1
115774481115,-2,-2,-2,-1,-2,-1,0,0
115774481773,2,9,0,-1,-1,-1,-1,-2
115774481773,-2,-11,-2,-3,-2,-1,-1,-4
115774482553,3,10,2,-1,-2,0,0,6
115774482553,-5,1,0,-1,0,1,0,-11
115774484281,4,9,2,0,0,0,-1,0
115774484281,-4,-1,0,1,0,0,-1,0
115774486564,3,-4,-1,0,-1,-2,-1,1
115774486564,7,3,-2,-1,-3,-4,-2,1
115774495058,-3,-5,-1,-1,-4,-3,-3,-2
115774495058,-1,3,-2,-1,-2,-2,-1,-1
115774509241,-1,-3,0,-2,-2,-1,-1,0
115774509241,-3,-2,0,1,3,-2,-2,1
115774517233,-2,-7,-2,1,0,-2,-2,-3
115774517233,-3,-4,-3,0,-1,-1,-2,-2
115774523585,-7,-23,-6,-1,-2,0,0,-3
115774523585,-17,-9,-6,-4,-4,-1,-1,-2
115774538476,4,-5,-1,-1,-1,0,1,7
115774538476,9,9,0,1,0,-3,-1,-3
115774547437,0,12,1,-1,-1,-1,-2,-3
115774547437,-5,-2,-1,-2,-1,1,-1,-1
115774562360,7,3,-1,-1,-2,0,0,2
115774562360,4,0,0,-3,-2,-1,-1,9
115774601778,0,1,0,0,1,-1,1,-1
115774601778,1,-2,-3,-3,0,-1,-1,1
115774602600,1,-1,-1,0,0,0,-1,-2
115774602600,0,4,0,-1,-1,-1,-1,0
115774603384,-9,-20,-3,-1,-1,-1,-1,2
115774603384,1,0,2,2,1,-1,0,0
115774605810,-2,-3,-1,-1,0,-3,-4,0
115774605810,0,1,0,-3,0,0,-1,-2
115774614868,-2,2,-2,-2,-2,-2,-1,0
115774614868,-8,-12,-3,0,-2,-2,0,-3
115774620833,5,10,4,1,0,0,1,1
115774620833,0,-4,-1,2,-1,-2,-1,1
115774629850,-8,-12,-3,0,0,-1,-2,-3
115774629850,-2,-3,1,-2,-2,0,-3,-6
115774643361,-2,-2,-4,-3,-3,0,-2,-2
115774643361,6,-1,-3,-1,-3,0,-1,6
115774652303,-9,3,-2,-2,1,-1,-1,-11
115774652303,-5,-11,-5,-1,-1,-2,0,-3
115774658294,-1,-3,-2,0,-1,0,-2,2
115774658294,0,0,2,-2,-2,-4,-3,0
115774674769,12,-2,-2,0,0,2,0,4
115774674769,9,12,-1,-4,-2,-2,-4,-1
115774680826,-3,2,-1,-3,-1,-1,-1,-5
115774680826,-5,-7,-1,1,-1,0,1,-1
115774689812,16,14,2,-1,-3,-1,-3,-3
115774689812,-2,1,0,0,-1,0,-2,0
115774703311,-7,-3,-5,0,-3,-2,-1,0
115774703311,0,1,-2,-2,-1,-1,-2,-5
115774712338,-5,1,-2,0,-2,-1,-1,-2
115774712338,-3,2,0,-1,0,-2,1,1
115774718386,4,-19,-3,-3,-1,-2,-1,5
115774718386,-4,-4,-1,-1,-1,0,-1,-9
115774734892,-1,3,3,-1,-2,1,0,-9
115774734892,-4,-4,-3,-2,-1,0,-3,2
115774740910,0,2,2,1,1,-3,2,1
115774740910,11,3,1,-1,0,0,-1,1
115774749840,1,1,0,-3,-1,-1,0,4
115774749840,4,6,0,-2,-2,-1,-1,-3
115774763348,-5,-3,1,1,0,1,0,-2
115774763348,-4,2,-2,-5,-1,-1,-1,-2
115774772312,-6,-9,-5,-3,-2,-1,-3,-2
115774772312,-10,-18,-3,0,-2,0,-2,1
115774778386,-7,-1,2,1,1,-1,-2,-5
115774778386,26,14,2,2,0,-2,0,-2
115774794872,0,3,0,0,-1,-2,-1,0
115774794872,4,4,-3,-4,-2,-2,-1,2
115774800853,0,4,2,-1,0,-2,-3,-4
115774800853,-11,-3,-5,-2,-3,0,-3,-6
115774809829,-1,1,0,1,-1,-1,-1,5
115774809829,3,4,0,1,0,0,-1,1
115774823371,-2,3,-3,-2,1,1,1,-3
115774823371,-9,-1,-3,-2,-1,-1,-1,4
115774832586,-2,-3,1,0,0,-2,-1,-1
115774832586,-2,2,-3,-1,-2,-1,-2,2
115774838356,-2,-6,-5,-1,-3,-3,-3,-1
115774838356,-9,-7,0,0,-1,-1,-1,-1
115774854882,-6,-8,0,-2,0,1,0,-3
115774854882,-5,4,2,-1,1,-1,-2,-12
115774860989,-9,-24,-7,-3,-2,-4,-4,-1
115774860989,-1,1,0,-1,1,0,0,2
115774869871,-2,4,-3,-4,-1,-2,-2,-2
115774869871,-2,2,1,-1,1,1,1,-2
115774883646,7,5,-1,-2,-1,0,0,11
115774883646,-5,-4,0,0,0,-1,-1,-14
115774892417,3,-4,-2,0,-3,-1,-3,0
115774892417,4,9,2,0,1,1,0,3
115774898465,4,6,1,-2,0,-3,0,-3
115774898465,-7,-4,-2,-1,-1,0,-2,-3
115774914908,6,8,-1,-3,-4,-1,-2,4
115774914908,-8,-4,1,-1,0,0,-1,-2
115774920951,5,0,-2,0,-1,0,1,-4
115774920951,0,-2,-1,0,-2,0,0,3
115774929917,3,5,-1,-2,-1,0,0,-2
115774929917,-13,-11,-4,-1,-1,-1,1,-8
115774943404,1,1,0,-1,-2,-1,0,-2
115774943404,-9,-1,-2,-1,2,0,0,2
115774952456,13,7,4,1,0,0,1,7
115774952456,9,4,-3,-1,-3,-5,-2,-11
115774966064,-1,2,0,0,0,1,-1,-2
115774966064,0,-1,-2,0,-1,-1,-2,2
115774974886,-1,-7,0,1,-1,1,-2,0
115774974886,9,9,3,1,1,-2,-1,5
115774980881,-5,-4,0,-1,0,-2,-1,-3
115774980881,2,-5,-2,-1,-1,-3,-1,0
115774989917,5,0,1,1,0,-2,1,-3
115774989917,-4,-13,-3,0,-1,-2,-1,1
115775003375,-3,3,-2,-2,-3,0,-2,-4
115775003375,-2,-1,2,-1,1,0,0,3
115775012429,-9,-4,-4,0,1,-1,-1,-2
115775012429,3,5,-2,-10,-2,0,1,0
115775026165,-1,-3,0,0,-5,-1,-2,-2
115775026165,-2,-4,1,4,-3,-3,-2,-1
115775034977,-14,-3,-1,-8,1,1,-1,-2
115775034977,6,-2,4,17,1,0,-1,2
115775040931,0,0,-3,3,1,-1,-4,1
115775040931,-1,0,-8,-15,-1,-2,-1,-2
115775049957,-8,-5,-3,-4,-1,-3,-1,-3
115775049957,-3,-2,-2,16,-2,-1,1,1
115775063406,0,0,-5,-45,-5,-2,-1,-1
115775063406,-10,-6,1,22,5,-2,-2,-1
115775072359,-1,-1,-3,-12,1,-1,0,-3
115775072359,1,11,7,21,2,1,-3,2
115775085940,-6,-6,-17,-77,-15,-8,-4,-5
115775085940,1,1,-1,28,3,4,1,0
115775094948,-1,-3,-2,-28,2,-1,-3,0
115775094948,-3,-2,0,23,0,-2,-3,-1
115775100956,-1,2,7,17,2,3,0,1
115775100956,0,1,-1,-13,-1,-2,0,0
115775109943,0,1,1,14,-4,0,0,0
115775109943,-2,-3,-1,-10,-2,-1,-1,-3
115775123419,-2,2,5,22,1,2,0,0
115775123419,10,-4,-4,-9,-2,-2,-2,-1
115775132437,-1,2,4,21,4,0,-3,-1
115775132437,-4,-5,-6,-14,-4,0,-1,1
115775145901,2,2,4,-16,5,3,4,2
115775145901,-4,0,1,-4,0,-1,-2,-1
115775155009,-1,-5,-5,3,-8,-4,-1,-4
115775155009,-3,-3,-4,5,-2,-4,-4,-1
115775161001,-1,1,4,14,4,1,-2,-1
115775161001,-1,3,-1,-10,-6,-3,-2,-3
115775177364,-4,-12,-5,-7,-3,1,-3,-2
115775177364,1,-2,-1,-33,-3,-1,-2,-2
115775183470,0,-6,3,52,4,-1,-4,-1
115775183470,3,-2,-6,-6,-5,0,2,-4
115775192356,-9,0,2,24,0,-2,0,4
115775192356,-5,-7,-4,-30,-9,-3,-1,-6
115775205966,1,1,-4,13,-2,-1,-1,-1
115775205966,2,0,0,-16,-6,-1,2,4
115775214912,2,16,3,-3,9,7,3,1
115775214912,5,-12,-2,-9,0,-5,-1,-4
115775220920,-5,2,-1,-6,-8,-3,0,-2
115775220920,2,-3,1,13,-3,-4,-6,-19
115775237410,3,7,0,5,2,-2,-1,14
115775237410,-10,1,-2,-2,-11,-1,-5,-3
115775243558,1,-8,-5,12,3,-1,-1,3
115775243558,4,6,4,-14,2,1,5,10
115775252367,-4,-8,-2,15,-2,-1,-7,-4
115775252367,0,3,-2,-14,-4,1,6,-5
115775265897,0,-3,-4,7,-2,-8,-3,-7
115775265897,-5,-1,2,14,7,14,-1,6
115775274895,4,2,-5,-21,-12,-10,3,-6
115775274895,-8,-6,-4,-1,0,6,-3,-3
115775280969,11,7,3,14,-1,-7,1,7
115775280969,1,-1,-1,-5,-5,-2,-2,-5
115775296145,4,12,2,-16,7,8,-1,-15
115775296145,6,-4,1,5,5,-7,-3,0
115775303411,4,1,3,10,-2,-7,-15,-18
115775303411,-14,-3,0,-6,-9,-3,7,14
115775312381,-3,-10,-4,3,-6,1,-5,11
115775312381,-4,2,-2,5,4,-4,-3,9
115775326092,-3,-5,-2,-11,10,-1,-6,19
115775326092,-5,4,-2,23,5,16,3,-13
115775334911,0,-2,-3,-43,-13,-5,-1,-7
115775334911,1,-2,-3,12,8,7,9,13
115775340941,0,0,1,-4,-7,1,-23,-9
115775340941,4,-4,0,3,5,-1,15,-2
115775355989,-6,-5,-1,21,-4,1,-1,2
115775355989,7,6,0,2,2,-5,-16,-11
115775363613,2,2,0,-22,-4,-7,18,0
115775363613,-3,-6,-2,-9,8,24,-8,-10
115775372410,14,1,3,-7,-3,3,2,3
115775372410,25,11,0,2,-5,-1,4,75
115775385946,-9,-5,-3,0,0,-19,-11,-50
115775385946,-2,-4,-5,-12,-3,6,5,18
115775402962,-10,-6,-7,-10,-17,-30,6,-13
115775402962,4,3,0,13,18,39,0,-5
115775403856,-8,4,3,-4,-2,-19,-5,8
115775403856,0,-5,-3,-18,-6,12,-29,3
115775416020,9,-5,0,5,-10,-37,6,-24
115775416020,11,-2,1,-5,0,16,13,47
115775423662,-2,4,-6,-22,13,18,15,9
115775423662,-4,-1,5,34,9,5,0,-15
115775432383,0,-1,-1,-15,4,3,-21,6
115775432383,-10,-5,1,-2,-10,-7,3,-37
115775445902,-10,-9,-13,-19,-26,-24,-6,-9
115775445902,0,4,-1,1,-10,-70,-6,10
115775454877,-1,0,-3,-1,1,39,5,0
115775454877,-8,-11,2,18,16,29,-3,-24
115775461107,4,-1,0,9,12,-4,-2,-9
115775461107,-9,-4,-6,-28,-16,-24,-32,-22
115775475983,4,-5,-3,0,4,23,29,10
115775475983,-24,-1,-2,-15,-18,-28,-10,-28
115775483629,-22,-1,3,12,1,16,2,1
115775483629,4,-1,-3,6,6,4,-1,-2
115775492423,1,2,4,-17,-6,-7,-18,4
115775492423,7,0,0,-6,11,-17,8,23
115775505828,12,1,3,9,-13,3,3,-4
115775505828,1,0,2,-12,3,13,7,20
115775514885,-13,-5,4,19,10,-12,-11,5
115775514885,-3,-1,-5,15,-6,-4,10,-29
115775520822,-2,-3,-6,-14,-11,37,6,7
115775520822,1,-4,4,5,-3,-16,-8,-7
115775535905,1,-1,3,-9,15,11,3,-15
115775535905,-5,-9,-2,-20,-14,-21,-9,10
115775543416,2,-3,0,31,9,18,11,-5
115775543416,7,7,1,-15,1,6,10,16
115775552385,-9,-3,-1,1,2,-21,-8,-3
115775552385,-9,-3,-3,-6,-7,-4,-5,-10
115775565916,9,5,2,-12,2,5,-6,23
115775565916,-2,-1,1,0,4,10,18,-10
115775574876,-3,1,-1,24,-1,-9,-13,3
115775574876,14,6,-3,-21,2,-4,-1,-9
115775589233,-18,-6,-3,12,4,14,-2,7
115775589233,0,4,2,12,-1,-14,0,0
115775596039,-3,-11,-5,13,-1,-1,-2,-2
115775596039,-7,-1,1,13,-5,1,-8,-15
115775612327,6,3,5,-6,24,-1,-1,5
115775612327,-3,-2,-2,-10,-15,4,4,-13
115775613837,-8,0,-6,20,5,6,0,8
115775613837,-4,-4,-2,-8,-1,-1,-1,-9
115775626130,10,8,1,-22,-4,-13,-3,-1
115775626130,-8,-8,-4,32,2,-4,-4,15
115775634927,3,4,1,-15,-1,16,6,-3
115775634927,-2,-3,-6,10,-1,-8,2,7
115775649252,-2,0,1,-15,17,1,2,4
115775649252,6,-1,-9,8,-6,6,-7,-15
115775655901,-8,-2,0,-29,-30,-10,8,6
115775655901,-1,3,-2,14,7,-16,-23,0
115775672327,-29,-9,-3,-10,-8,-8,2,-20
115775672327,-3,2,2,-2,4,2,2,-12
115775673883,11,7,1,-13,10,2,-2,5
115775673883,-2,-3,-3,0,-18,1,5,5
115775685883,4,-1,-4,-17,-14,-4,-7,6
115775685883,0,-3,1,55,18,-1,2,5
115775694936,-3,-3,-2,9,5,1,2,-1
115775694936,-1,4,7,-29,-14,4,-2,-1
115775709259,-14,-5,-3,40,-4,-15,-7,-10
115775709259,-6,-1,-4,-37,-17,-4,-4,-4
115775715946,13,4,-4,7,6,11,1,1
115775715946,0,0,5,11,10,2,5,-3
115775739931,-1,-6,-6,-46,-25,-17,-1,-1
115775739931,-3,-2,3,5,-5,-8,-5,-10
115775741396,-5,-3,-5,-37,-8,7,1,4
115775741396,-6,-4,-1,22,19,-7,-12,-14
115775745906,12,5,5,-7,-28,-3,2,1
115775745906,5,7,-2,11,17,6,3,1
115775754834,1,-1,-4,-28,-21,-13,-5,-3
115775754834,-3,-2,0,-4,-7,1,2,-5
115775769065,6,4,2,29,15,15,7,8
115775769065,17,8,-3,-36,-1,1,1,16
115775776011,-23,-7,-6,6,-2,-8,-10,-37
115775776011,8,5,-1,9,14,7,6,4
115775792299,2,1,5,-3,7,5,-2,1
115775792299,-8,-5,-3,-21,-14,-8,-2,-7
115775794042,-5,-4,0,55,20,0,-1,3
115775794042,-5,-6,-2,-5,-8,-1,-3,-7
115775805886,18,5,2,-55,-4,0,0,5
115775805886,-5,-7,-5,42,-7,0,-2,4
115775814964,-4,-7,-10,12,13,1,-1,-1
115775814964,1,3,4,-26,-19,-1,3,-3
115775829136,-1,0,2,48,7,4,-1,5
115775829136,-9,-5,2,-41,-7,-8,-6,-16
115775835912,12,5,1,9,9,1,1,19
115775835912,1,-4,-2,15,6,2,1,7
115775852244,-7,-4,-9,7,-5,-4,0,-4
115775852244,-2,-3,-6,1,-11,-3,-4,-4
115775853859,0,2,2,-24,-14,1,3,-2
115775853859,3,1,5,-18,9,3,1,5
115775865935,-4,-4,-9,21,14,0,-1,2
115775865935,3,-2,16,19,5,-5,-4,-5
115775874796,2,1,9,33,-2,-3,-2,-3
115775874796,0,1,-5,-50,-19,-7,-5,-2
115775889343,-4,-4,-5,0,0,1,3,-3
115775889343,-5,1,-1,-8,-1,-1,-2,4
115775896129,10,-4,0,9,18,0,0,3
115775896129,-1,-1,-2,15,-6,-2,-1,1
115775919702,-2,-1,-3,8,-24,-10,-3,-2
115775919702,2,0,-4,-8,5,6,0,4
115775921321,-2,1,3,2,-3,-1,-4,2
115775921321,-4,1,-3,-12,-7,-1,-1,-5
115775925855,5,-1,-1,-6,7,-1,-1,-2
115775925855,-6,-3,-3,-6,-8,0,0,-1
115775941153,-3,-1,0,-5,-4,-4,-3,-6
115775941153,-2,-3,-2,-4,-9,-3,1,1
115775949259,-1,3,-32,-30,11,-2,-2,-3
115775949259,-5,-10,6,78,18,6,1,0
115775955971,-1,-4,-11,-86,-32,-11,-4,-4
115775955971,-1,-4,8,30,5,0,-1,-1
115775972273,0,0,1,-20,-5,-3,-2,1
115775972273,0,5,-8,-17,2,0,0,-3
115775973834,-11,0,-1,56,18,7,1,-4
115775973834,4,1,-7,-11,-24,-5,-2,-1
115775985916,0,-2,3,-6,-1,1,-1,-5
115775985916,-7,-11,-3,-29,-3,0,-1,0
115776001086,-2,-1,7,20,4,1,-2,-5
115776001086,-10,-2,-5,-12,8,-1,-1,-3
115776009201,5,-1,5,29,5,-1,-1,1
115776009201,2,6,5,-16,-3,-4,-1,0
115776015856,-1,-4,-10,-12,4,0,3,3
115776015856,-5,-2,-3,11,6,-3,-5,0
115776032292,-4,-1,6,2,-5,0,-2,-1
115776032292,2,-4,-7,-11,0,-3,-3,2
115776033871,13,22,-7,-13,-13,-7,-3,-4
115776033871,-18,-16,-5,0,8,9,6,-3
115776046045,2,-7,11,23,3,2,-5,-1
115776046045,-18,4,-48,-25,-12,-7,-9,-19
115776054857,1,-1,36,26,13,7,6,-1
115776054857,-12,-10,7,-25,-5,-3,-1,2
115776069175,6,-1,6,2,5,3,3,3
115776069175,-5,5,8,15,-8,-2,0,12
115776075942,-2,-4,0,7,-6,-7,-6,-15
115776075942,-6,20,-16,23,4,-7,-5,-9
115776092255,4,-6,13,0,0,2,2,1
115776092255,-5,-21,44,7,13,13,13,17
115776093813,7,-3,-5,-21,-11,-7,-7,1
115776093813,13,17,-6,21,-2,-9,-11,10
115776105965,1,2,-46,-32,-15,-6,-1,-19
115776105965,33,5,-42,12,5,-1,3,47
115776114933,-32,-1,63,3,-8,0,5,-19
115776114933,15,8,-35,-10,2,0,-8,-6
115776129233,-23,-4,0,-1,-1,-3,-4,12
115776129233,-7,-9,7,-5,8,8,2,-23
115776135956,-19,-4,-21,-10,-4,-4,-2,50
115776135956,-3,8,-9,-5,-3,-8,2,-20
115776152318,-20,4,-13,2,0,-1,0,26
115776152318,25,1,10,-1,-3,-2,-2,27
115776153909,-36,-6,-28,-9,3,5,2,-49
115776153909,-13,-13,10,30,-4,-2,1,-15
115776165937,6,-1,14,-56,-6,-6,0,9
115776165937,33,25,-5,13,-7,13,14,58
115776174919,34,4,-4,19,6,-20,-21,32
115776174919,5,-14,3,21,19,13,5,5
115776189050,-10,0,16,61,12,10,12,-23
115776189050,-2,-5,-16,-90,-18,-13,-18,-24
115776195958,26,7,-1,2,5,1,4,-10
115776195958,-2,-10,7,-21,-8,-3,-6,-24
115776211644,-4,-9,-3,36,14,-19,-6,8
115776211644,-19,2,7,15,24,37,21,-33
115776218396,7,-5,-8,-27,-17,4,-9,-15
115776218396,-13,-5,11,-11,0,-5,-3,-34
115776234784,30,12,9,-43,-12,15,2,-25
115776234784,2,-8,-2,10,-3,-19,-17,-32
115776236369,-5,-12,-10,-11,-19,-28,-6,15
115776236369,5,2,8,3,14,15,7,50
115776249053,21,11,14,-11,4,14,2,-24
115776249053,-6,-9,-2,7,-7,-12,-7,-1
115776255863,-3,-9,-10,-10,8,13,7,7
115776255863,6,2,-2,-14,-21,-11,-2,-4
115776271737,-4,-2,4,20,7,-2,-4,7
115776271737,-28,-6,-2,2,-13,3,-7,-2
115776278515,-8,-1,-9,3,-9,-2,0,-14
115776278515,4,-1,2,26,8,-8,7,16
115776285908,-2,-2,-10,-60,-14,-7,-9,10
115776285908,-9,3,8,13,0,-11,-1,-9
115776294901,-2,-3,-4,15,-1,0,0,-3
115776294901,-5,-12,0,-23,-10,8,-1,2
115776309127,10,-1,0,27,-2,-1,0,10
115776309127,-1,8,-3,-17,-9,-16,-5,-14
115776316078,-9,-8,2,12,6,5,3,3
115776316078,0,-5,-1,-20,-1,5,-1,4
115776331606,-12,-1,-5,2,-5,-9,-4,-4
115776331606,0,1,1,2,1,-5,-5,-8
115776338532,6,-5,0,12,12,8,6,-3
115776338532,-20,-5,-9,-9,-6,-4,-3,2
115776354933,6,-2,0,24,-3,-6,-1,-7
115776354933,-3,-3,5,5,7,0,-1,1
115776356404,-1,5,0,-3,2,-1,-1,-7
115776356404,6,-1,2,7,3,-2,2,7
115776369072,-10,-4,-5,-21,-14,-8,-4,-5
115776369072,-3,-2,1,-7,4,4,3,-4
115776375860,-1,-3,-6,-17,2,3,0,-1
115776375860,6,4,0,-11,-18,-1,-1,-1
115776391763,-31,-9,1,-2,2,-3,-4,5
115776391763,20,4,3,4,-7,-2,1,-3
115776398583,0,2,1,11,-6,-1,-5,2
115776398583,8,2,1,-28,14,1,2,-1
115776414760,-8,-5,-7,28,-10,-3,-2,-1
115776414760,-8,-5,-3,7,4,-4,-3,-1
115776416405,0,3,0,-15,-3,1,3,-1
115776416405,0,3,3,7,-1,0,-2,0
115776429283,4,-1,1,12,5,-4,-4,-2
115776429283,-9,-6,7,-5,2,0,1,-3
115776435943,16,6,-2,5,-2,2,0,7
115776435943,-3,1,3,-10,-6,-4,-2,-1
115776451608,4,-4,1,-7,3,5,0,5
115776451608,9,4,0,-6,6,-1,-1,-6
115776458472,-7,-4,-6,-7,-10,2,-1,-3
115776458472,4,2,6,14,-1,-4,-3,4
115776474924,-1,-1,-1,21,18,2,1,-3
115776474924,-7,0,2,18,1,-1,-6,0
115776476376,0,-1,1,-23,4,-4,-2,0
115776476376,4,-1,-1,8,0,-1,-2,-8
115776489102,0,-1,0,-4,-6,-1,1,5
115776489102,-7,-1,-6,-23,-12,5,1,-1
115776496100,5,1,-1,14,10,-6,-4,1
115776496100,0,-2,-5,12,5,2,-1,-1
115776511631,-3,-2,-5,-15,-17,-3,-2,-4
115776511631,-4,-2,-2,10,2,0,1,-6
115776518382,-5,-3,-1,6,5,1,3,6
115776518382,3,-1,-2,-38,-11,-3,1,2
115776534727,3,2,-1,0,-9,-4,-5,-2
115776534727,2,-6,-6,14,7,-3,1,-1
115776536308,3,3,-2,4,3,1,-3,2
115776536308,-5,-2,2,2,0,2,-4,-8
115776548615,2,-4,-5,2,-3,-1,-4,0
115776548615,-10,-4,-2,-23,-7,-5,-6,-6
115776557360,-7,-11,3,5,2,0,0,-3
115776557360,2,0,-9,13,4,-1,2,2
115776571801,-5,2,9,-12,-21,0,3,2
115776571801,-3,-3,-2,1,12,3,2,3
115776578411,15,11,-27,-1,9,0,-2,-1
115776578411,1,-4,20,-28,-15,-1,-1,-1
115776602249,3,-2,3,10,16,-3,-3,-4
115776602249,-2,0,-3,-22,-17,-3,-2,-1
115776603836,-4,-3,-6,24,5,0,-5,-4
115776603836,1,-1,-10,-8,2,4,-1,3
115776608430,1,5,1,4,13,7,0,6
115776608430,8,2,6,-4,-10,-5,-2,-1
115776617383,-10,-5,8,-17,-7,3,2,-3
115776617383,-5,-10,-6,11,3,-3,-4,-8
115776631870,-8,-6,-2,12,3,-5,-3,1
115776631870,-7,0,-4,12,6,2,4,3
115776638485,3,-3,7,-15,-10,0,1,-1
115776638485,7,9,3,28,21,2,1,-1
115776654751,2,2,-12,-11,-2,-1,1,-1
115776654751,-6,-4,6,-8,-7,-1,-2,0
115776656358,-9,-1,5,20,4,-3,-5,-5
115776656358,4,8,-22,-9,-18,-8,-3,2
115776668403,2,-4,10,6,19,4,3,2
115776668403,6,5,1,-6,-8,-10,0,-2
115776677383,-1,-6,6,-29,-8,-1,-3,-3
115776677383,-1,-3,-5,16,4,0,-1,-4
115776691597,-6,-3,-3,12,0,-6,-3,-4
115776691597,4,8,-3,2,-12,-5,-4,-3
115776698602,-6,-6,-1,-4,-9,0,3,3
115776698602,3,1,5,-8,5,2,4,4
115776722465,3,0,-5,2,-6,-1,-1,-6
115776722465,-5,-4,3,9,7,0,-3,-3
115776723865,5,4,-3,-14,-4,-5,-1,-4
115776723865,-31,-16,-1,-12,-3,-1,-2,1
115776728604,17,5,1,-1,7,4,4,3
115776728604,-2,-4,-8,3,-11,-3,-3,-2
115776737390,1,3,3,10,3,8,8,3
115776737390,-1,1,4,-5,0,-3,-2,-1
115776751611,-5,-1,-1,-4,-4,-3,-1,-7
115776751611,-1,-6,-4,3,-1,-1,-1,5
115776758567,-1,-1,-3,-18,-8,-3,3,-2
115776758567,6,2,5,37,17,-2,1,7
115776774899,-3,-2,-3,-16,-8,-1,-5,3
115776774899,3,1,-5,-12,1,0,2,-5
115776776298,-4,-1,0,5,-1,-2,-4,-13
115776776298,2,0,1,14,0,-2,1,6
115776788504,-3,-4,-5,-7,-1,-2,2,6
115776788504,-3,-2,5,1,1,3,-5,-12
115776797386,-1,1,-1,-1,0,0,0,0
115776797386,0,-1,1,-8,-3,0,-4,-8
115776811991,-5,-5,-9,-2,-13,-6,-5,-4
115776811991,0,0,0,-1,5,-2,-4,3
115776818438,-20,-5,-4,-2,-6,-4,-1,2
115776818438,3,5,0,1,-5,-3,-6,-13
115776835136,5,12,3,4,-1,0,1,-9
115776835136,-1,-7,-4,-5,2,0,3,11
115776836759,0,-2,-3,1,4,-2,-1,1
115776836759,-4,-1,-2,-9,-6,-4,-3,-4
115776848592,0,2,-1,-17,-7,-4,0,-6
115776848592,-3,-1,1,15,12,16,7,3
115776857390,5,-1,0,8,-4,-1,-3,3
115776857390,-7,-2,-6,-18,-3,-2,-7,-14
115776871671,-4,-8,-3,-1,5,-3,-9,1
115776871671,3,2,3,-9,-8,-13,2,1
115776878446,-3,-5,0,13,0,6,-1,-8
115776878446,-2,-3,0,-1,4,4,-1,0
115776894793,3,2,-5,-11,-8,-5,-3,-7
115776894793,-17,-10,-4,2,1,-6,-3,7
115776896515,9,9,3,-4,-2,-1,-1,0
115776896515,1,-15,-2,6,0,-3,5,23
115776908387,-3,-1,4,-1,1,6,2,0
115776908387,0,2,-1,-11,-1,-2,1,-3
115776917436,8,5,-1,7,-3,-3,-4,0
115776917436,-3,-3,0,-11,-4,0,2,-2
115776931635,-7,-3,0,3,2,-10,2,-4
115776931635,-3,0,-1,-4,3,6,-3,-3
115776938476,-4,-5,-3,6,-2,2,-3,6
115776938476,3,1,-2,0,0,3,2,-6
115776954892,-5,-4,0,-7,-5,-11,-5,-6
115776954892,13,1,0,2,-6,4,1,0
115776956398,5,0,0,-1,6,-6,-2,-4
115776956398,-9,-1,-1,5,-6,0,1,-2
115776968387,1,1,0,7,4,10,4,5
115776968387,-4,-4,-5,-27,-13,-9,-5,1
115776977379,-20,-2,0,1,3,-2,-5,-22
115776977379,1,-3,-3,2,-2,7,9,6
115776991819,-2,-2,-1,-3,-1,3,-7,4
115776991819,-3,8,4,3,5,-5,-1,-3
115776998401,-13,-21,-5,-3,-2,7,5,8
115776998401,4,1,-1,-6,-4,-13,-4,-4
115777014793,5,-1,0,4,0,1,-4,17
115777014793,1,-1,-3,2,-2,4,-1,-6
115777016432,3,5,-1,-13,-1,-17,-5,4
115777016432,0,1,0,3,2,8,3,1
115777028531,-3,-7,-4,-13,-2,8,2,3
115777028531,8,-3,-1,15,0,-11,-10,-13
115777044952,7,2,0,-7,-1,-2,2,21
115777044952,2,-2,-2,0,2,-1,-3,-6
115777051626,1,2,-1,-2,-5,8,4,-6
115777051626,-8,-3,-4,-20,-5,-4,-1,7
115777058677,-7,-1,-2,18,-3,3,-7,-9
115777058677,5,-1,-4,10,-2,-8,0,1
115777074896,-6,-5,0,-15,-3,0,-5,6
115777074896,11,8,-1,10,4,-6,-7,17
115777076359,-3,-5,-4,-12,0,6,11,6
115777076359,-20,-4,-1,-3,-3,2,-2,-3
115777088441,-2,-2,1,10,-1,1,2,-10
115777088441,-1,-1,1,5,-5,-2,-3,-14
115777097340,27,9,-1,-11,-3,-7,-5,16
115777097340,-3,-1,1,8,-2,-2,-4,2
115777111838,-9,0,-3,0,-1,-3,1,-36
115777111838,-8,-2,2,2,1,9,1,3
115777118399,4,2,2,6,-1,-3,-2,-6
115777118399,-5,-7,1,5,4,-6,-10,-11
115777134067,2,1,-4,-11,-3,-6,5,6
115777134067,6,-1,0,-3,-2,4,5,9
115777141147,-10,-2,0,-4,-3,-1,-4,-26
115777141147,9,1,1,1,2,-2,-2,36
115777148525,-8,-3,0,11,0,-4,0,-11
115777148525,-5,-4,-4,7,-3,12,4,4
115777157405,-8,-3,0,-1,0,-13,-4,-1
115777157405,2,-11,-7,10,2,3,-4,-18
115777171657,10,5,1,10,-3,3,2,-2
115777171657,12,0,-1,-3,-1,2,2,-11
115777178436,-7,-5,0,-10,-7,-7,-5,0
115777178436,3,7,-2,-13,0,8,3,-1
115777194266,2,-2,0,-2,3,-2,-4,30
115777194266,-12,-11,-5,6,4,-8,-6,-9
115777200902,11,1,-4,-10,-4,-1,0,2
115777200902,2,2,1,1,3,-2,-4,-8
115777208579,-4,3,5,-6,-7,5,5,-12
115777208579,0,-4,-5,-1,-1,-16,-6,18
115777217456,-2,0,2,-2,-3,7,0,-8
115777217456,-1,1,-2,-7,-3,-2,2,33
115777231569,9,0,2,12,5,1,-2,8
115777231569,3,4,3,6,8,-3,-1,-8
115777238602,-8,-3,-4,-6,-9,6,5,-2
115777238602,-6,-3,-4,-5,-10,-5,-5,1
115777254012,-12,2,0,7,2,-3,-3,-12
115777254012,2,16,-3,-21,-13,-9,-7,-12
115777260991,-18,1,2,6,0,-2,2,6
115777260991,-5,2,0,-3,6,14,-3,-1
115777268350,-8,-7,-1,2,-5,-5,-1,6
115777268350,9,-1,1,9,3,5,5,-8
115777277425,13,-5,-4,-32,-12,-5,-7,31
115777277425,1,5,5,-10,-1,-10,2,-48
115777291653,-9,-5,0,0,-1,-1,-2,-2
115777291653,11,4,-1,19,1,5,1,2
115777298348,-5,-4,-3,-11,1,-1,-4,-13
115777298348,-3,-3,-1,2,-1,-1,0,6
115777314096,-3,-9,-3,-3,-2,-5,-5,7
115777314096,7,2,-2,6,2,2,2,-5
115777320840,-14,-12,0,9,1,0,0,-13
115777320840,6,4,-3,-10,-2,-2,-4,-5
115777337155,3,-1,-1,3,-1,-3,-2,-3
115777337155,-8,-7,-2,-14,-3,-2,-1,11
115777338726,12,14,0,10,8,4,0,-34
115777338726,2,-2,-2,3,-4,-3,-1,1
115777351669,2,-7,-4,-6,0,-1,0,4
115777351669,-5,4,1,-5,-4,1,-1,-3
115777358621,-7,2,-3,6,1,1,0,-11
115777358621,0,4,-2,-4,-4,-5,-4,-10
115777374376,3,6,-2,1,2,-3,-1,3
115777374376,-15,-23,-4,-7,-2,0,-1,-4
115777380880,3,-6,-6,2,1,-1,-4,-5
115777380880,3,0,0,0,-3,-3,2,5
115777397381,2,1,-2,-3,1,2,-2,-35
115777397381,-9,-12,-1,0,2,2,1,3
115777399020,4,1,0,-14,-9,0,-1,31
115777399020,1,-2,3,4,1,1,3,-11
115777411744,6,-9,1,-8,-1,-3,-4,15
115777411744,7,4,1,0,-3,-3,0,-3
115777418384,13,3,9,25,10,-5,-2,8
115777418384,0,-2,-5,-3,-5,-6,-2,23
115777434075,20,0,0,1,-1,-4,2,1
115777434075,1,11,6,5,0,-6,-4,1
115777440853,-26,-4,7,11,1,-4,2,-3
115777440853,-14,4,-7,-1,-6,-4,-1,-5
115777457246,-18,-3,-2,-5,-1,-2,-1,-11
115777457246,-17,-13,-9,-4,-2,1,2,1
115777458907,6,-3,-8,-6,-2,0,1,3
115777458907,9,-4,0,-5,-1,2,0,19
115777471565,-7,12,-4,-4,-3,2,2,1
115777471565,1,5,-2,-11,0,0,-4,-12
115777478353,-3,-2,-4,-7,-3,-1,2,9
115777478353,11,-3,4,15,4,-1,1,-7
115777494043,4,22,-5,-6,-3,1,-3,5
115777494043,-10,7,2,0,0,2,-1,2
115777500829,8,-4,-1,-1,-6,1,-3,31
115777500829,1,-1,0,-13,-1,0,-2,-18
115777517200,5,-12,-2,-12,-3,-2,-1,11
115777517200,11,1,4,4,0,0,1,-5
115777518818,-5,-2,0,2,2,1,-1,-6
115777518818,-15,-2,1,-20,-3,0,2,7
115777530798,-4,-20,-5,8,-3,-3,-4,-32
115777530798,-5,2,6,8,-2,-4,-3,-8
115777539821,5,-5,-9,6,2,-2,0,-10
115777539821,7,-8,-3,-4,-2,-3,0,-5
115777554024,7,10,7,3,4,0,2,-9
115777554024,2,-4,2,-10,-5,-1,-2,12
115777560783,-13,14,-1,-1,-2,1,1,-11
115777560783,-9,-8,-8,-4,0,-2,-3,-13
115777577177,6,-7,-7,-2,1,-1,-1,22
115777577177,-15,-17,-10,-1,-2,-1,0,-2
115777578787,-9,0,2,3,1,-2,-3,-11
115777578787,-3,2,-6,-1,-9,-2,-3,-53
115777590847,-3,0,0,-11,-6,-2,-3,9
115777590847,2,1,0,3,2,1,1,7
115777599795,-20,-7,-8,-7,4,0,-2,-22
115777599795,-8,-3,1,9,-7,-1,-6,-15
115777613979,12,-4,-10,-4,-3,-4,-5,49
115777613979,-1,-23,-4,0,-5,0,-1,-7
115777620807,-20,-10,2,-6,2,1,-3,-3
115777620807,49,12,-1,7,1,0,1,50
115777636949,-14,0,4,-5,-4,0,-1,-15
115777636949,0,-1,-11,-18,-5,-3,-4,-7
115777643327,12,-8,-5,4,-1,-4,-4,-18
115777643327,39,-5,1,0,1,-1,2,6
115777650788,-4,-5,1,8,0,-3,1,3
115777650788,13,-8,2,2,0,0,0,58
115777659784,10,17,2,1,-1,2,2,-36
115777659784,-21,-5,1,-2,0,-1,-2,-7
115777674064,-28,-21,-3,3,3,-2,-4,-2
115777674064,12,19,2,4,1,1,-3,-56
115777688342,16,-2,-1,-2,-3,-1,0,37
115777688342,-32,-1,1,1,0,1,0,-62
115777697245,4,9,-1,1,-1,0,0,-12
115777697245,-17,-7,-5,-2,-2,-3,-1,-6
115777698819,3,0,0,-6,-3,-3,-1,-5
115777698819,-10,5,3,5,2,-3,0,15
115777710881,12,6,3,0,3,2,1,19
115777710881,-22,1,0,3,1,0,0,-42
115777719818,4,1,-2,-11,-4,-1,0,16
115777719818,-24,13,2,0,2,1,-2,16
115777734083,-4,10,1,1,-2,1,-2,-13
115777734083,7,2,1,-1,-2,-3,-2,11
115777740833,-39,-8,-4,-2,-1,-3,-6,8
115777740833,-6,-3,-3,-2,-3,-1,-1,5
115777757160,-16,-3,0,-2,-2,0,1,-21
115777757160,-11,9,3,1,2,0,-1,1
115777758848,17,7,-1,2,-2,-2,0,12
115777758848,17,-5,-2,-6,-2,-1,-2,-8
115777779014,-8,1,2,3,1,-1,-2,-10
115777779014,1,-9,-5,-9,-5,-4,-3,2
115777779812,-3,-9,3,-1,0,0,1,14
115777779812,-1,-15,-5,0,1,0,2,4
115777794869,26,8,-2,1,0,-1,2,17
115777794869,11,10,-3,-2,-2,0,2,-11
115777800841,-1,-18,-4,1,-1,-3,-3,-18
115777800841,-5,3,-2,1,3,1,-1,11
115777816501,-5,2,0,-1,-1,-1,-1,-12
115777816501,-3,6,0,-1,-2,0,-2,-24
115777817312,1,2,-3,-3,-4,0,-1,13
115777817312,-6,-16,-2,0,1,-1,-1,4
115777839009,-1,-6,-1,-4,-2,-1,-3,-8
115777839009,-1,-5,1,6,1,1,3,-7
115777839803,-3,-1,1,3,-1,0,2,-1
115777839803,17,7,-2,1,-1,-2,-1,-50
115777854909,-16,-1,-4,-3,1,1,0,-7
115777854909,-2,6,-3,-6,0,-5,-3,11
115777860820,-6,0,0,-2,1,-1,1,1
115777860820,7,-5,-6,-4,-2,-3,-1,13
115777883998,16,1,5,-1,-1,0,0,0
115777883998,-3,3,1,1,-1,-1,-2,0
115777884805,0,1,-3,-3,-1,0,-3,-4
115777884805,-3,-13,-1,-1,-2,-2,-4,18
115777898967,-10,-3,-1,0,-3,-3,-1,-14
115777898967,-6,-3,0,-3,-1,0,-2,-22
115777899757,13,-4,-3,-2,-2,-1,-1,-7
115777899757,-3,9,4,-2,-2,-1,-1,-2
115777914878,13,-11,-5,1,-1,-2,1,9
115777914878,32,21,4,3,3,0,-2,2
115777920788,1,-2,-5,-1,0,-2,-1,-3
115777920788,0,6,4,3,-2,2,-1,7
115777936465,-16,-6,-6,-4,-2,-1,-2,-26
115777936465,-16,-9,-3,-2,0,-1,-2,17
115777937311,4,-2,1,-3,-1,-1,-1,9
115777937311,-2,12,-2,2,-2,1,-2,3
115777958982,-20,0,1,0,-2,-1,-3,20
115777958982,-2,-8,-6,-2,-3,-1,-1,11
115777959779,2,-5,1,-2,-3,-2,-5,0
115777959779,11,0,3,3,0,0,1,-9
115777974819,-6,-1,-1,-1,-2,-2,-3,-12
115777974819,4,3,3,-2,-1,-2,1,-10
115777980801,-6,-3,-1,-1,0,-1,1,-1
115777980801,-6,-1,-2,-3,0,-1,0,4
115777996475,-2,-3,-2,-1,0,-1,-2,4
115777996475,-1,-8,-1,1,-1,0,0,11
115777997241,27,13,5,1,0,0,-1,33
115777997241,-17,-4,-1,-2,-2,-1,1,2
115778012378,9,3,1,-1,0,-1,-1,-3
115778012378,7,-10,-8,-4,-2,-2,1,18
115778018349,26,11,0,-2,-1,-1,1,18
115778018349,-22,-10,-3,0,1,0,0,-11
115778034861,4,-3,1,1,-3,0,1,-4
115778034861,-2,5,-2,0,-5,-4,-2,13
115778040831,-32,-4,2,0,-1,-1,1,-56
115778040831,-15,-5,-1,-5,0,-2,-4,9
115778056493,6,7,0,0,1,-1,-2,2
115778056493,-20,-10,-1,1,1,-1,-2,10
115778057301,7,6,-2,1,-1,-3,-1,-5
115778057301,-4,2,-4,-6,-2,-1,-3,-2
115778072322,-7,-9,-3,1,-1,0,-2,-9
115778072322,-8,-2,1,-2,1,3,1,-4
115778078325,16,22,5,2,-2,0,-2,-12
115778078325,7,-3,-4,-3,-2,-2,-1,25
115778094900,0,2,-1,-2,-1,-1,0,5
115778094900,-2,-3,-1,-1,0,0,-3,-3
115778100964,11,-6,-3,-3,-1,-2,-1,27
115778100964,10,5,2,-3,0,-2,1,7
115778115847,9,6,-1,0,0,-1,-2,-1
115778115847,8,10,-3,-3,-1,-4,-2,32
115778123344,-9,-6,1,1,-2,0,-2,-20
115778123344,0,-1,-3,1,-3,-1,-2,6
115778132579,0,7,-2,-2,-4,-3,-3,-4
115778132579,1,-8,-2,1,0,-1,1,-6
115778138500,0,-16,-6,0,0,-2,0,10
115778138500,-2,8,1,-2,-1,-1,1,-5
115778154938,-1,3,3,0,1,-1,1,1
115778154938,-4,-3,0,-1,-1,-1,-2,-19
115778160884,-16,-4,-8,-4,0,-1,-1,-16
115778160884,-2,1,0,-1,-1,-1,-1,-8
115778175917,2,-6,-4,-2,-1,-2,1,-2
115778175917,0,-2,2,-2,-2,-1,-3,-5
115778183415,-5,8,0,0,0,-3,-1,-5
115778183415,-3,-8,-1,-1,-1,-2,0,0
115778192452,6,-3,-2,-1,0,0,-3,9
115778192452,-14,-9,-2,0,-1,0,0,-11
115778198401,-4,-5,-2,-2,-4,1,-3,12
115778198401,15,12,-2,-1,-3,-3,-4,1
115778215026,0,-3,0,1,-1,-1,-3,-23
115778215026,-2,15,2,-2,-2,-1,-1,-1
115778220863,-15,-15,-2,0,-1,-1,-2,-17
115778220863,6,-8,0,0,0,-1,-2,21
115778235901,-3,5,-1,1,1,0,0,-1
115778235901,8,-4,-1,-2,-2,-1,-1,7
115778243407,-22,-5,-2,0,-1,0,-2,-35
115778243407,1,-1,0,-1,-3,-2,0,-2
115778252344,6,-4,-3,-3,-2,0,-1,1
115778252344,-9,-2,0,-1,-1,-1,-1,-12
115778258501,-4,-1,-3,-4,-4,-1,-3,43
115778258501,-2,-7,-3,0,0,1,-1,2
115778274976,-4,2,1,0,-1,-1,1,4
115778274976,-1,-1,-5,-6,-5,-2,-2,-9
115778280987,-2,5,-1,-1,1,-2,-1,-12
115778280987,-21,-13,-3,-1,-2,0,-1,-8
115778295792,-2,6,2,0,-1,-1,-1,-2
115778295792,13,5,2,-1,-1,0,0,17
115778303381,-9,-5,2,0,-1,1,0,-22
115778303381,3,0,-1,-3,0,-1,-1,-6
115778318942,5,-2,-4,-2,2,-3,-1,-11
115778318942,-3,-16,-2,2,2,-3,0,-5
115778319714,13,11,5,0,2,0,2,5
115778319714,-1,5,-1,1,0,-2,-3,-11
115778334844,-8,-10,-4,-2,0,0,-2,-21
115778334844,3,-2,-2,0,-2,0,-1,5
115778340846,-5,6,1,1,0,-1,-1,-7
115778340846,-2,5,0,1,-2,-1,-1,4
115778355811,-2,-2,-2,-2,-3,-2,0,8
115778355811,-14,-17,-2,-2,2,1,0,-3
115778371597,1,0,-1,-2,-2,-2,0,-2
115778371597,0,-1,1,-1,-2,-1,1,-4
115778379115,8,2,-3,-3,-2,-2,-1,10
115778379115,-4,-2,-3,0,-3,-3,-3,13
115778379855,4,-7,-2,-1,-1,-1,0,7
115778379855,-1,-7,-4,-1,-3,0,-3,-1
115778394830,-13,-33,-3,-3,-1,-2,-1,1
115778394830,11,-3,-3,0,0,-4,-1,1
115778400884,2,-4,-2,-1,-1,-2,0,6
115778400884,0,-1,-1,-2,-2,-1,1,-3
115778416095,10,3,0,2,1,-1,-2,19
115778416095,-4,-3,2,-1,0,2,1,-8
115778423594,-4,-4,-2,1,-1,-1,-1,-2
115778423594,1,6,4,-1,-1,1,0,16
115778439099,0,-1,-1,-3,-2,-1,-2,3
115778439099,3,10,-3,-2,-1,-3,0,-9
115778439990,7,-3,-1,-2,-1,-1,-2,10
115778439990,-13,-2,-1,-1,-1,-1,1,-11
115778454863,-7,10,2,0,0,-1,-2,-3
115778454863,1,14,-1,-3,-3,-3,-5,-3
115778461094,-2,-1,-4,2,-1,1,0,-2
115778461094,-6,-7,-3,-4,0,-2,-2,-12
115778477435,0,6,-1,-3,-1,0,-1,-2
115778477435,5,2,-1,0,-1,1,-2,-14
115778483573,4,3,1,-2,-1,-2,0,2
115778483573,4,3,-2,-1,-1,-1,-3,1
115778499092,-17,-16,-5,-1,-1,-5,-2,-11
115778499092,2,6,6,3,0,0,-1,2
115778499806,2,-3,-3,0,-1,-3,-1,2
115778499806,10,-10,0,-1,-1,-3,0,8
115778513344,-4,-3,-3,0,0,0,0,0
115778513344,-19,-15,-4,-2,0,0,1,-5
115778520817,5,-1,1,-3,-4,-3,-2,-2
115778520817,3,-9,1,1,1,1,-1,-7
115778535863,19,5,3,3,-1,0,-1,3
115778535863,-3,6,0,-1,-1,0,3,-1
115778543559,-11,-10,-5,-2,1,-1,-3,-2
115778543559,-4,6,0,-5,-5,-2,1,-4
115778559132,2,0,-2,-1,-2,-2,-2,-16
115778559132,12,4,-1,-2,1,0,-2,4
115778559931,-2,-5,-2,-1,-1,0,-1,-3
115778559931,11,9,-2,0,0,1,-1,10
115778573514,-11,-1,1,1,0,1,0,3
115778573514,-11,-5,-1,-5,-4,-2,-2,-3
115778581111,12,0,-2,-1,-2,0,-2,-3
115778581111,3,8,1,3,1,-1,-1,6
115778595904,-10,8,1,-4,-5,-4,-3,-4
115778595904,7,-9,-5,-1,-3,-2,1,7
115778603412,-2,-6,0,0,-1,-2,-1,-3
115778603412,-5,5,-2,0,0,-3,-1,-9
115778618942,6,1,-2,-3,-3,-1,0,10
115778618942,-4,8,1,-1,-2,-3,-4,-7
115778619772,-5,3,-2,0,-2,-1,-1,2
115778619772,-11,-7,-1,0,-1,-1,-1,-14
115778633335,0,3,-2,-3,-1,-2,0,4
115778633335,10,-1,1,0,1,0,-1,-28
115778640983,-6,0,0,-1,-1,-1,-1,-2
115778640983,-11,-16,-5,-1,0,-2,-3,-13
115778655944,25,-11,1,-1,0,1,-2,12
115778655944,-5,-4,0,3,-2,0,2,4
115778663603,-1,9,-1,-3,-3,-4,-2,0
115778663603,7,-18,-4,-3,-4,-4,-3,-14
115778679292,1,6,-1,0,0,1,-3,11
115778679292,-2,-3,-3,-2,-1,0,-4,3
115778679846,-8,-16,1,-2,-1,-1,-1,0
115778679846,-3,-2,-3,-3,-1,0,-1,2
115778693460,-8,-2,-3,0,0,-2,-1,-9
115778693460,-3,-2,0,1,-2,-2,-1,2
115778700884,-4,3,-1,0,0,0,1,0
115778700884,9,12,3,-1,-1,0,-1,14
115778716183,-6,-7,0,0,0,1,0,-10
115778716183,0,-7,-2,-2,-3,-2,0,1
115778723392,6,6,3,-1,-1,-1,-1,26
115778723392,-12,-4,-2,1,0,1,1,-16
115778739124,-7,-2,-2,-1,-1,-1,0,4
115778739124,1,9,-3,-4,-1,-2,0,-1
115778739891,4,13,3,-1,-1,0,0,0
115778739891,4,6,-1,-1,0,-1,-1,4
115778753340,-2,6,0,4,3,0,0,-4
115778753340,0,5,-2,-2,-2,-3,0,-2
115778760935,8,-4,-7,-2,-1,-2,0,-2
115778760935,-9,2,2,-1,0,0,-1,-4
115778776056,-7,-3,-1,1,-3,-1,1,-6
115778776056,18,-1,-1,-2,-3,0,-2,5
115778783538,1,1,-1,0,-3,-2,-1,-5
115778783538,3,-2,-1,-1,-1,-3,-2,3
115778799116,-3,-4,-1,-1,0,-1,1,-2
115778799116,-20,-11,-4,0,1,-1,-3,1
115778799893,-4,0,0,-3,-1,-1,-2,-7
115778799893,1,13,0,1,0,-1,-1,2
115778814838,-4,-12,0,-5,-5,-1,-1,5
115778814838,-8,0,2,0,1,0,1,17
115778820839,1,4,0,0,0,-2,-2,-7
115778820839,-16,-3,-3,-1,-2,-2,-2,6
115778835861,-9,0,-2,-1,-2,-1,1,-6
115778835861,4,-6,-4,0,0,0,0,2
115778843479,-4,1,-1,-1,-2,-1,-2,-23
115778843479,21,1,-1,-2,-3,-1,0,18
115778859088,0,3,0,-3,-1,-2,-1,0
115778859088,7,-3,0,1,1,1,-3,-3
115778859983,-13,-13,-6,-2,-1,0,-1,-9
115778859983,4,-6,-4,-2,-1,0,-1,-4
115778874915,-23,-7,-4,-5,-2,-2,-2,-13
115778874915,4,1,1,-2,-1,-2,1,3
115778881083,13,6,3,0,1,0,-1,6
115778881083,-12,-7,-1,1,0,0,-2,0
115778896078,-5,4,1,-1,0,-1,-2,2
115778896078,-10,-3,1,1,1,-2,-2,-9
115778903552,-3,-2,0,-2,0,-1,0,1
115778903552,-3,-4,-1,-3,-2,-4,1,-6
115778918986,8,1,0,-1,-1,-3,0,-2
115778918986,-4,1,1,-2,-1,-1,-3,-6
115778919779,-7,-17,-6,-2,-1,-2,-1,4
115778919779,6,7,0,-1,-2,-1,0,0
