timestamp,emg1,emg2,emg3,emg4,emg5,emg6,emg7,emg8
59381284389,5,-1,-1,-3,-3,-1,0,1
59381284389,-5,-4,1,-1,2,0,-1,-1
59381285197,0,-3,-1,0,-3,-1,1,-1
59381285197,-2,1,0,-2,0,-1,-1,-1
59381298065,3,-2,-1,-2,0,0,-2,-1
59381298065,-1,-1,0,-1,-2,-2,-1,1
59381305974,-2,-3,-3,-2,0,-1,-1,-2
59381305974,-1,2,0,-3,-1,-2,-1,-1
59381321972,1,4,1,1,-1,-1,0,-2
59381321972,0,-2,0,-1,-4,0,-4,0
59381322727,-1,-2,-2,-1,0,-2,-3,1
59381322727,-1,-2,-2,0,2,-1,0,-2
59381344384,1,2,1,-1,0,-1,0,0
59381344384,-2,-1,-1,-4,0,-1,0,-4
59381345192,0,-2,-1,-2,-1,-1,-2,0
59381345192,-3,-1,-4,-2,-2,-3,0,0
59381358047,1,1,1,1,-1,1,-1,0
59381358047,-1,-2,0,-1,-4,0,-1,-1
59381366239,-1,-1,1,-1,-1,0,-1,1
59381366239,-2,-1,-2,-1,-1,-1,0,-3
59381381879,1,2,0,-2,-2,-1,-1,-1
59381381879,-2,-1,-1,-1,-2,-2,-1,1
59381382663,-1,-1,0,-2,0,-1,1,1
59381382663,0,-1,0,-1,-1,-1,-2,-1
59381404381,-2,0,-3,-2,-3,-1,-2,-1
59381404381,-2,-5,-1,0,1,-2,-3,-2
59381405197,-1,1,1,-2,-3,-2,-1,-2
59381405197,-1,1,-2,1,-2,-1,-3,-1
59381426887,1,-3,-2,-3,-2,-1,-1,0
59381426887,-1,-1,-1,0,0,-1,-1,-1
59381427635,-15,-4,-4,-1,-2,-1,0,-2
59381427635,-2,-3,-1,-3,1,1,-1,1
59381441925,-2,2,-1,2,1,-1,-3,0
59381441925,1,3,-2,-1,-1,0,-1,-1
59381442725,0,-2,-1,-1,-3,0,-1,0
59381442725,2,-1,1,0,-2,0,-1,-2
59381464403,-1,-2,1,-2,0,0,-1,0
59381464403,-3,-1,-3,-1,-1,-2,-1,-1
59381465183,1,-3,1,-1,-1,-2,0,-1
59381465183,-1,-1,-2,0,-3,-2,-1,-2
59381486941,-1,1,1,0,-2,-2,-3,0
59381486941,-2,-2,1,-1,-3,-1,-1,-1
59381487724,0,3,0,-1,-1,-1,-2,-1
59381487724,-2,0,-2,-1,0,-2,-2,-1
59381509392,3,0,-2,-2,-2,0,0,-2
59381509392,2,-1,-3,-3,-2,1,-2,2
59381510193,-2,0,-2,0,2,-1,-1,-1
59381510193,-8,-4,-2,-3,-1,-2,-2,1
59381531894,-1,2,1,-1,-2,0,0,0
59381531894,2,1,-4,0,0,-2,-2,0
59381533498,-2,-19,0,-1,0,0,-1,-5
59381533498,1,-1,0,0,-1,0,-2,0
59381546893,-3,1,0,0,0,-1,-1,-2
59381546893,0,0,-1,0,-3,-1,-1,-1
59381548541,1,6,0,1,0,-1,0,1
59381548541,-1,1,1,0,-2,-2,-1,-1
59381560545,-2,-5,-2,0,-1,-2,-2,2
59381560545,0,-1,-1,-1,1,0,0,-2
59381569595,2,2,-2,-1,-1,0,0,-3
59381569595,3,0,1,-1,1,-1,-2,-1
59381584145,0,-2,-1,1,-1,-1,-2,1
59381584145,-2,-1,-1,0,-2,-2,-2,0
59381590541,0,2,-4,0,-3,-3,-1,0
59381590541,1,0,-2,-2,-1,-1,0,-1
59381606921,-5,-7,-2,-3,-1,-1,-3,-1
59381606921,0,1,-3,-2,0,-1,-1,-1
59381608508,-2,2,-2,-1,-2,-1,0,-2
59381608508,-3,-3,-2,-2,-3,-3,-1,-1
59381620566,4,-1,-2,0,-1,-1,-2,0
59381620566,-2,0,1,0,-2,-1,-1,-2
59381629540,-3,-14,-2,-1,-1,-1,-4,-1
59381629540,1,-1,-3,-1,0,1,1,-2
59381644430,13,10,3,0,-1,0,1,0
59381644430,-1,-3,-1,-2,0,-1,1,-1
59381646041,2,2,-1,-2,-2,-1,0,0
59381646041,-3,-4,0,-2,-1,-1,0,-1
59381674383,-5,-5,-3,-2,-2,-2,-2,-1
59381674383,-1,3,-1,-4,0,0,-1,-3
59381676007,1,2,-2,-1,-2,-2,-1,0
59381676007,-1,-2,1,-3,-2,0,-3,-1
59381681237,-6,-1,-1,-1,-1,-2,0,0
59381681237,-1,-1,-2,0,-1,-1,1,0
59381688106,-2,-2,-2,0,-1,0,-1,0
59381688106,2,-2,0,0,-1,-2,0,-1
59381704405,-3,-3,-4,0,-4,-2,-1,-3
59381704405,-1,-1,0,-1,-1,-1,-1,0
59381705996,1,-1,0,-3,0,-1,-1,-1
59381705996,0,5,-1,1,0,2,-2,-3
59381734374,-4,-5,0,-1,1,0,0,-2
59381734374,2,4,0,-3,-1,-2,-3,0
59381736014,-6,-8,-1,-2,-2,0,1,-1
59381736014,-3,1,-2,-1,-2,0,0,0
59381741262,1,0,0,0,0,1,-1,0
59381741262,-6,-3,1,0,-1,1,-2,-2
59381748039,2,5,1,0,4,1,-4,3
59381748039,-5,0,-2,0,-2,-1,-1,2
59381764414,-3,-6,-2,-2,-3,-1,0,-2
59381764414,-2,1,-1,0,-2,0,2,0
59381766009,2,1,1,-2,0,-2,-1,1
59381766009,1,-4,-1,-1,1,-1,-2,-5
59381786939,-1,-3,-1,-1,0,-2,0,-1
59381786939,4,8,-3,0,-2,0,0,0
59381788538,-3,2,-1,1,-2,0,-1,-3
59381788538,1,5,-2,0,-3,-1,-2,2
59381801272,-3,-5,-1,-2,-2,0,-1,-2
59381801272,2,1,-1,-2,-3,-1,-1,-1
59381808042,-3,-1,-2,-1,0,-3,0,-1
59381808042,3,-3,-3,0,-1,-1,-2,0
59381824407,-1,2,-1,-3,1,0,-2,-2
59381824407,-5,-8,-2,0,0,-1,-1,-3
59381826034,-1,1,0,-2,-2,-1,1,0
59381826034,-4,-3,-1,-2,0,-1,-1,-2
59381846887,-5,-1,-4,0,-1,-2,-2,-1
59381846887,2,1,-1,-2,1,-1,-1,-2
59381848506,-2,-3,0,-1,-3,-1,0,0
59381848506,-1,-2,0,-1,-1,0,-1,-1
59381861258,1,1,-2,-2,-1,-2,-2,-1
59381861258,-3,-4,-3,0,0,0,-2,-2
59381868046,1,3,-2,1,-2,-1,0,-1
59381868046,-2,2,-2,0,-3,-1,0,-1
59381884404,-7,-10,0,0,-1,-1,0,-2
59381884404,-2,-5,-2,0,-2,0,-2,0
59381886079,-2,-3,-2,0,0,-1,-2,0
59381886079,-4,0,-1,1,0,-1,0,-1
59381906887,5,5,-1,-2,-1,-1,0,-1
59381906887,3,-4,-1,-1,-3,-3,-2,-1
59381908493,-4,-4,-2,-5,0,-2,-2,1
59381908493,1,-4,-2,-3,1,-2,-2,0
59381920570,10,12,1,2,-1,0,2,0
59381920570,0,-3,-2,-3,-1,0,-2,0
59381937087,-1,2,-2,0,-2,0,-2,-4
59381937087,1,-2,0,0,-1,-1,-2,0
59381951915,-3,-3,-5,-3,-2,-4,-1,-2
59381951915,-2,1,1,0,0,0,-1,-2
59381953502,1,-1,0,-1,-1,-1,-1,0
59381953502,-3,-4,-2,0,-2,0,-3,-2
59381966952,-4,-4,-1,-2,-2,0,1,-2
59381966952,-2,-2,-1,1,-3,-1,1,-1
59381968489,-3,-1,-5,-3,-2,-1,-1,-1
59381968489,-2,0,0,-3,-2,0,1,-2
59381989440,2,-2,-2,-1,-2,0,-4,0
59381989440,-2,1,-1,1,0,-2,0,0
59381991055,5,10,2,0,0,0,-1,-3
59381991055,-4,-4,-4,-2,-1,-3,0,-1
59382004406,4,4,-1,0,0,-1,-1,0
59382004406,-4,-4,-1,-1,-1,0,-3,-2
59382006038,-1,0,-1,0,-3,1,0,-2
59382006038,2,-1,2,0,0,2,1,-2
59382026902,-3,-5,-5,0,0,-1,-1,-1
59382026902,-1,-1,-2,-1,-1,-1,-2,-1
59382028551,-3,-1,-3,-2,0,-1,-1,-1
59382028551,1,-1,-2,-2,-2,-1,-2,0
59382040582,-1,1,0,-1,-1,-2,1,-5
59382040582,0,0,-1,-1,-1,-1,-1,-1
59382049533,-3,-3,-1,0,-2,-2,-1,-1
59382049533,-1,-3,0,-2,-1,-2,1,1
59382064380,11,9,2,1,-1,-1,-2,2
59382064380,-3,-4,-1,-2,0,0,-1,-2
59382066000,-1,-2,-1,-1,0,-1,-2,1
59382066000,8,0,-1,3,0,-2,-2,-2
59382086909,-6,-4,-1,-1,-1,0,-2,0
59382086909,-1,1,0,-3,-1,-2,1,0
59382088542,-5,-5,1,-2,0,-2,-3,-2
59382088542,-2,1,-2,1,-2,0,1,-1
59382100523,-7,-20,0,-2,-2,-2,-4,1
59382100523,-1,4,0,1,-1,-2,-1,-2
59382109591,3,0,-1,-2,-1,0,0,0
59382109591,-4,2,-1,-3,0,-1,0,0
59382124388,-3,-1,-1,-1,0,-1,-3,-4
59382124388,1,-1,-2,-1,-3,1,-1,-3
59382126007,-3,-2,-1,-2,-1,-2,-2,-3
59382126007,-2,0,0,0,-1,0,-1,-2
59382147454,-4,0,-1,-1,-2,-2,1,0
59382147454,-4,-5,-1,0,-1,-3,-2,0
59382149019,1,2,-2,0,0,0,-1,1
59382149019,5,-5,-4,-2,-1,-2,-2,-3
59382160563,-6,1,-1,-2,-2,-1,-1,-3
59382160563,-1,-1,-1,-1,-1,0,0,-2
59382169539,0,-2,-1,0,-3,-2,-1,-2
59382169539,-1,2,0,-1,0,-2,-1,1
59382184408,-1,-1,-1,-1,-1,1,-2,-4
59382184408,-2,1,2,0,0,-3,-2,-1
59382186040,10,9,-2,-1,2,-1,-2,0
59382186040,4,0,0,-1,0,0,0,0
59382206842,-5,2,-2,-2,-1,-1,0,-2
59382206842,3,-1,-2,1,0,0,-3,0
59382208485,-1,-1,0,1,0,-1,-1,-2
59382208485,-8,-3,-1,-2,0,-3,-2,-2
59382229413,2,1,-1,0,0,0,2,0
59382229413,-3,-3,-1,-4,-3,-2,0,-1
59382231085,-1,-9,-3,0,-2,-2,0,-2
59382231085,-4,-3,-1,-1,-2,-1,-3,-1
59382244443,-5,-4,-2,-2,1,-2,-1,0
59382244443,2,1,-1,-2,-1,-1,0,1
59382246005,-3,-3,-1,-3,-3,-2,0,-4
59382246005,-5,-1,-2,-2,-1,-2,-2,-2
59382266927,0,2,0,-1,-1,-2,2,-2
59382266927,-3,-1,0,-1,-1,0,-1,1
59382268603,-1,-4,-3,-3,0,-2,1,-1
59382268603,-3,-4,-2,0,-3,-2,-1,-1
59382280524,0,0,-1,-2,-3,-1,-1,0
59382280524,1,-2,-3,-2,-1,0,-1,-1
59382289560,-7,-4,2,1,-2,0,-1,-3
59382289560,-1,0,0,0,-2,0,0,1
59382304403,-1,-2,-2,-1,1,-1,-2,-1
59382304403,-1,5,0,1,-1,0,-1,-3
59382306037,-3,-8,-1,-1,-2,-1,-1,0
59382306037,-3,-3,-2,-2,0,1,-2,-1
59382326882,-5,0,0,-3,1,-1,-1,2
59382326882,-8,-2,2,1,0,-2,-2,-1
59382328507,-2,-1,-3,-2,-1,-1,-1,-2
59382328507,-11,-5,-3,-2,0,-2,-2,-4
59382349412,-6,-7,-2,-2,-2,0,-1,-1
59382349412,2,-1,-1,-2,1,-1,-1,1
59382351031,-3,1,-1,0,-2,0,0,-2
59382351031,-3,-1,0,-2,-1,-1,-1,0
59382364361,2,2,-3,-1,-1,-2,0,-3
59382364361,3,-1,-1,-3,-2,-1,-1,0
59382366001,-4,0,-3,-1,0,0,-2,0
59382366001,5,5,-1,0,-1,-1,-1,-1
59382386939,0,-1,0,-2,-1,-1,0,-2
59382386939,1,0,1,0,-1,-1,-2,0
59382388533,0,-2,0,1,0,-1,0,1
59382388533,2,2,-1,0,-1,0,-2,-1
59382408517,-1,0,-1,-1,-1,0,-1,-1
59382408517,-6,-7,-4,-1,-2,-2,0,-1
59382425071,3,3,0,0,-1,-1,0,-1
59382425071,1,-2,0,-1,-2,-1,1,-1
59382425839,2,8,1,-2,0,-2,-3,-1
59382425839,-2,-8,-1,-2,-2,0,-2,-2
59382427509,-3,-1,-3,-1,-3,-2,-2,-1
59382427509,-2,0,-2,0,-1,-2,-2,1
59382446890,-1,1,0,-1,1,-1,-1,0
59382446890,-4,-7,-1,-2,-2,-1,-1,-2
59382448508,1,-2,-2,-4,-3,-1,-3,-2
59382448508,4,3,2,1,0,-3,2,-1
59382469409,-3,-4,-3,-1,-1,-3,1,-2
59382469409,-6,0,-1,-1,0,0,-1,0
59382471061,0,-3,0,-1,-1,-3,-2,-3
59382471061,-2,-1,0,-1,-1,-1,-1,-3
59382484398,-1,-5,-3,-2,-2,-1,-2,1
59382484398,3,3,0,1,-1,-2,2,-4
59382486005,-1,3,-1,0,0,0,0,0
59382486005,-1,-1,0,-2,-2,-1,-1,0
59382506935,3,7,0,1,-2,0,0,-2
59382506935,-3,-2,1,-2,1,-1,-1,1
59382508532,4,4,-1,-1,0,-2,-2,-2
59382508532,-5,-2,-1,-2,0,0,-2,-1
59382529409,-7,-3,-2,-1,-2,-2,-3,-2
59382529409,3,4,1,0,-1,-1,-2,1
59382531005,-5,-4,-1,-3,-2,-1,-1,-1
59382531005,2,-1,-2,-1,-1,-1,0,0
59382543757,-2,-3,2,-1,0,-1,-1,-1
59382543757,1,-1,-2,-1,0,-1,0,-1
59382550539,3,1,-1,-1,2,0,-2,1
59382550539,0,0,-2,-3,1,0,0,-3
59382566898,-17,-9,-1,-1,-3,0,-3,-3
59382566898,2,8,0,-3,-1,-1,-1,0
59382568482,0,2,1,2,-2,-1,3,1
59382568482,-5,-3,-1,-2,0,-1,-4,-3
59382589409,4,-1,-1,-2,2,0,0,0
59382589409,4,2,-2,0,-3,0,0,-2
59382591078,-7,-4,-2,0,-1,-2,-1,-1
59382591078,1,0,0,-1,-1,-1,0,-1
59382603750,7,0,2,3,0,-1,0,2
59382603750,-6,-7,-5,-2,-2,-1,-2,-2
59382618067,4,-2,0,-1,0,0,-2,-1
59382618067,2,-4,-1,-2,-3,0,0,-2
59382626910,3,3,-1,-1,-1,-1,-2,-2
59382626910,-3,-2,0,1,0,-1,-3,0
59382628507,-5,-6,-2,-4,-1,-2,-1,-3
59382628507,-1,-1,0,-1,-2,-2,0,-1
59382649443,-3,-1,-4,-1,-1,-1,-1,-2
59382649443,-1,-1,-1,-3,0,-2,-3,0
59382651040,1,2,-2,-1,-2,-2,0,-2
59382651040,-3,-2,1,0,0,-1,-2,-1
59382663750,-2,-2,-3,-2,-2,-2,0,-1
59382663750,1,-1,-1,0,-2,-2,-1,-2
59382670546,-14,-4,-2,-3,-1,-1,-1,-1
59382670546,0,0,0,1,-1,-1,-3,0
59382686901,-1,4,0,0,-3,-1,0,2
59382686901,-2,1,0,0,0,0,-2,-2
59382688531,2,2,2,1,1,-1,-1,-3
59382688531,0,-2,-5,-2,0,-1,-1,-2
59382709372,0,-3,-1,-3,-4,0,-2,1
59382709372,-2,-4,0,-2,-2,-2,0,0
59382711012,-2,0,-1,1,-1,1,0,1
59382711012,4,4,-1,0,-1,-1,1,1
59382723714,0,-2,-1,-3,0,-2,-1,-1
59382723714,1,-1,-2,-3,0,-2,0,-2
59382730577,-3,-4,0,0,-1,0,-1,-1
59382730577,-1,-1,-4,-1,-1,-3,-2,0
59382754510,0,-2,-2,-1,-1,-1,-2,-2
59382754510,-1,0,1,-1,-2,1,0,-2
59382755984,0,0,-3,-1,-2,-1,1,0
59382755984,-5,-1,0,-2,-2,0,0,-1
59382769377,3,2,-3,1,1,-1,1,-1
59382769377,-1,2,-4,-1,-3,-4,0,-1
59382771026,0,-1,-2,-2,0,0,-3,-2
59382771026,-1,-6,-2,-1,0,0,0,-1
59382783709,13,9,2,3,-2,-1,1,0
59382783709,-1,-6,-2,0,-2,-3,0,0
59382790594,6,4,2,-1,-3,-1,-2,-1
59382790594,0,2,-2,-1,-2,-4,-3,-1
59382807038,-5,-4,-1,-3,0,-1,-1,-1
59382807038,-1,-3,-2,0,1,-1,0,-2
59382808755,1,1,-1,2,0,0,-1,0
59382808755,-8,-4,-2,-3,1,-2,-3,-1
59382829645,-1,-2,-2,-11,-3,-2,0,-1
59382829645,-2,-2,2,-1,-2,-1,-3,-1
59382831035,-1,-1,-2,15,3,-3,1,0
59382831035,-2,0,1,-15,-9,0,-3,2
59382843303,-3,0,1,7,3,0,-2,-3
59382843303,1,1,-1,13,0,2,1,-1
59382852103,-6,-18,0,-13,-1,1,-2,1
59382852103,1,-1,-4,1,-1,-2,0,-1
59382866989,-3,-3,-1,-2,-1,-2,0,1
59382866989,1,0,-2,-2,-2,-2,-3,-3
59382868507,-2,0,-1,4,-1,-1,-2,1
59382868507,3,-4,-1,1,1,0,2,0
59382889621,6,2,2,-6,-2,0,-1,1
59382889621,-7,-3,-1,1,-1,0,-3,1
59382891052,2,1,0,-7,-2,-1,-1,-1
59382891052,-3,-2,2,-6,0,-2,-1,-1
59382911994,0,-3,-4,-1,3,1,0,-2
59382911994,5,5,5,-13,-7,-1,0,0
59382913548,9,1,-6,7,-2,-1,3,1
59382913548,2,6,-12,-3,-1,0,-3,-2
59382927116,-3,-3,5,-15,-4,-2,0,-2
59382927116,-4,1,-9,2,2,-1,-3,-3
59382928582,-4,5,5,0,-2,1,-2,-1
59382928582,-2,-1,1,14,-4,-2,0,-1
59382948610,-3,-2,-7,5,-1,-1,-2,-1
59382948610,-1,-2,2,-31,-6,-2,-2,1
59382957119,-1,3,-2,-5,1,-2,-1,-2
59382957119,-6,-5,0,9,2,1,-1,-2
59382963107,-8,-5,-3,4,0,0,-2,-1
59382963107,1,-2,4,34,3,1,0,-2
59382979670,-6,-5,-6,-41,-5,-3,-2,-1
59382979670,-1,-2,5,-1,0,-2,1,0
59382987136,-5,-9,-2,5,-2,-3,-3,-2
59382987136,3,6,-3,-18,2,-1,-1,0
59382988566,-1,1,-3,2,-3,-2,-1,-1
59382988566,0,-1,1,-2,-2,-1,-2,-5
59383009389,1,1,-2,15,4,1,-3,-1
59383009389,2,2,-3,-20,-8,-4,-1,0
59383011027,1,0,3,8,2,-2,-2,0
59383011027,-2,-3,-4,-9,-2,-1,-1,0
59383023271,1,1,1,7,0,-1,1,0
59383023271,-2,-4,1,4,1,1,-2,0
59383032094,-5,-4,-2,-18,-3,-1,-4,-2
59383032094,2,2,6,11,3,0,1,0
59383046935,-1,0,-1,-10,-2,-2,1,0
59383046935,1,-6,-3,-1,-1,-3,1,1
59383048605,-3,-3,-4,4,-2,-3,2,-1
59383048605,-3,-3,-3,-6,-7,-5,-3,-3
59383069626,1,-2,1,1,-2,7,-2,-1
59383069626,-1,-2,1,3,8,-7,-4,-2
59383071058,1,0,1,4,-5,5,-1,-3
59383071058,-1,2,-2,1,-1,-1,1,1
59383083150,-1,-2,-2,-6,-9,-6,0,0
59383083150,-4,-2,-1,9,-1,3,2,-2
59383092169,0,-2,1,3,4,-6,2,0
59383092169,-2,-1,-2,-8,6,-1,-2,0
59383106508,-7,-20,-5,11,-7,-3,-2,-4
59383106508,-3,0,-3,3,0,1,2,-1
59383113297,0,1,2,13,1,3,-1,0
59383113297,-4,-2,-3,-4,2,-1,-1,-1
59383129601,6,4,2,-1,2,-3,1,-1
59383129601,-2,-1,-3,-12,-6,-5,-2,-3
59383131087,-3,-4,0,0,0,7,-3,-2
59383131087,0,-3,0,5,0,-6,0,-1
59383143298,-3,0,-2,-17,-1,4,0,0
59383143298,-3,-1,-2,2,-2,0,-3,-3
59383152120,2,3,1,0,0,1,1,1
59383152120,2,2,0,-6,-4,-7,-3,-2
59383166556,-1,3,2,-5,0,0,-1,-1
59383166556,-1,-2,-1,0,-6,2,-1,-2
59383173299,1,5,-3,1,2,-9,-3,2
59383173299,1,2,1,8,-2,8,2,0
59383189453,1,1,-1,-2,-1,-3,-3,-1
59383189453,-2,-3,0,3,-1,-10,-1,-2
59383191032,-3,-3,-3,-2,-2,2,-6,0
59383191032,0,-2,1,-1,-2,-14,-11,0
59383203009,-1,2,0,10,9,21,10,2
59383203009,0,1,-5,1,-2,8,1,-1
59383212103,-1,-4,0,10,-1,9,2,-2
59383212103,-4,-3,-4,1,-3,-10,-3,-1
59383226244,-2,0,-1,-20,-2,-22,-5,-1
59383226244,1,0,0,11,1,-11,-5,-1
59383233122,-2,-1,1,-12,0,3,-2,1
59383233122,0,-3,-1,6,-4,5,0,-2
59383249429,-2,0,-4,8,0,3,2,-2
59383249429,-3,-4,-2,0,1,3,4,0
59383255819,2,1,1,2,1,-3,-1,-1
59383255819,-5,-17,0,-5,1,5,1,2
59383263334,-2,0,-3,-5,-10,-12,-3,-4
59383263334,-3,-2,-3,-6,-6,-1,-5,2
59383272091,-1,-3,-2,3,-2,7,6,-3
59383272091,0,3,0,2,2,11,2,-3
59383286350,-1,-1,-1,7,3,-9,-6,-1
59383286350,-1,-1,4,-9,0,-2,1,0
59383293331,0,1,0,10,-4,-2,-6,-2
59383293331,-2,4,-3,-7,-8,-1,2,-2
59383309535,-1,2,0,5,-2,-6,-9,-3
59383309535,-1,0,0,-10,0,-2,-5,0
59383311040,-2,-1,1,-4,1,-8,4,-3
59383311040,-1,0,-1,5,3,9,1,-2
59383332148,0,-2,0,-6,-5,6,3,1
59383332148,3,-1,-1,3,3,8,3,-2
59383333557,-3,-3,0,6,-1,-8,-7,-4
59383333557,-2,-1,-2,-3,3,-14,-9,-3
59383346490,-6,-20,0,0,4,8,5,1
59383346490,6,6,2,9,-6,-11,-2,1
59383353258,-2,-2,-6,-36,-4,7,0,-2
59383353258,1,1,2,-2,2,-1,-1,0
59383369641,-2,1,0,11,0,1,-4,-3
59383369641,-6,-5,-3,-15,1,11,1,-3
59383371027,-4,-3,0,10,-3,-20,-4,-1
59383371027,7,3,0,-5,-1,4,-6,1
59383392031,0,4,-1,-3,4,-5,7,0
59383392031,-4,-5,-4,0,2,10,-2,-1
59383393551,4,0,-3,-19,-3,-3,-2,-2
59383393551,-1,-1,-2,12,-1,-4,-1,-1
59383406502,-2,1,0,5,3,5,2,-3
59383406502,-3,-2,-1,-2,-4,-7,-4,0
59383413299,1,-1,0,-3,-2,-10,-7,-2
59383413299,-9,-19,-2,7,0,21,9,1
59383429689,3,2,-7,-18,-10,-17,-12,-3
59383429689,-3,0,-1,24,10,-10,0,-1
59383431053,0,1,-1,-11,-10,4,3,2
59383431053,-1,2,-1,2,6,-2,1,-4
59383451976,-3,-1,0,8,-4,5,0,0
59383451976,0,-2,-2,-5,1,10,-2,-1
59383453519,-2,-3,-2,14,-2,-10,-1,-2
59383453519,1,4,0,-6,2,-9,0,-2
59383473503,-2,-2,-1,-17,1,13,4,-1
59383473503,2,-1,-3,0,-4,-13,-4,-1
59383482114,-2,-2,-1,5,-7,2,-3,-3
59383482114,1,2,-5,-21,-8,-5,0,0
59383489636,-1,-1,-2,-4,-1,-11,-11,0
59383489636,-7,-16,-1,5,5,15,13,2
59383491108,-2,0,-2,20,6,3,-4,-4
59383491108,-2,1,-1,-4,-7,-10,-3,0
59383512101,2,2,-2,-1,2,1,2,0
59383512101,-4,1,-2,-6,-11,-10,-5,-3
59383513566,0,-1,1,9,10,9,4,-1
59383513566,-3,-1,-1,-21,-5,-8,2,0
59383525704,-3,-1,-1,19,-2,-2,-3,-1
59383525704,2,4,2,-10,-1,9,-4,0
59383534593,-4,-2,-5,-21,-4,10,8,-4
59383534593,-2,1,1,-1,-2,-6,-11,-3
59383549641,8,12,0,0,-7,-17,2,4
59383549641,1,1,2,1,2,2,-3,-6
59383551097,-2,0,-1,-10,5,0,4,4
59383551097,-2,0,-1,9,-2,4,-3,-6
59383587828,2,-2,0,-8,3,2,-4,0
59383587828,-8,-4,-6,15,0,-11,-6,-3
59383589228,4,1,0,3,-2,4,3,5
59383589228,2,2,2,26,9,9,8,1
59383590072,-3,-4,-2,-25,-3,-5,-9,-2
59383590072,-1,1,0,30,6,-1,1,-1
59383594611,-1,-5,-4,-1,-13,-9,-10,-5
59383594611,0,1,-2,-15,9,-4,4,1
59383609607,-3,-3,-2,-8,-26,6,0,0
59383609607,1,1,6,-13,4,1,5,-1
59383611063,-4,-2,-4,18,1,-1,-1,-1
59383611063,-1,-4,-6,-14,-10,0,-8,-4
59383632121,-4,-3,-4,-23,-3,-10,-2,0
59383632121,5,4,2,5,7,13,5,2
59383633573,0,-4,1,8,-2,-9,-5,1
59383633573,2,1,2,-2,8,-3,1,2
59383645822,-6,-7,-3,9,-6,4,-1,-4
59383645822,0,1,0,-15,0,-8,3,3
59383654648,0,2,0,11,-3,-1,-5,-6
59383654648,-2,-2,-4,-4,4,10,4,6
59383677146,-7,-5,-3,-27,-13,-16,-7,-4
59383677146,3,-1,-2,19,-2,-3,3,-2
59383678508,-2,0,3,-15,1,5,-3,1
59383678508,-1,-1,3,-10,-8,-1,-4,-6
59383692030,0,-1,-2,48,20,9,9,3
59383692030,1,-1,-3,-36,-17,-5,-6,-2
59383693592,-13,-12,-2,-73,-21,-11,0,-1
59383693592,-5,-3,-7,65,-4,0,-6,-1
59383705812,4,5,6,-45,-10,3,5,-2
59383705812,-3,-3,-2,44,10,0,-4,-5
59383722196,3,1,3,25,10,1,-1,-1
59383722196,-3,0,-1,-72,-7,-6,1,-3
59383729584,-4,-4,-2,31,14,0,-5,-8
59383729584,5,3,1,-19,-11,0,3,11
59383731233,-2,-3,0,-18,-11,-1,1,1
59383731233,-1,-3,-4,26,7,-5,-10,-8
59383751869,-1,1,3,19,2,2,1,1
59383751869,0,-1,2,-1,2,-9,-3,0
59383753474,0,0,-6,-33,-4,4,3,0
59383753474,-2,0,-16,46,-16,-7,-7,-3
59383765546,-1,-4,-2,25,2,1,0,-3
59383765546,-6,-2,-1,-16,16,-2,-3,-4
59383774524,2,1,-8,4,-18,-6,-5,-1
59383774524,1,-2,-3,-14,-5,3,5,-1
59383789373,-1,-1,-7,1,5,0,0,0
59383789373,4,-5,5,-2,-7,-5,-4,-2
59383790940,-1,-1,-4,44,8,-6,-1,-4
59383790940,-3,-2,3,-8,4,3,5,0
59383812391,-2,-3,-18,-6,4,1,2,1
59383812391,-8,-8,-4,-4,-6,-7,0,-10
59383813998,2,-2,-2,-6,6,-4,-2,4
59383813998,-4,-2,5,33,6,0,2,-3
59383825548,-5,-1,-29,-16,2,2,2,-3
59383825548,1,-9,41,24,-7,1,8,0
59383834585,-10,-6,-9,6,5,-3,-2,-10
59383834585,-1,-5,-8,-34,-10,-3,3,3
59383849620,0,-4,-4,-20,3,-6,4,-3
59383849620,-6,-1,-15,13,-13,2,0,-4
59383851120,2,3,-3,-1,1,-1,5,-2
59383851120,-8,-8,2,46,0,-4,2,-7
59383879563,-3,-4,13,-3,-4,-7,1,-2
59383879563,-1,-3,-34,-47,-7,8,4,2
59383881114,-6,-4,1,75,8,-4,-4,-4
59383881114,1,1,-5,-16,5,0,-5,4
59383885713,6,0,13,-4,3,3,-1,1
59383885713,-6,-4,-10,-20,-13,-13,-1,-2
59383894556,1,1,-2,-12,13,9,1,-1
59383894556,0,-1,0,14,-2,-4,0,-2
59383909604,0,-1,4,1,-3,-4,-9,-2
59383909604,5,6,5,-11,6,3,-1,5
59383911078,2,0,5,-4,-12,-2,-5,-3
59383911078,1,-2,3,-26,-5,-3,-2,-1
59383932203,3,1,5,13,3,1,-3,-3
59383932203,5,10,-6,13,-3,-3,-7,-2
59383933642,-1,-1,0,-26,1,0,3,2
59383933642,1,1,2,17,-1,-2,0,-1
59383945628,-4,-5,-4,-12,-8,-3,-1,-1
59383945628,-2,-1,-4,6,15,4,1,0
59383954621,-5,-2,-1,22,3,-1,3,-3
59383954621,4,3,4,-33,-2,0,2,0
59383968860,-1,1,-3,-11,-4,-2,-1,0
59383968860,-8,-1,2,21,2,-1,-2,-2
59383975699,2,-2,0,-51,-15,-2,-1,0
59383975699,4,-4,9,10,8,-1,0,-1
59383992003,-14,0,4,27,0,0,1,-1
59383992003,0,-1,-6,-29,-1,-1,2,-3
59383993547,-2,2,-6,8,-12,-1,-4,-1
59383993547,-6,-12,11,-30,-4,-1,0,2
59384005564,1,-10,4,-14,-4,1,2,2
59384005564,0,-5,9,31,11,-2,0,-1
59384014489,-2,-2,-8,14,2,2,4,6
59384014489,1,4,-3,-40,-9,-6,2,1
59384028860,-1,2,-1,30,2,-1,-7,-4
59384028860,-6,-5,-13,-22,-7,-1,-2,0
59384035644,0,-2,5,27,7,0,2,1
59384035644,-2,-1,-7,4,1,-1,-2,-1
59384052035,13,5,5,0,-1,1,4,0
59384052035,3,3,-7,-16,-5,-5,-4,-3
59384053532,-1,1,-1,-30,1,2,-3,-4
59384053532,-4,3,-12,29,4,-3,0,-3
59384065596,-2,-5,-4,-34,-7,-2,-2,-4
59384065596,2,1,5,-26,-9,-4,-4,0
59384090953,-1,3,-13,-9,3,-4,-4,-2
59384090953,5,4,15,10,13,8,9,2
59384091771,-6,-2,-9,3,-1,-3,-2,-2
59384091771,-1,2,-8,8,-9,0,-5,-2
59384095595,2,0,16,-31,-7,-7,-4,-1
59384095595,-1,5,-17,14,5,0,-6,-7
59384112041,-3,-13,30,-11,1,5,8,4
59384112041,-1,-4,4,11,-1,-3,-7,-4
59384113525,2,1,-1,21,1,-2,4,5
59384113525,1,4,0,-28,-21,-9,-12,-3
59384125631,-1,-3,-23,21,9,8,5,2
59384125631,-13,-12,22,-30,3,1,4,-2
59384134566,-2,-5,-6,-16,-8,2,4,0
59384134566,2,7,20,41,-3,-11,-13,-4
59384148840,8,19,-22,-6,-11,-12,-23,2
59384148840,21,-2,11,8,11,15,17,7
59384155751,-35,-19,13,12,10,2,6,-10
59384155751,7,5,6,-16,-13,-5,-4,11
59384171923,18,10,-5,-1,-8,-9,-14,26
59384171923,-2,5,-11,14,2,2,5,-14
59384173522,-6,-4,7,-3,-3,-4,8,4
59384173522,-18,-15,3,4,0,-1,10,2
59384185626,33,3,-29,10,1,-8,9,5
59384185626,-7,-6,3,-7,-11,-9,-5,-2
59384194559,8,-6,-15,7,3,-7,2,9
59384194559,-28,-9,-22,-23,0,0,6,-15
59384208888,-16,2,-8,33,4,-7,1,-12
59384208888,-4,-6,-26,-31,-13,0,0,-1
59384215575,8,14,16,-10,-4,-1,-4,7
59384215575,6,-2,1,0,3,1,-7,-5
59384231892,6,-1,17,-15,-1,6,-3,-11
59384231892,0,3,-3,22,13,9,-2,6
59384233516,1,3,-18,-18,6,3,-5,-5
59384233516,7,-1,-2,-14,-3,2,-1,0
59384254439,-8,-8,15,-3,4,3,10,-5
59384254439,3,2,-13,12,-13,-11,-10,-6
59384256033,-24,0,-13,-9,2,3,-6,-8
59384256033,-3,-8,-41,26,3,-8,3,1
59384268782,-17,-1,31,1,-1,3,1,-6
59384268782,-2,-9,-2,-26,2,9,-2,3
59384275605,37,6,19,-12,-2,-3,1,-4
59384275605,10,3,-20,33,-12,-5,-5,-6
59384291996,-20,4,10,18,8,-1,0,7
59384291996,-11,-5,-14,-33,-10,-9,-9,-2
59384293574,12,3,16,9,2,6,-1,-1
59384293574,-2,-1,18,-15,2,6,-1,-3
59384314368,12,2,-14,-15,-4,0,0,-2
59384314368,4,7,7,28,9,-1,0,1
59384315929,-11,-5,-9,21,2,-2,-3,-6
59384315929,-3,-3,-8,16,-2,-4,-4,1
59384328698,-5,-2,-8,-8,-6,1,-1,-6
59384328698,-3,3,-10,-9,-3,-3,3,-1
59384335657,-17,-7,-1,1,1,-6,-6,-5
59384335657,18,7,-3,2,7,1,2,2
59384366951,-6,-11,-9,-13,-14,2,-5,-5
59384366951,-4,-1,-2,12,5,0,2,-1
59384368507,1,0,-18,-13,-8,-2,-4,-1
59384368507,-7,-2,21,-12,6,3,4,2
59384374469,9,1,-24,-5,-4,-7,-6,-4
59384374469,-2,5,10,11,0,-4,3,0
59384376019,7,1,1,20,-1,0,0,-5
59384376019,-15,-5,-34,-30,-8,-1,-2,5
59384388133,-9,-4,19,11,6,0,1,-4
59384388133,1,-3,-7,-29,-5,-6,-5,-4
59384397046,-4,3,3,37,6,1,-1,-2
59384397046,-5,1,7,-13,-2,1,-3,-4
59384411942,-8,0,49,-31,-1,-1,2,-1
59384411942,2,7,-12,31,10,3,-1,1
59384413582,-13,-8,66,15,-5,-1,5,-1
59384413582,17,2,-1,-2,-3,-3,-2,0
59384434474,-19,-7,-6,19,8,1,2,-2
59384434474,-16,3,-7,-12,-10,-2,-4,-3
59384435987,28,2,-19,0,-1,-4,-3,-2
59384435987,-14,-2,4,6,-1,2,-1,-1
59384448227,1,-3,-20,-25,-5,-2,-4,-3
59384448227,9,-1,43,6,4,0,2,0
59384457010,-5,-1,-31,-7,-11,-4,-3,-1
59384457010,1,-3,12,7,6,0,4,0
59384471852,7,1,-33,-5,-1,4,-4,-2
59384471852,-8,-6,-2,9,-2,-13,-6,-2
59384473510,9,-1,0,-12,3,1,1,1
59384473510,1,1,-1,-21,-3,-3,-3,0
59384494691,-2,-1,11,33,-1,1,3,-1
59384494691,1,-4,-7,-15,-10,4,3,0
59384496079,-13,-2,-8,-16,0,-1,-1,0
59384496079,9,-1,-5,17,0,4,-1,0
59384517039,4,0,-9,-9,4,-6,-1,-2
59384517039,-2,-2,4,17,1,1,0,-2
59384518620,-13,-6,-19,20,-3,-7,-3,-4
59384518620,5,3,6,-10,3,1,1,0
59384532005,-7,-7,1,-26,-16,-2,1,-2
59384532005,5,-1,-5,9,-1,-3,-4,-2
59384533533,-3,-3,-2,-7,6,3,2,1
59384533533,-11,-5,-5,-2,-7,-4,-5,-2
59384554424,28,5,7,0,4,-4,0,2
59384554424,-19,-4,-9,4,-3,1,0,0
59384556011,20,4,-2,4,4,4,-2,-2
59384556011,-4,-3,1,-9,-2,-1,0,-4
59384568909,-5,-2,-11,6,1,-4,1,0
59384568909,-2,-2,-1,-2,-3,-2,-2,-2
59384575753,10,4,-1,-9,-2,-2,-3,-3
59384575753,0,0,2,-5,-2,-1,1,-1
59384592104,-7,1,0,0,-1,0,-2,-2
59384592104,3,-3,-6,1,3,-1,1,0
59384593585,-9,-3,-3,-22,-6,-1,-3,-2
59384593585,1,1,0,-18,-4,0,-2,-1
59384614424,-12,-4,-1,24,9,-3,-1,-3
59384614424,7,0,-2,-25,-20,0,-3,-1
59384616121,-3,1,-3,8,3,3,-3,-2
59384616121,-11,-1,-1,-7,-3,-7,-1,-2
59384629025,-9,-3,5,4,-1,6,3,2
59384629025,4,0,-5,-9,3,-5,-4,0
59384635709,-2,1,0,15,-3,2,-1,-2
59384635709,-1,0,0,-1,3,1,1,-4
59384652172,0,-2,-3,-24,-11,-3,-4,-4
59384652172,2,0,-1,20,3,-3,3,1
59384653595,-4,-1,-4,2,5,-1,-5,1
59384653595,-1,-4,-4,-37,-14,-2,-3,-2
59384675313,2,-1,-4,12,1,-5,-4,-3
59384675313,2,-1,0,-8,5,8,1,-1
59384676724,-14,-4,1,4,1,-2,4,2
59384676724,6,-2,3,22,4,0,-1,-1
59384696908,-1,-3,-7,-16,-9,-5,-2,0
59384696908,-3,-1,0,-4,5,0,-2,0
59384698507,-6,-1,-4,-9,-8,0,1,1
59384698507,-10,-2,0,10,3,0,1,-3
59384719424,3,3,-1,-19,-2,0,-3,0
59384719424,0,1,4,20,0,-4,-1,0
59384721038,0,-2,-4,-5,-9,-5,-4,1
59384721038,1,2,-2,-19,2,4,2,1
59384734421,-1,0,0,12,3,5,1,0
59384734421,-2,-2,-2,-18,1,-9,-4,1
59384736107,3,-2,-1,-5,-5,-4,0,-2
59384736107,0,-1,-2,11,-5,-4,-4,-2
59384748302,0,-1,0,-2,1,4,2,1
59384748302,0,-1,-1,-28,-6,-2,-2,-3
59384757081,-1,-1,-1,0,-1,-2,-6,-2
59384757081,-4,-4,0,11,3,3,1,1
59384772058,14,1,-2,30,1,-6,-4,-3
59384772058,-1,-2,-2,-1,-4,-2,-2,-5
59384773555,-3,1,-1,-11,-3,-5,0,-2
59384773555,1,0,-2,1,4,3,1,-2
59384794599,-3,-2,3,-7,1,3,1,1
59384794599,-1,-2,0,7,-10,-4,-2,-2
59384796021,0,-2,-3,3,4,0,2,-2
59384796021,17,0,-7,1,-5,-5,-5,-1
59384808055,0,-1,0,7,-2,-4,-5,-2
59384808055,0,-1,-4,10,6,2,1,0
59384824577,-1,-2,0,-16,0,1,-1,-1
59384824577,-3,-1,-1,2,0,1,2,0
59384839550,-2,-1,-1,6,0,-1,-8,-6
59384839550,-3,-1,1,5,-7,-1,0,0
59384841032,5,3,3,-6,6,5,5,4
59384841032,-2,-1,1,-2,-7,-6,-2,-3
59384854655,-4,-2,1,10,5,-3,2,0
59384854655,-5,-2,-4,-20,0,4,1,-1
59384856003,-2,-2,-1,14,1,-6,-4,-3
59384856003,0,1,4,0,-6,0,-1,-1
59384868291,-4,-4,-5,-37,-2,-3,1,-4
59384868291,-1,-2,0,26,6,1,-1,-2
59384877149,4,0,0,4,-16,-3,-1,0
59384877149,-10,-5,-3,16,15,0,1,-3
59384891231,2,0,0,-5,-12,4,1,1
59384891231,3,0,3,14,17,2,4,2
59384899639,-7,-2,-3,-9,-10,-2,-4,-4
59384899639,8,-4,-1,-1,-6,-4,-1,-3
59384921893,-5,-1,-2,6,-1,0,-1,-2
59384921893,-2,-1,-1,4,3,1,0,-2
59384923507,-1,-3,-2,4,-2,-4,0,-1
59384923507,-2,-2,-2,-16,1,1,-1,-1
59384928017,4,-2,-2,6,1,-1,0,1
59384928017,2,-2,-3,-37,-13,-5,-5,-2
59384937031,-12,-9,-2,29,7,-2,-4,-3
59384937031,1,4,2,-18,-2,-1,2,3
59384951996,-2,-1,-1,18,5,1,0,-2
59384951996,-7,0,0,-6,4,0,0,-1
59384953625,6,0,-5,-34,-11,0,1,1
59384953625,0,1,-2,-7,-4,-1,-2,1
59384974635,-2,-1,-8,-9,-5,-3,-1,0
59384974635,-1,-7,-3,3,-1,-2,-2,1
59384976052,7,7,17,19,5,2,-1,-1
59384976052,6,0,0,1,-3,0,0,-3
59384988215,8,-3,-2,-33,-3,0,0,-1
59384988215,-5,-4,-8,2,-7,-5,-7,-1
59384997106,-3,1,-24,-36,-4,-1,-1,-1
59384997106,-9,-9,-4,-8,-4,-3,-1,-3
59385011237,-5,0,2,-9,1,-3,-1,-1
59385011237,3,0,-4,46,11,0,0,-2
59385025793,-12,0,14,-34,-9,-1,-1,-4
59385025793,-13,-10,-23,-16,-8,-6,-5,-4
59385034431,5,3,-6,21,11,4,0,1
59385034431,-3,0,-7,-67,-21,-38,1,-2
59385036107,-10,-7,15,28,11,79,14,-3
59385036107,-1,9,-24,3,-27,-105,-14,1
59385048285,-15,-27,16,5,36,108,19,-2
59385048285,-5,0,0,13,-18,-106,13,-1
59385057113,13,2,-19,-13,1,7,-2,-1
59385057113,-3,11,21,24,48,-30,-29,-2
59385071493,7,5,4,-8,12,92,16,3
59385071493,9,3,-14,5,-15,-59,-21,2
59385078064,-1,-11,29,-24,-7,17,12,-3
59385078064,12,-2,-4,28,-19,28,6,3
59385094417,7,12,1,-11,-17,-45,-15,-3
59385094417,7,4,1,-11,11,74,3,1
59385096024,0,2,-20,-13,-13,-55,-15,-1
59385096024,2,1,18,-4,1,18,-2,2
59385108316,-10,-1,5,6,-5,-28,-10,-2
59385108316,-9,-2,-8,-22,-6,19,-1,-6
59385124582,5,6,-2,16,13,-16,0,2
59385124582,-2,-2,10,1,12,30,10,3
59385131337,-5,1,-9,9,-18,-34,-1,-2
59385131337,-4,-6,9,4,-2,12,-7,0
59385138316,0,1,-1,5,11,-9,-7,1
59385138316,-6,-8,-4,-30,-5,25,13,-3
59385154667,0,1,-2,10,-15,-38,-13,-5
59385154667,1,-1,6,-13,8,6,-1,-1
59385156065,0,-3,-9,18,5,7,-3,-1
59385156065,4,1,-5,-21,-5,1,3,3
59385177150,-4,-1,-3,-9,-4,-27,-2,-3
59385177150,-9,-12,5,17,1,23,-3,-3
59385178544,0,0,-9,-9,-1,-8,1,-1
59385178544,-4,0,0,7,-5,2,-2,-4
59385191266,0,3,-1,6,-2,-15,-1,-1
59385191266,-1,1,3,7,4,16,3,0
59385198152,4,-2,1,10,-2,-15,-7,0
59385198152,-2,-4,-3,5,-4,-4,-4,-2
59385214812,0,-1,-3,-3,4,2,3,3
59385214812,5,4,2,0,1,11,3,-3
59385216513,-6,-3,-6,12,-5,-10,-4,-5
59385216513,0,2,3,-2,4,8,2,-2
59385237146,-7,-1,-2,30,-8,-12,-3,-1
59385237146,3,-1,2,-42,-2,4,3,-1
59385238593,0,-2,-1,2,2,-3,-4,0
59385238593,-5,-1,-2,-16,1,6,0,-3
59385251522,9,6,-2,6,-5,-12,0,-1
59385251522,-2,-3,-3,26,5,11,-3,-1
59385258322,0,1,5,1,1,-15,-2,1
59385258322,0,-1,-1,-8,0,8,2,-1
59385274493,1,-3,-4,-24,-7,-4,-4,0
59385274493,0,2,-3,12,-3,-4,-2,-3
59385276085,7,8,0,0,1,9,7,2
59385276085,-4,-7,-1,4,-7,-6,-3,-2
59385296896,-2,-1,-6,-39,-3,1,-1,2
59385296896,-2,-2,-1,18,0,2,-4,-3
59385298573,-2,1,2,2,-6,-6,-3,-1
59385298573,8,-3,-2,14,2,4,2,-1
59385311238,10,2,-3,-35,-2,-7,0,0
59385311238,7,5,4,-5,1,1,-2,-1
59385327094,-9,-1,-3,0,0,-4,-2,-7
59385327094,0,-1,-1,13,-1,4,-3,-1
59385334667,-8,-6,-3,-12,-2,-1,3,-3
59385334667,7,3,1,18,1,0,-1,-1
59385336021,1,-2,-4,-16,-7,-4,-4,-3
59385336021,-5,0,2,2,-4,-2,-1,1
59385356963,-5,-3,0,21,4,0,0,0
59385356963,-4,-2,3,5,-6,3,1,-1
59385358556,-3,-4,-1,8,-1,4,1,-1
59385358556,-2,-2,-3,-14,-3,-6,-3,-2
59385370613,-5,-1,-2,-21,-2,0,-3,-3
59385370613,-13,-16,-5,-2,-1,-11,-2,4
59385387134,-2,-2,-3,-4,2,4,-4,0
59385387134,1,3,1,15,3,2,1,-2
59385394628,-1,0,3,8,-2,-2,0,-2
59385394628,-2,4,2,-2,-1,7,-2,1
59385396085,-1,-1,-1,-4,-2,-14,-3,0
59385396085,-4,-4,-3,-3,0,1,-2,-2
59385417019,-4,-3,0,-11,-5,0,-3,0
59385417019,5,1,-3,8,2,-5,-3,-1
59385418526,-1,2,-4,-1,1,14,6,3
59385418526,1,1,0,0,-5,-8,-2,0
59385430707,0,-1,1,6,4,-3,1,0
59385430707,-1,0,-4,-11,-2,3,1,0
59385439591,9,0,2,10,1,1,-2,0
59385439591,0,-1,-4,4,-3,-4,-1,0
59385454667,-3,-2,-4,-19,-5,-4,-5,-2
59385454667,-4,1,-1,-1,-3,-4,-1,-4
59385456063,-8,-5,-3,-5,-5,0,-1,-1
59385456063,2,5,-2,7,0,-2,2,0
59385477146,-5,-7,1,7,5,10,-3,-1
59385477146,0,2,-3,10,5,-6,0,0
59385478572,-2,-2,-2,-21,-11,-1,-5,-3
59385478572,-2,-1,-3,3,-1,-4,2,0
59385490808,-5,-3,-7,-11,-3,-6,4,-3
59385490808,-5,-1,-6,0,-3,-2,-1,-2
59385499629,-4,-4,-2,5,2,3,2,-2
59385499629,-3,-4,-4,-8,-1,3,-1,-1
59385514435,-3,-2,-1,17,0,-2,1,0
59385514435,-7,-4,-3,-11,-1,-3,0,0
59385516221,-1,-1,0,-1,-3,-8,-1,-2
59385516221,-4,-3,-5,4,-5,11,0,-2
59385537120,0,2,2,13,0,-20,-7,-4
59385537120,3,2,-1,-8,-6,-1,-1,-1
59385538606,-4,-5,-6,3,3,14,0,1
59385538606,2,1,1,-6,5,-1,-1,1
59385550830,1,-1,-2,3,-4,-3,2,0
59385550830,1,0,1,1,-1,4,-3,-2
59385559540,0,2,0,-1,0,-11,-3,-2
59385559540,-2,-2,1,-3,-3,-1,-6,-3
59385574475,2,2,2,1,-2,4,-3,0
59385574475,2,1,3,2,3,6,1,1
59385576052,0,-2,-1,2,3,3,-2,0
59385576052,5,1,1,-5,-2,-3,-3,-2
59385596985,1,-2,0,5,-2,-5,-2,-2
59385596985,1,-1,-2,-11,-3,2,-4,-2
59385598540,-1,-1,-3,12,1,-2,1,-1
59385598540,-1,-2,2,0,-2,-2,-1,-2
59385619435,-1,2,1,-1,-3,-8,-3,0
59385619435,-3,-1,-5,-5,-3,7,0,-2
59385621039,-1,-1,1,3,3,-7,3,3
59385621039,-3,-3,-1,-7,1,6,-3,-3
59385634700,-2,-2,-2,5,-1,-2,-1,-1
59385634700,4,4,-2,-1,-1,-9,-1,-2
59385636014,-9,-9,-1,-4,-2,10,0,0
59385636014,-1,3,1,4,0,-12,-1,0
59385656963,1,-3,-3,-6,-2,10,2,0
59385656963,0,0,-2,4,3,-1,1,-1
59385658578,0,2,-2,-4,-4,-5,-5,-4
59385658578,-4,-3,-4,-8,0,3,-1,-1
59385670567,-2,-2,-2,11,-1,-8,-2,0
59385670567,1,-4,0,-8,1,0,1,-1
59385679597,1,1,-1,2,-2,3,0,-4
59385679597,-2,-3,-1,-3,0,-3,0,0
59385694632,-1,1,-2,-10,-6,-9,-4,-2
59385694632,-5,-4,-2,10,2,10,2,-1
59385696056,0,-1,-2,-20,-1,-3,-4,3
59385696056,0,1,1,11,0,4,1,-4
59385715951,-3,0,-1,-2,-3,-2,-1,1
59385715951,-1,-2,-1,-6,-4,-12,-2,-1
59385724615,-1,1,-1,5,1,-3,-2,-1
59385724615,-3,0,-2,-13,-3,-4,-2,-2
59385730760,5,-2,1,8,2,12,0,-2
59385730760,-2,0,-2,-6,-2,0,-3,-3
59385739459,-1,2,2,5,-4,-7,-1,-2
59385739459,0,0,0,-1,-3,-11,1,2
59385754446,-3,-2,-3,-1,4,8,3,-2
59385754446,0,-1,2,-8,-5,-2,-1,2
59385756032,2,0,1,27,4,2,0,-1
59385756032,-3,0,-1,-11,-7,-4,-2,-1
59385777122,0,0,0,-3,1,-5,-3,-2
59385777122,-2,-1,-1,-5,4,5,1,0
59385778622,-2,-1,-1,-6,-2,1,2,0
59385778622,-2,-3,-1,5,-1,2,-1,-1
59385790614,-3,-2,-2,-3,-1,0,-3,-1
59385790614,-4,-1,-2,2,-2,-3,-2,-1
59385799584,1,-1,0,-5,0,0,4,1
59385799584,0,-1,-3,5,-2,-5,-3,-2
59385814445,-2,-3,-2,0,1,-1,-2,-1
59385814445,0,-1,1,-3,-1,0,-2,-2
59385828153,1,0,-3,-6,-4,-4,-2,0
59385828153,0,-1,1,-4,0,-3,1,-1
59385836925,-2,0,-2,-2,-2,7,-2,0
59385836925,0,-4,-2,2,-1,-5,-1,0
59385838541,-1,-1,-1,-6,-2,-5,-3,-1
59385838541,-2,-1,-2,2,1,1,2,-1
59385850766,-1,0,-1,2,0,-2,1,0
59385850766,-3,-2,-3,1,1,3,-3,-1
59385859638,1,-1,-2,-5,0,-9,-3,0
59385859638,0,-2,0,0,-1,3,-3,0
59385874488,0,-2,2,6,-2,0,-1,0
59385874488,1,-1,0,0,1,2,1,-1
59385876107,-1,-2,-2,-8,-3,-2,0,-2
59385876107,-2,-2,-3,1,1,1,0,0
59385896967,-3,-1,-4,-4,-2,-5,-1,0
59385896967,0,0,1,-1,-1,-1,-2,0
59385898551,-2,-3,-3,0,-1,3,-4,-2
59385898551,0,0,2,0,0,0,1,0
59385910738,0,-2,-2,-3,-3,0,0,-2
59385910738,-2,-1,-2,-1,-3,-1,-1,-1
59385919590,-2,0,1,0,0,-1,-1,0
59385919590,0,-2,-1,-2,0,2,-2,-1
59385933772,-1,-2,-1,-2,-2,-2,-3,-1
59385933772,0,-1,1,0,-1,-2,-2,-4
59385940625,1,-1,0,1,-2,-1,-1,0
59385940625,-1,-2,0,0,-4,0,1,-1
59385957010,-1,0,-3,-2,0,-1,-2,0
59385957010,-3,-1,-3,0,-2,-3,-3,1
59385958584,1,0,1,-1,0,-1,-1,-1
59385958584,-1,-2,-2,0,2,2,-2,-3
59385970521,1,0,1,-3,-2,-1,-3,-2
59385970521,0,2,0,-3,-5,-1,-2,0
59385979565,-1,-1,-3,-2,-2,-2,-2,-4
59385979565,-2,0,0,-4,-2,1,-3,1
59385993798,0,2,2,0,2,0,-1,-2
59385993798,-2,-4,-2,1,0,0,0,-3
59386000681,-1,1,0,-3,-2,-1,0,-1
59386000681,-1,-2,-3,0,-1,-2,-1,-2
59386016836,1,3,0,-2,-1,-2,-4,0
59386016836,1,-2,2,2,1,-1,-3,2
59386018508,2,1,5,-2,-1,2,-4,2
59386018508,4,1,2,-2,1,2,-2,1
59386030619,0,0,1,-3,0,0,-1,-1
59386030619,1,0,-1,0,0,-2,0,1
59386039528,-2,-1,-1,1,-2,0,-1,-2
59386039528,-10,-7,-15,-2,-3,-7,7,-11
59386053777,-13,-12,-19,1,-6,-9,11,-13
59386053777,-11,-8,-16,0,-4,-7,8,-14
59386061493,-10,-7,-11,0,0,-4,2,-7
59386061493,-2,-1,-2,-2,-1,1,-3,0
59386076477,4,0,5,-2,-1,0,-6,5
59386076477,3,2,8,-1,-1,2,-3,6
59386077085,4,1,4,1,1,2,-5,7
59386077085,8,5,8,0,0,3,-8,9
59386098920,5,2,7,0,2,3,-5,3
59386098920,4,-1,7,-3,2,2,-6,3
59386099558,5,4,2,-2,-1,1,0,-1
59386099558,6,2,3,1,2,0,-1,0
59386113316,-2,-2,-1,0,-2,0,-1,-2
59386113316,2,8,-4,-3,-1,-2,0,-1
59386121222,-8,-3,-7,1,-3,-2,2,-7
59386121222,-15,-6,-7,-1,-2,-4,1,-5
59386136395,-5,-4,-5,-1,-1,-3,1,-2
59386136395,-2,-2,-4,-2,-1,-4,0,-1
59386137063,-5,-5,-5,0,-1,-3,1,-3
59386137063,-4,-4,-1,0,-3,-3,0,-1
59386158880,1,5,2,1,0,1,-3,-1
59386158880,-4,-3,1,0,-4,-1,-4,-3
59386159469,0,0,-1,-2,0,0,-3,1
59386159469,10,6,1,0,0,0,-2,-1
59386173125,-6,-5,3,-1,1,-1,-3,0
59386173125,5,3,0,-1,-1,1,2,-1
59386181438,2,-4,-1,0,0,2,0,2
59386181438,4,16,-4,-3,0,-1,-1,-2
59386196468,0,-2,-2,-2,0,-2,0,-1
59386196468,0,-3,-4,-1,-1,0,-1,-1
59386197046,5,-4,-1,-1,-2,-2,1,-2
59386197046,1,-3,1,-2,-1,1,-2,0
59386218783,1,1,0,-2,-1,0,-3,-1
59386218783,-7,-3,-2,-1,-1,-2,-2,0
59386219550,-2,1,0,-3,1,-3,-3,-1
59386219550,-4,-8,0,0,-2,-2,0,-1
59386234614,-1,-2,0,-1,-2,-1,-1,-1
59386234614,2,-2,-1,1,-1,0,-2,0
59386241230,18,15,-2,1,0,-1,0,0
59386241230,-1,5,2,2,-1,2,0,-1
59386256165,1,-1,2,0,0,1,0,-2
59386256165,9,-1,2,-3,-2,0,0,1
59386256927,-2,1,0,-2,-3,-2,-3,-3
59386256927,2,5,-2,-2,-1,-4,-3,-2
59386278736,2,-5,-2,2,0,-2,-2,0
59386278736,3,-3,0,-2,0,-2,-1,-2
59386279580,-8,-8,1,-3,-1,0,0,-6
59386279580,23,23,-2,1,-1,1,2,-3
59386293287,-18,-13,0,0,-1,-2,-1,-2
59386293287,-6,0,-4,-1,-1,-4,-5,-3
59386301260,-34,-37,-6,0,0,0,5,17
59386301260,-2,24,6,1,2,0,2,-8
59386316484,-2,-12,-1,-1,0,-1,-2,0
59386316484,-10,-6,1,0,-3,0,2,4
59386317058,7,10,3,3,2,1,3,7
59386317058,-8,-9,-6,1,-2,1,-2,0
59386338954,-3,-1,-2,-5,-3,-3,-3,-3
59386338954,-6,-1,1,-2,1,-1,0,-5
59386339527,-2,-10,-2,-5,0,-3,-6,-10
59386339527,-19,-28,-3,0,-1,1,-2,0
59386353218,28,17,-1,1,-4,-3,-1,-3
59386353218,-2,3,-4,-4,-2,-4,-2,1
59386361285,7,11,1,0,-2,1,-1,-6
59386361285,1,-10,-4,-1,-1,0,-2,5
59386376449,5,-4,-1,-1,-2,-1,-1,3
59386376449,-3,1,-1,1,1,1,0,0
59386377107,-4,-1,-1,-4,-6,-1,-4,-5
59386377107,-4,-8,-1,-1,1,-2,-1,-3
59386398970,-8,0,-4,0,-2,0,0,-2
59386398970,3,-3,-2,-1,-4,-3,-3,-4
59386399549,2,7,2,1,0,-1,-2,-2
59386399549,-2,-4,-6,-3,-5,-2,-2,1
59386413188,0,4,-2,-3,0,0,-1,-2
59386413188,15,4,1,-1,0,1,1,3
59386421433,0,15,2,1,-2,-2,4,1
59386421433,-5,-9,-2,0,0,-2,-4,-1
59386436417,-13,-2,-3,-3,-2,0,-1,-2
59386436417,4,6,-1,-4,-4,-2,1,-4
59386437039,7,-7,0,-1,-3,-2,0,-2
59386437039,-6,-4,4,1,-1,-2,1,-3
59386458886,-3,5,-2,-1,0,1,0,0
59386458886,-8,-2,-2,1,-1,-3,-1,1
59386459551,6,1,-2,0,-2,-2,-2,0
59386459551,-7,6,0,-3,-2,-1,-3,1
59386473116,1,7,-1,0,0,-1,1,2
59386473116,-17,-9,-2,1,0,0,-2,0
59386481526,-16,-6,-1,-3,0,-1,-3,-4
59386481526,-6,-17,0,-1,-1,0,-3,-5
59386496461,-4,-1,0,1,-1,-2,0,0
59386496461,1,-6,-3,-3,-1,-1,-3,-1
59386497062,3,9,-2,-1,-1,-2,0,0
59386497062,-9,-2,0,-3,-1,-3,1,-2
59386518841,0,5,0,1,-1,-1,-1,1
59386518841,-5,-2,-6,-3,-3,-2,-2,-2
59386519581,-6,-1,-1,-2,1,0,-3,-1
59386519581,5,-2,-4,-2,-2,-1,-1,1
59386533205,3,-2,2,-1,0,-2,-1,-2
59386533205,2,2,3,5,1,-2,0,-1
59386541434,1,-5,-3,-3,0,-3,-1,1
59386541434,9,5,-3,-2,-3,-3,-1,0
59386556231,2,-1,0,0,-1,0,-3,-1
59386556231,6,10,-2,-1,0,0,-1,-4
59386557111,-2,-4,-1,-1,-2,-2,-1,-3
59386557111,-1,-4,-1,1,0,-1,-1,0
59386578775,5,1,-7,-7,-4,-4,-2,-2
59386578775,-8,-6,1,-1,1,0,0,1
59386579515,6,2,1,0,0,-1,0,-2
59386579515,-7,0,1,0,-1,0,1,2
59386593150,-3,-8,1,1,-3,-1,0,-2
59386593150,-6,-1,-1,0,-1,-1,0,-1
59386601310,1,1,-5,-1,-1,-2,-1,-1
59386601310,13,2,-2,-2,-1,-2,1,0
59386616327,-2,-3,-1,-1,1,0,0,0
59386616327,1,-18,-1,-2,-1,-1,-1,2
59386616998,10,17,6,2,-1,1,2,0
59386616998,0,-5,-2,0,-1,-2,-3,-3
59386638914,-5,-1,0,1,1,0,1,1
59386638914,20,15,2,1,0,-1,-1,0
59386639500,-16,-9,-4,-3,-2,-1,-5,-2
59386639500,-3,2,1,-1,-1,-3,-1,-1
59386653545,6,4,3,-1,0,-3,0,-2
59386653545,-3,2,-1,-1,-2,1,0,-1
59386661256,-2,-2,-2,-1,0,0,-2,-2
59386661256,-5,-14,0,-2,-2,2,-3,-1
59386676453,-10,-1,-3,-2,0,0,-3,-2
59386676453,-3,-2,0,-1,-2,-2,1,1
59386676969,-3,-3,-2,0,-2,-1,0,-2
59386676969,0,-4,0,-2,0,-1,0,1
59386698756,3,-2,0,1,0,0,-2,0
59386698756,-10,8,3,-1,-1,-1,-5,-1
59386699491,-1,-7,-5,-4,-2,-1,-3,0
59386699491,0,5,-1,-1,-2,0,1,-1
59386713938,5,-3,1,2,2,0,1,1
59386713938,-15,-20,-2,-1,0,-2,0,-2
59386714495,-5,-1,-2,-4,-2,-1,-4,0
59386714495,-2,4,-1,-2,-2,-1,0,-1
59386736335,1,10,-2,-2,-3,0,0,-2
59386736335,3,-8,-2,-4,-5,-1,-2,-2
59386736991,-9,-2,0,1,1,-1,-1,-2
59386736991,-2,-3,-3,-1,1,-1,-2,-2
59386758710,-1,1,1,-1,-1,-2,-3,-1
59386758710,-6,0,-3,-1,-1,-1,-2,-3
59386759537,1,-4,-1,0,-2,0,-1,-1
59386759537,-1,1,-1,-3,-2,-2,0,-1
59386773045,-20,-25,-1,0,0,-2,1,-1
59386773045,10,1,-3,-2,-1,-1,0,-2
59386781393,3,4,-2,-4,-2,-1,-2,-2
59386781393,-2,2,0,2,1,-2,0,-2
59386796460,6,7,-1,-5,-2,-2,-3,0
59386796460,5,-21,-4,-3,-3,-4,-4,-2
59386797037,-6,-5,0,-2,-1,0,0,-1
59386797037,0,1,-4,-1,-1,-2,-1,-2
59386818840,2,0,-2,0,-3,-1,-1,-2
59386818840,-3,13,0,0,1,0,1,-3
59386819549,3,-3,-3,-1,0,-2,0,-1
59386819549,-3,-1,0,-2,-2,0,0,-3
59386833299,-6,-6,-1,0,1,-1,-1,-1
59386833299,0,5,-2,1,-1,0,0,0
59386841403,2,-1,-1,-1,-1,-2,-3,-3
59386841403,-1,-3,-1,-3,-1,1,0,0
59386856203,8,4,-3,-2,-3,-2,-2,0
59386856203,-1,0,-1,1,-3,-1,1,-1
59386863811,-5,-2,1,-2,-1,-2,1,1
59386863811,1,-4,1,0,-1,0,-2,-3
59386878929,0,0,-1,-1,-3,-2,-1,-2
59386878929,-2,-5,-1,-1,0,0,-1,-2
59386879640,0,-2,-1,0,-1,-2,-3,-1
59386879640,0,3,-1,2,-2,-1,-1,0
59386893114,-3,-2,-2,-2,-2,0,-1,-1
59386893114,-4,-10,0,1,-1,2,-2,-1
59386901260,-8,-3,-2,-1,-1,-3,0,0
59386901260,-8,-27,-1,-3,0,-3,-1,-1
59386916281,-2,1,0,-1,0,0,0,0
59386916281,25,10,-1,-5,-1,-3,1,0
59386917014,-10,-9,0,1,0,2,-2,-3
59386917014,5,4,-2,-3,-2,-1,-4,1
59386938767,4,0,-4,-1,-1,-1,-1,-2
59386938767,-5,-2,3,-2,0,0,-1,1
59386939524,11,-1,-5,-1,-3,-3,1,1
59386939524,6,8,-2,1,1,0,1,-1
59386953035,1,-3,3,2,0,-1,-1,-2
59386953035,-5,1,-3,-1,1,-1,-1,0
59386961289,3,-1,-2,-2,-1,-1,-2,0
59386961289,-7,1,0,-1,-2,-2,-2,-1
59386976215,-5,-4,-1,-3,-1,-3,-1,0
59386976215,-5,1,-2,-1,-1,0,-1,-3
59386977014,-3,0,1,-1,1,-2,0,1
59386977014,1,5,-3,-2,-2,0,-3,-2
59386998762,-3,-7,-1,-1,-1,-1,0,-4
59386998762,-10,1,1,0,-1,-2,-3,-1
59386999556,2,0,-1,-3,0,0,0,-4
59386999556,-1,4,-1,-1,-3,0,1,0
59387013727,8,0,-3,-1,2,-1,0,1
59387013727,-21,-13,-2,-2,-2,0,-3,0
59387021250,2,2,-1,-3,-1,-3,-1,-1
59387021250,1,-14,-3,-1,0,-1,-1,-1
59387036272,-6,4,-2,-4,-3,-2,0,-4
59387036272,7,3,-2,-1,-2,0,1,-1
59387037052,-6,0,0,1,-1,0,-3,-1
59387037052,1,3,-1,0,-3,-1,0,-1
59387059184,-2,1,1,1,0,1,-2,-2
59387059184,2,3,-2,-1,0,-1,-3,-2
59387066250,-1,0,-3,-1,0,-1,1,-1
59387066250,0,-1,-1,-3,0,-1,-3,-2
59387081947,-3,3,1,-1,-1,0,0,0
59387081947,2,0,-2,-2,-4,-2,-1,-1
59387082720,2,-3,-1,1,0,0,-1,0
59387082720,-2,0,0,-1,1,-3,0,0
59387096252,-1,-2,-2,-2,-2,-1,-2,0
59387096252,-3,-5,-1,0,0,0,-3,-4
59387096982,3,9,0,-3,-2,-1,-3,-1
59387096982,1,4,2,3,0,-1,0,-2
59387118757,7,10,-3,-2,-3,-4,-1,0
59387118757,-4,-9,4,-1,1,-1,1,0
59387119542,-3,-1,-5,-2,-2,-1,1,-2
59387119542,0,3,1,-1,0,1,0,1
59387142417,2,0,-3,-1,-1,0,1,-1
59387142417,0,4,-3,-2,-2,-3,-5,-4
59387143182,8,15,1,1,0,-2,-2,0
59387143182,-13,-8,-1,-1,-1,-1,1,0
59387156276,-2,-2,1,2,-1,0,-2,0
59387156276,-5,-6,-6,-2,-2,-3,-1,-2
59387157036,-28,-21,-2,-2,-3,-2,-3,-4
59387157036,4,4,-3,-1,-1,-2,0,0
59387178727,-5,-7,0,0,0,0,-1,-2
59387178727,-1,1,-2,1,0,1,0,-2
59387179513,4,-5,0,1,1,-2,-1,-1
59387179513,4,0,-3,-2,-1,-1,-2,0
59387201936,-6,-6,-2,-3,-2,-2,-2,-2
59387201936,9,2,0,0,0,-2,3,-1
59387202719,8,-4,-2,1,0,1,1,1
59387202719,1,0,0,0,-3,-2,1,-4
59387216202,-2,1,-1,-3,1,1,-3,1
59387216202,0,5,0,0,0,1,-2,0
59387216959,1,-1,0,0,-3,-1,-2,0
59387216959,-4,-3,-1,2,0,0,-4,-2
59387238752,-4,-4,-6,0,-1,1,1,2
59387238752,-4,-14,0,0,0,0,-1,0
59387239444,1,0,-2,-1,-2,0,0,1
59387239444,15,13,0,0,-1,1,-2,-1
59387261966,-10,-19,1,-3,0,-1,0,-2
59387261966,1,4,-2,0,0,1,-1,0
59387262741,0,-2,-1,-2,-1,-2,2,-1
59387262741,-2,7,1,-1,-1,0,-2,-2
59387276444,-6,-2,1,-1,-1,0,0,-3
59387276444,1,4,0,-2,-1,-2,-1,-2
59387277077,19,8,0,-2,-3,-4,2,-2
59387277077,-21,-14,-2,-3,1,-1,-2,-1
59387298810,5,7,0,-2,-3,-3,-1,-2
59387298810,-2,0,-2,-1,-1,-1,-1,0
59387299538,-1,4,0,-1,0,1,0,-2
59387299538,-1,-9,-2,-2,0,-1,1,-1
59387322097,8,4,-1,1,0,0,-3,2
59387322097,-1,-3,-2,-4,-1,-1,-2,-2
59387322631,-2,4,-1,0,1,-2,-1,-2
59387322631,2,4,-2,0,0,-3,2,-2
59387336380,-4,-3,-2,-2,-1,-1,-3,-1
59387336380,-3,1,2,1,-3,1,-1,-2
59387337017,-5,0,1,0,0,1,-3,0
59387337017,-5,-7,-2,-3,0,0,-2,0
59387358925,3,3,0,1,-1,-1,-2,-2
59387358925,2,4,-2,0,0,-1,-2,2
59387359478,-4,-6,-4,-1,-2,-2,-4,-2
59387359478,7,7,-3,-2,-3,-1,-1,-2
59387382138,1,4,-1,1,-2,0,1,-2
59387382138,0,0,0,-2,-1,1,1,0
59387382739,5,-11,-3,0,-3,-2,-1,1
59387382739,11,10,1,1,-2,-1,0,1
59387396207,-4,-3,-2,1,-1,0,-1,0
59387396207,-1,-2,-2,0,0,-2,-1,-1
59387396997,-1,10,-1,-1,-1,0,-1,-1
59387396997,-17,-1,3,-1,0,-1,-1,-2
59387418832,1,-5,-2,-5,-1,-2,-1,-1
59387418832,0,0,-1,0,-1,-1,-1,-1
59387419523,-2,0,1,0,0,0,0,-1
59387419523,1,-5,-2,-2,-2,0,-3,0
59387441917,-3,1,2,-1,1,-3,-1,-3
59387441917,-2,1,0,-3,-2,-4,-3,-1
59387442743,-7,-8,-1,0,-4,-3,-1,-1
59387442743,2,-5,-1,0,-2,-2,-4,-1
59387456418,0,-2,-3,-1,0,0,0,0
59387456418,1,0,-2,0,-2,0,-2,-1
59387457036,-5,0,0,-1,-1,-1,-2,-1
59387457036,-4,-9,-2,-1,-2,-1,-2,-1
59387478914,-3,0,1,1,-1,0,-1,0
59387478914,14,13,-1,-2,0,-1,1,0
59387479529,6,13,1,-2,1,-2,-1,0
59387479529,-4,2,-1,-1,-2,-2,-1,-2
59387502145,-8,-8,-3,0,-2,-2,-1,0
59387502145,0,2,-2,0,0,0,-1,3
59387502749,0,-5,0,1,-1,0,-1,-2
59387502749,6,0,1,-3,0,-1,0,0
59387516497,1,5,-4,-3,-2,-1,-1,-1
59387516497,-5,-4,-1,-1,-3,-2,-2,0
59387516979,-1,-5,-1,0,1,2,1,0
59387516979,-16,-2,3,0,0,-1,1,-2
59387538931,0,-1,1,0,0,-1,0,-2
59387538931,-4,-7,-2,-3,-3,-3,0,-2
59387539580,3,4,1,1,-1,-2,1,1
59387539580,6,-2,-2,-1,-3,-1,-3,0
59387562051,2,-1,1,-1,0,-1,-1,0
59387562051,-6,-6,1,1,-1,0,0,-1
59387562684,-4,-3,-3,-2,-2,-2,0,-2
59387562684,12,7,-3,2,0,-2,1,-1
59387576478,-3,-2,3,-4,-3,-2,-2,0
59387576478,-2,0,-1,1,-1,-1,-2,-2
59387577022,-6,-3,-3,-3,-3,-1,-4,-1
59387577022,-3,-4,-1,1,0,-1,-2,-1
59387598756,2,-1,-1,-1,-2,-1,-1,-3
59387598756,-5,-6,0,-2,1,0,1,-1
59387599531,-2,0,-2,-1,-1,-1,-4,-1
59387599531,-6,-7,-3,-3,-2,-2,-1,-3
59387622400,1,0,-3,-2,-1,-2,-1,-2
59387622400,-9,-5,-1,-4,-2,-2,0,-5
59387623116,-4,-18,-2,-1,0,0,-1,-1
59387623116,-2,-3,-3,0,0,-1,-1,1
59387636299,-4,-1,-4,0,-1,0,-2,-2
59387636299,0,0,-3,-1,-1,-1,-2,-2
59387637095,0,1,0,-1,-3,-1,-1,-2
59387637095,-4,-13,2,-2,0,0,-2,-1
59387658881,0,-2,-1,0,-1,1,0,-1
59387658881,2,-4,-5,-5,-3,-3,0,-1
59387659493,0,11,0,0,0,-2,-1,-1
59387659493,8,4,-1,-1,0,-1,-3,-2
59387688678,1,5,-1,1,-1,0,-1,-1
59387688678,-1,-2,-2,1,-2,1,-2,1
59387706025,-7,-5,-2,-2,-2,-1,0,-4
59387706025,0,2,-5,-2,-3,-1,-1,0
59387707421,-1,-1,0,1,0,-2,0,-3
59387707421,1,2,-1,1,1,0,-1,-2
59387708202,1,-2,1,-3,-3,0,-3,0
59387708202,-14,0,0,-2,-1,-1,-3,0
59387718711,1,0,1,-3,-2,-1,0,2
59387718711,-1,1,-1,0,1,0,-2,0
59387719456,0,-6,-4,-1,2,-2,-1,1
59387719456,0,-4,1,1,0,-3,-1,-3
59387741958,-4,-16,-3,-2,-2,-1,-1,-1
59387741958,-1,6,2,1,-1,0,-1,-1
59387742753,-4,0,-4,-4,-2,-2,-3,-1
59387742753,0,-1,1,0,0,0,1,0
59387755783,4,-16,-3,0,0,-2,1,2
59387755783,-5,1,-1,-3,0,0,1,0
59387780247,-1,-3,-3,-2,0,-1,2,-1
59387780247,0,1,0,-1,-1,0,-1,-1
59387781680,0,4,-4,-3,-2,-3,-2,-1
59387781680,1,-2,0,-2,-2,-2,-3,1
59387782549,4,-1,-1,1,-1,0,0,-1
59387782549,4,4,2,1,1,1,-1,2
59387801909,-1,-7,2,1,-1,-2,-1,-2
59387801909,-5,-3,-2,-1,-2,-2,-2,-2
59387802680,1,3,-1,-1,-1,-1,-3,0
59387802680,2,-2,0,-1,0,-1,1,-4
59387815580,-2,5,0,-1,1,1,-1,-3
59387815580,0,-2,1,-2,-2,-3,0,-3
59387823678,-2,-1,0,-3,-2,0,-1,-3
59387823678,-1,1,-3,-1,-2,-1,-2,2
59387838716,-3,1,2,-1,-3,1,-2,-1
59387838716,0,-1,-3,-1,0,0,1,-1
59387839511,-6,-2,0,-1,0,-1,-3,0
59387839511,1,-1,-2,-2,-3,-2,-1,-2
59387861985,0,5,2,0,-2,0,0,-2
59387861985,2,-1,-2,-3,-1,-3,0,-2
59387862683,-1,0,-2,-1,0,1,0,-2
59387862683,-4,-1,-2,0,-3,1,-1,-1
59387875596,-5,2,-1,-1,-2,0,-2,0
59387875596,0,0,1,0,-1,-2,-2,-1
59387883884,-4,-2,-3,-3,-3,-3,1,-3
59387883884,-2,-1,-3,-2,2,-2,-2,-3
59387898773,-5,1,-2,-1,0,0,1,-2
59387898773,5,0,0,1,-1,-1,1,0
59387899454,1,4,0,-1,-2,-1,-2,-1
59387899454,-4,-12,-3,1,-3,-1,-1,0
59387921979,6,0,-4,-1,1,-3,0,0
59387921979,12,9,2,1,0,0,0,2
59387922701,-7,-18,-1,0,-2,-2,-1,0
59387922701,3,4,0,0,-1,0,-2,-1
59387935696,-2,2,-1,-1,-1,-2,-1,1
59387935696,-7,-5,-5,-2,-1,0,-1,-3
59387943780,1,-2,3,-2,0,-1,1,2
59387943780,-1,0,2,-3,0,-2,0,0
59387958959,-2,-4,-2,-2,-2,-2,-2,-2
59387958959,-3,-2,-3,-1,1,0,-1,-2
59387959539,-1,2,-2,1,0,0,1,1
59387959539,4,4,-4,-2,-1,-2,1,-4
59387982595,-10,-13,-1,-2,-1,0,-4,-2
59387982595,0,-1,-3,0,-3,-1,-4,0
59387983395,-1,2,0,0,0,-1,1,-3
59387983395,-4,1,-1,-3,-2,-2,-1,0
59387995567,2,4,1,2,-1,0,1,0
59387995567,-1,-3,-1,-3,-4,0,-1,-2
59388003804,-1,-3,-2,-3,-2,-1,-1,-2
59388003804,-6,-5,1,-2,1,0,-2,-1
59388018605,1,2,-4,-3,-3,-2,-4,-3
59388018605,-4,-5,0,-1,0,-1,1,0
59388019412,3,5,0,0,-2,-1,-1,-1
59388019412,-1,1,-2,0,-2,-1,0,-1
59388042099,-9,-4,-4,-5,0,-1,-1,-1
59388042099,-4,-1,2,-1,-3,-2,0,-1
59388042800,-2,-2,0,-1,-2,-1,-3,0
59388042800,6,4,0,2,0,1,-2,0
59388064623,1,6,-1,-2,0,-1,0,0
59388064623,-2,-9,-2,-1,0,0,-1,-2
59388065255,-1,-4,0,1,-1,-1,1,0
59388065255,-4,-5,-2,-3,-1,-1,-2,-2
59388078684,1,12,-1,1,0,-1,-2,-2
59388078684,-8,-10,0,-2,0,1,0,-2
59388079521,2,2,0,-1,0,1,0,0
59388079521,2,-2,-2,-2,-3,-2,0,1
59388101915,-5,-6,1,1,-3,-1,-1,-1
59388101915,1,4,-3,1,-1,-1,-1,-2
59388102697,-5,-5,-1,0,-1,-2,-2,-1
59388102697,0,-2,1,-2,-1,0,-1,0
59388124547,-1,-3,-4,-3,-1,-3,2,-1
59388124547,-2,2,-1,-2,-2,-2,-2,-1
59388125208,-4,-4,1,-2,-2,-1,0,-1
59388125208,-2,-3,-1,-2,1,0,-2,0
59388138823,2,1,1,1,-1,-1,-2,1
59388138823,0,1,-2,-1,0,-1,-2,-1
59388139482,-16,-2,-6,-3,-3,-2,-4,-4
59388139482,0,2,1,-1,-2,-2,0,-1
59388161873,-1,-2,2,-1,1,0,0,0
59388161873,1,1,-3,-3,-1,-2,-2,2
59388162689,2,-4,-2,0,-1,0,0,-2
59388162689,-2,-3,-4,1,-1,1,-1,-2
59388184565,-6,-15,-3,-2,-3,-1,-1,-2
59388184565,-2,4,3,1,-2,-2,0,-3
59388185201,3,10,0,0,-2,-4,-2,-2
59388185201,-3,-4,-2,-2,-2,-2,-1,-1
59388198924,3,5,1,1,1,0,-3,-2
59388198924,0,-2,0,-2,-1,0,0,0
59388199449,-7,-10,-2,-2,2,0,-1,-2
59388199449,-1,4,-1,0,0,-2,1,-3
59388222107,2,2,-1,0,-2,0,-1,-2
59388222107,-4,-5,-2,-2,-3,-1,-1,-2
59388222741,9,6,-1,1,1,0,-3,1
59388222741,-5,-3,0,-3,-3,-2,0,-1
59388244551,4,-1,1,0,-1,-1,-1,0
59388244551,2,4,-1,2,-2,1,-2,0
59388245219,-12,-6,-1,-4,1,-1,-2,-2
59388245219,1,12,0,-3,-2,0,-1,1
59388258256,-1,-4,0,-2,-4,-2,-3,0
59388258256,-4,-1,-2,-2,-2,-3,-2,-2
59388267054,0,3,3,0,-4,1,-1,0
59388267054,-2,-5,-3,1,-1,-3,-2,0
59388281848,0,2,-1,-1,-1,-2,1,0
59388281848,-3,-4,-3,-1,-1,-1,-2,-1
59388283495,0,-3,-1,-2,-1,-2,1,-2
59388283495,1,-3,-1,0,1,-2,0,-1
59388304604,3,3,0,0,-1,-1,-1,1
59388304604,-3,-5,-2,-1,-2,-1,-1,-1
59388306042,4,-1,0,-2,0,-1,0,-2
59388306042,-3,-7,-2,-1,-2,1,0,-4
59388318271,0,-2,-1,-1,0,-2,0,1
59388318271,2,2,-2,-2,-3,1,1,-2
59388334592,-4,-3,-5,0,-1,-1,-1,2
59388334592,2,-1,-1,-2,-3,-1,-2,-2
59388342092,-2,-6,-1,-2,-1,-2,-1,-3
59388342092,2,0,2,-1,-1,-1,-1,-1
59388343630,-6,-3,-5,-2,-1,-2,-2,-1
59388343630,-1,-4,2,-1,1,0,-3,0
59388364394,-2,-3,-1,-1,-1,0,-2,0
59388364394,-5,-10,-4,-1,-1,-2,-2,-1
59388365979,1,1,0,-1,-1,-3,1,-1
59388365979,-1,0,-2,0,-2,-4,-3,-2
59388378022,-1,0,-1,-1,-2,-1,0,-1
59388378022,0,1,-2,-1,1,0,1,1
59388387007,4,1,0,0,-1,1,-1,-2
59388387007,-1,6,0,1,-4,-2,-1,-1
59388401854,0,3,-2,0,-1,-1,0,-1
59388401854,4,3,-1,1,1,-3,0,1
59388403463,2,-1,0,-1,-2,-1,-1,0
59388403463,-5,-5,2,-1,-1,0,-2,0
59388424401,-3,-2,-6,-2,-2,0,-3,0
59388424401,5,8,1,-1,0,-1,0,-2
59388425940,-4,-19,-2,-1,-1,-1,-2,-2
59388425940,1,-2,-2,-2,-1,1,0,-1
59388438142,0,2,2,-3,1,-2,-1,-3
59388438142,-7,-7,-2,-2,-2,-2,-2,0
59388447048,9,11,2,0,-1,-1,-1,0
59388447048,-3,-4,-1,1,-1,-2,-4,-1
59388461947,-3,-5,-2,-2,-3,-1,-1,-3
59388461947,-2,3,-1,-1,0,-1,1,-1
59388463482,4,4,-1,1,-1,-1,-2,-1
59388463482,0,-3,-1,0,-2,-1,0,0
59388484691,-1,4,1,2,-2,-2,-2,-1
59388484691,-3,-6,-5,-3,-3,-2,-2,-1
59388486043,4,4,-1,-2,-1,-3,-2,-1
59388486043,1,4,-1,-1,-3,0,-2,-2
59388498225,-2,-4,-1,-1,-2,-2,-1,0
59388498225,-4,-1,2,0,0,0,-1,-2
59388507089,2,0,-1,-1,0,0,2,1
59388507089,4,2,-2,-1,0,-2,0,-3
59388522150,-1,2,-1,0,-1,-2,0,-1
59388522150,3,1,-1,-3,-2,0,-1,0
59388523551,-3,1,-3,0,-2,-1,-1,-1
59388523551,-2,-2,-2,0,0,0,-1,1
59388544451,5,-3,0,0,-1,0,-1,-1
59388544451,4,1,1,-1,-1,-1,0,-1
59388546044,0,3,-2,0,-2,-1,-1,1
59388546044,-1,-3,-1,-1,-1,-2,0,-1
59388558155,-3,-2,-3,0,-1,1,-1,1
59388558155,-2,-16,-4,0,-1,0,-3,-2
59388567041,4,5,0,-2,-2,-1,1,1
59388567041,1,0,2,1,0,-1,-1,1
59388581878,-2,-4,-2,-1,-2,-3,0,-1
59388581878,1,0,0,2,0,0,-1,-1
59388583520,-6,-2,-1,-3,2,0,-1,-3
59388583520,-3,-4,-1,-5,-1,-3,-2,-2
59388612167,1,4,0,2,2,-2,0,-3
59388612167,-1,1,3,-1,-2,-2,-3,-1
59388613601,-4,-4,-2,-2,0,-2,-2,-2
59388613601,3,1,-2,-1,-1,0,0,0
59388618254,-1,0,0,-2,-2,-2,-3,-2
59388618254,-5,-1,-2,-1,1,0,-2,-2
59388627076,-5,-3,-1,-2,-4,-3,0,-3
59388627076,3,0,-2,0,1,0,-1,-1
59388642151,-1,-1,-1,-3,-1,-2,1,-2
59388642151,-1,4,0,-3,-2,0,-1,1
59388643571,-1,-3,-2,0,-1,-1,0,-2
59388643571,-8,-21,-1,-2,-1,-2,-1,-2
59388664632,-4,-4,-2,0,-2,-1,-2,-4
59388664632,3,6,0,-2,0,0,-3,-3
59388666053,-6,-11,-4,-3,-2,-3,-4,-3
59388666053,0,5,1,-1,0,-1,-1,-1
59388678095,-2,-4,-2,-1,0,0,0,0
59388678095,-3,-5,-3,-2,-3,-1,-1,-1
59388687032,0,1,1,1,-1,-1,-1,1
59388687032,-4,1,-3,-2,0,-3,-2,-3
59388701907,1,1,-1,-2,-2,-2,1,-1
59388701907,1,2,-2,-1,-2,-2,-2,0
59388703528,5,4,1,1,-2,0,0,-1
59388703528,0,3,-2,1,-2,-1,0,0
59388724686,-2,-1,-2,-1,0,-1,0,-3
59388724686,0,1,1,1,-2,-1,-1,-4
59388726042,-2,-2,-2,-3,1,0,0,-3
59388726042,5,2,-1,-2,-1,-2,1,-2
59388738322,-5,-11,0,-2,-1,0,-1,-1
59388738322,-2,2,-1,0,-1,-3,-1,0
59388747096,0,0,-4,-2,-1,-1,-2,-2
59388747096,5,-3,0,-2,-3,-2,-2,-2
59388762101,-1,-1,-1,-1,0,1,0,0
59388762101,2,0,0,-1,-2,-1,0,-3
59388763529,-3,1,0,1,-1,0,-2,-2
59388763529,0,2,-1,-1,0,-1,-1,-2
59388784624,1,11,-4,-2,-3,-2,-3,0
59388784624,-3,-4,0,-1,0,-3,-1,0
59388786053,3,2,-2,0,-2,-1,-1,-1
59388786053,-4,-3,-1,-3,-2,0,0,-4
59388798272,-2,-4,-2,-3,0,-1,-3,-2
59388798272,1,0,1,-1,2,0,0,-1
59388807152,-2,0,-1,-1,-2,0,0,-1
59388807152,0,3,-1,-2,-1,0,-1,-1
59388822131,-4,-5,2,2,0,-2,-1,-2
59388822131,4,2,-4,-4,-3,-1,-1,0
59388823515,-5,-5,1,-1,-1,-2,1,-1
59388823515,1,10,0,1,-2,0,1,2
59388844679,0,-3,-3,-1,0,-2,1,1
59388844679,-2,-3,-2,0,-2,1,-1,-2
59388846064,2,2,0,1,-2,-1,-1,-2
59388846064,-3,-2,-1,-1,-3,-1,-1,-1
59388858051,11,2,-1,1,-2,-3,0,-1
59388858051,-11,-5,1,2,1,-1,-1,-1
59388867078,-4,-2,-1,-5,-2,-1,-2,-2
59388867078,3,-3,-4,0,0,-1,0,0
59388881939,-2,0,-1,0,0,-1,-3,0
59388881939,-1,-4,-3,-3,-2,-2,0,-1
59388883581,2,2,0,-2,1,-1,-3,0
59388883581,-5,-7,-4,0,0,-1,0,-1
59388904413,-3,2,3,-1,-2,-2,-1,-2
59388904413,2,-1,-4,-3,-2,-1,-3,0
59388906017,-3,-6,0,-2,-1,-1,1,-2
59388906017,0,0,1,1,3,0,-2,-1
59388918287,-2,-5,0,-4,-3,-1,-4,-2
59388918287,-6,0,2,1,1,0,0,1
59388927042,0,2,-3,0,-3,1,-4,0
59388927042,-1,1,0,2,-1,0,-1,-1
