timestamp,emg1,emg2,emg3,emg4,emg5,emg6,emg7,emg8
59568400349,-13,-23,-2,-3,-1,-2,0,-2
59568400349,-2,-2,-2,-1,-2,-1,-2,-1
59568415612,2,4,-2,-3,-1,-1,0,0
59568415612,-4,2,-2,-3,0,0,-2,0
59568422814,0,7,-2,0,-1,-1,0,0
59568422814,-7,-2,-4,-4,-4,-3,-3,-3
59568437732,8,10,3,2,-1,-1,0,-1
59568437732,-3,-6,-3,-1,0,-3,1,-2
59568438497,12,2,0,-2,-2,-1,-1,-1
59568438497,1,4,4,-2,-1,0,0,0
59568452035,2,3,-2,1,0,0,-1,0
59568452035,1,0,-4,-2,-2,-2,-1,-1
59568460321,-2,0,-1,0,0,-1,0,-1
59568460321,-2,-1,-3,-1,0,0,-1,-1
59568475203,-12,-17,-4,1,0,-1,-3,-4
59568475203,4,13,4,1,0,1,0,-2
59568475955,-8,-9,-2,-2,-1,-1,-1,-2
59568475955,0,2,-2,-6,-4,0,1,0
59568497678,-3,-6,-2,0,-1,-2,-1,-2
59568497678,-3,-2,0,0,-1,-1,-1,0
59568498644,2,11,1,1,0,-2,-2,-3
59568498644,-4,-7,-2,-2,-2,-2,-2,0
59568512681,-2,-4,-3,-1,-2,0,1,-2
59568512681,3,-3,-1,0,1,1,0,0
59568513525,4,9,-1,-2,-2,-2,-1,-2
59568513525,8,-6,-2,-1,0,-1,-1,2
59568535214,1,4,4,0,0,-1,0,-1
59568535214,-2,-7,0,-1,0,0,0,0
59568536006,-12,-5,-1,-2,-1,-2,-1,-3
59568536006,3,14,-2,0,0,-1,0,-2
59568557769,-2,-2,0,1,-2,-2,0,1
59568557769,-1,0,-1,-1,-3,-4,-2,-2
59568558536,1,-1,-1,-2,-1,-1,-2,1
59568558536,-5,0,0,0,0,0,-1,-3
59568572346,-5,-3,-1,-1,1,0,-2,-1
59568572346,-5,-1,0,-2,-3,-1,-2,-1
59568580321,2,1,0,3,-1,-1,1,0
59568580321,-3,-4,1,0,0,1,-2,-2
59568595301,0,-5,-3,-2,-1,-2,0,0
59568595301,-15,-2,-1,0,0,-1,-1,-1
59568596086,6,6,0,-2,-1,0,0,1
59568596086,-2,2,1,2,-1,0,0,0
59568625950,8,12,-1,-5,0,-1,0,1
59568625950,0,-16,-5,-1,0,-1,-2,-1
59568626747,1,1,1,-1,0,-1,-1,-2
59568626747,-3,-7,-5,-3,-1,-3,-2,-2
59568632109,-4,-1,-1,0,-1,-2,0,-4
59568632109,4,8,0,-2,-1,-3,2,-1
59568640233,-5,-9,-2,-3,-3,0,-2,-1
59568640233,2,-6,-1,0,0,-3,1,-1
59568655264,-7,-3,-2,-1,-1,-2,-2,-1
59568655264,2,-2,0,-3,-1,1,-1,0
59568656035,-5,-1,-1,-1,-1,-1,-1,-2
59568656035,-1,1,0,-3,-2,-1,0,-3
59568677768,1,0,1,2,-1,0,-1,1
59568677768,-2,-1,0,-4,-4,0,-2,-3
59568678534,-1,9,-1,-1,-1,-1,0,0
59568678534,-4,-11,-1,5,-2,-1,-1,-2
59568692074,-9,2,1,0,-1,0,-3,-2
59568692074,0,-2,-1,1,0,0,1,0
59568700365,0,3,-2,-5,-2,0,-4,-1
59568700365,-14,-21,-5,-1,0,-3,-1,-1
59568715287,6,4,-1,-5,-3,0,0,1
59568715287,-2,-3,-3,-1,-1,-4,-3,-2
59568716057,12,3,0,-7,-1,-2,0,-3
59568716057,-10,-2,0,1,-1,-1,-2,-3
59568737732,-1,2,-2,13,2,-1,-1,-3
59568737732,-1,0,-3,-20,-8,-3,-1,-1
59568738502,-4,-1,-2,-1,-2,-1,1,0
59568738502,3,4,-1,-9,-2,-1,-2,0
59568752064,3,-1,2,9,0,-1,-1,-1
59568752064,-1,0,1,6,3,0,1,-2
59568760346,-2,-3,1,4,-1,0,0,1
59568760346,4,7,-1,-11,-2,1,1,0
59568775254,-13,-6,-3,-7,-3,-3,-3,-3
59568775254,0,0,-4,4,1,-2,1,0
59568776010,-3,-5,0,-1,0,0,0,-1
59568776010,0,4,2,3,0,-1,0,0
59568797754,4,-5,-2,-4,-1,2,0,0
59568797754,0,-2,-2,-3,-1,0,0,0
59568798570,0,2,-4,3,1,0,-1,-1
59568798570,-1,-2,-2,-1,-1,1,-1,-2
59568812059,-1,-4,0,-6,-1,0,1,-3
59568812059,2,-15,-5,0,-3,0,-2,-1
59568827853,1,-4,-3,-4,0,-1,2,1
59568827853,-4,2,2,2,1,-2,-2,-3
59568835322,-4,-6,0,0,0,0,-1,-1
59568835322,-2,2,-1,-1,0,1,0,-1
59568836083,1,2,-1,-1,-2,-1,-3,-2
59568836083,1,-4,-3,-2,-2,-1,-2,-1
59568858048,0,-4,-1,8,3,-2,1,2
59568858048,16,14,2,-4,-5,-1,-3,1
59568858641,-6,-7,-2,-6,-1,0,-1,1
59568858641,2,5,2,-1,0,1,0,0
59568872116,4,-1,0,0,-2,0,-1,-3
59568872116,-2,-3,-2,6,1,-1,0,-1
59568880259,-2,-6,-1,-3,-3,-2,-2,-3
59568880259,-1,2,2,3,-1,1,0,1
59568895495,-3,-1,-2,-6,-1,-1,-2,-1
59568895495,-6,-1,-1,-1,0,-1,-1,-2
59568896099,-1,11,-1,-1,-3,-3,-2,-1
59568896099,4,-11,-3,1,-2,-1,-2,-1
59568917817,-1,0,-3,-5,-4,0,-1,0
59568917817,-3,3,0,2,-2,-3,-2,-3
59568918613,-2,-1,-3,4,0,0,-1,-1
59568918613,-10,-3,-2,-3,-3,-3,-5,-1
59568932149,-4,-2,0,-4,-2,-2,0,-1
59568932149,-3,-5,-2,0,1,-2,-1,-3
59568940244,-3,-6,-1,2,0,0,1,-2
59568940244,-2,-7,-5,-7,-2,-2,-2,-5
59568955411,3,0,-3,-3,0,-2,-1,-1
59568955411,-6,-5,2,3,2,1,-2,0
59568956117,3,-9,0,0,0,0,-1,0
59568956117,5,4,1,1,1,-1,0,-1
59568977925,1,8,0,-6,-3,0,-1,0
59568977925,-4,-8,-2,0,1,1,0,-1
59568978552,6,-2,-2,-2,-1,-1,0,-1
59568978552,3,3,0,1,-1,-1,0,2
59569001167,5,3,3,0,-1,0,0,-1
59569001167,7,15,2,1,1,0,0,3
59569001875,-4,-3,-1,-2,-1,-1,0,0
59569001875,-3,1,-3,-1,0,0,-1,-2
59569015213,-5,-6,-3,0,-1,-4,-2,-4
59569015213,-2,3,-3,-2,-1,1,0,0
59569016214,2,2,1,0,0,-2,-2,0
59569016214,1,1,0,-1,-1,1,-3,-2
59569037803,-2,-4,-3,-1,-2,1,-3,1
59569037803,-3,-3,0,-2,-1,-2,-2,-1
59569038562,1,-2,-2,-2,-2,0,-1,0
59569038562,0,1,2,-1,-2,0,1,1
59569060965,1,-19,-3,0,-1,-1,-2,0
59569060965,0,-4,-4,-1,-1,0,-1,-1
59569061707,-5,2,0,0,-2,-1,0,-1
59569061707,2,0,-4,-1,0,-1,1,-2
59569075326,-1,5,0,-4,0,0,0,-1
59569075326,-1,-2,0,-2,-4,0,0,-3
59569076045,-12,-8,-4,-5,-2,-2,-2,-3
59569076045,0,4,0,2,-1,0,-2,-3
59569097793,-2,-1,-1,-2,-3,-1,0,-1
59569097793,4,5,0,-2,-1,-3,-4,1
59569098614,-3,2,-1,0,0,-1,-3,-1
59569098614,-5,2,-3,-3,-2,-3,-3,-2
59569120954,-2,-3,-1,-1,-2,-1,-2,-3
59569120954,-4,-4,-2,1,0,0,0,1
59569121717,-2,1,0,0,0,-1,-2,-1
59569121717,4,3,-3,-3,0,-2,1,0
59569135437,-5,-3,2,1,1,-1,-3,-1
59569135437,-5,-7,-1,-4,-3,-1,-1,-3
59569136037,1,1,1,-2,0,-1,0,-3
59569136037,-1,-1,1,1,1,1,1,0
59569157947,1,-1,-2,-2,-2,-2,-1,-1
59569157947,12,5,3,0,0,-1,0,1
59569158613,-2,-2,-2,-1,-1,0,0,-1
59569158613,-5,-4,-3,-2,-4,0,1,0
59569181235,0,2,0,0,0,-1,-1,-2
59569181235,-7,-5,-1,-2,0,-2,-2,-2
59569181795,0,4,-1,-1,-3,0,0,0
59569181795,3,1,2,-1,0,-1,-1,1
59569195477,-1,1,0,-1,0,-1,-2,-3
59569195477,-5,-3,-1,-3,0,0,-1,-1
59569196065,-2,-2,0,1,0,0,-2,0
59569196065,-2,8,0,-1,-2,-2,-2,1
59569217752,-1,-3,0,0,-2,-1,-1,1
59569217752,-2,-1,-2,-2,-1,-1,0,-2
59569218517,2,-4,-3,0,0,-1,-1,-1
59569218517,1,0,-1,0,1,0,2,-1
59569240980,-13,1,-1,-2,-1,-1,0,-4
59569240980,-1,-3,-4,-1,-1,-2,-2,-1
59569241743,-6,-4,-2,-1,-1,-1,-2,-2
59569241743,-3,-5,-3,-2,-1,-3,0,-2
59569255385,-5,-5,-3,-1,-2,-1,-2,-1
59569255385,-4,-8,-2,-3,-3,-3,-6,-3
59569256053,-2,0,-1,-2,0,-1,0,-1
59569256053,-1,-10,-3,-3,-2,-3,-3,0
59569278004,5,9,0,-1,-2,0,0,0
59569278004,-5,-10,-2,-2,-2,-2,-1,0
59569278532,4,0,-1,-1,-3,-3,0,-1
59569278532,-1,3,-1,1,-1,2,-2,-2
59569300992,3,2,-3,-1,-1,0,0,2
59569300992,-1,3,-3,-1,0,0,-2,-2
59569301748,0,-1,-1,-1,-1,-1,-1,-1
59569301748,0,-6,2,1,-1,1,0,-2
59569315387,-2,-3,-3,-4,-2,-1,-1,1
59569315387,-1,0,0,-1,-2,-2,-1,-2
59569316162,2,11,0,0,0,-3,0,0
59569316162,-14,-2,-3,-2,-3,-1,-1,-3
59569338000,0,-1,-2,-2,-1,-2,-1,-2
59569338000,2,5,-1,-1,-1,0,0,-1
59569338567,0,5,-1,-1,-2,0,0,0
59569338567,-3,-5,-2,-2,0,-1,0,0
59569361207,0,-1,-3,1,0,-3,-3,-4
59569361207,-7,-2,-1,-1,-2,0,-2,-2
59569361866,-3,-7,-2,0,-1,-1,-2,-1
59569361866,-1,-2,-1,0,-1,-1,-2,0
59569375457,-4,-5,-2,0,-1,0,-1,-1
59569375457,-4,-20,-3,-2,-3,-1,1,-4
59569376094,5,0,1,1,1,0,1,1
59569376094,7,4,-3,-1,-3,-2,-1,-1
59569397722,-3,0,-1,-1,0,-2,0,1
59569397722,1,4,-1,-1,-1,-3,0,-1
59569398508,-3,-6,-1,-3,-2,0,-1,-4
59569398508,1,-2,-1,-1,0,-1,0,1
59569420938,9,15,1,-1,-3,1,-2,0
59569420938,1,0,-1,1,0,-1,0,0
59569421734,0,-1,-1,0,-1,-1,0,-2
59569421734,0,1,-2,-4,-1,-1,-1,-1
59569435321,-5,5,5,0,1,0,1,0
59569435321,1,3,-3,-1,-1,-2,-1,-1
59569436183,-3,-3,-3,-3,0,-3,-1,-3
59569436183,-1,-8,0,-2,-1,-3,-1,1
59569458012,3,-2,-1,0,0,-2,-3,-1
59569458012,0,3,0,1,-2,0,-1,-2
59569458640,0,-4,-2,-2,-2,-2,-2,-1
59569458640,-2,-3,-1,0,-2,0,-4,-2
59569480955,-4,-8,-1,-2,-1,-2,-1,-2
59569480955,1,7,-1,-1,-1,-2,-3,-1
59569481719,-5,-4,-1,-2,-4,-1,-1,-1
59569481719,1,-3,-2,-2,-1,0,-1,-1
59569495418,14,5,3,2,-2,1,0,-2
59569495418,9,18,3,-1,-1,-1,1,1
59569496103,-1,0,0,-2,1,0,-3,-1
59569496103,-2,-6,0,-2,0,-4,-2,-1
59569517823,0,-1,-3,-1,-1,-2,0,0
59569517823,-3,-1,-2,-4,-2,-1,-1,0
59569518573,1,5,0,1,-1,-1,-2,1
59569518573,-2,1,0,2,0,1,-2,1
59569541056,-7,-5,-3,-3,0,0,0,-2
59569541056,-12,-7,-1,-2,1,0,-3,-2
59569541814,2,-16,-3,-6,-3,-3,-2,-3
59569541814,4,4,2,1,-2,1,0,-2
59569555502,-7,-4,-1,0,-2,1,0,-1
59569555502,-2,-4,-8,-4,-2,-1,-1,0
59569556181,-6,-7,0,1,-1,0,-3,-1
59569556181,0,2,-2,-4,-1,-1,0,1
59569578012,4,8,-3,-3,-1,-3,-1,-2
59569578012,2,-1,2,1,0,-1,0,0
59569578627,0,3,-1,-3,0,-1,1,1
59569578627,-2,-3,-2,-1,-1,-2,0,-3
59569601169,-5,-2,-2,0,-1,0,-2,1
59569601169,-2,-5,-1,1,0,0,-2,0
59569601703,-3,1,0,0,1,-1,1,0
59569601703,-5,1,-1,-2,-1,-2,-3,-3
59569614547,10,3,-1,-1,-1,-3,0,-1
59569614547,-2,0,1,-1,-1,0,0,-1
59569623011,2,-4,-5,-2,-2,0,-3,0
59569623011,-6,1,0,1,0,-1,2,1
59569638015,1,-5,-2,-3,0,-2,-3,-3
59569638015,-1,7,-2,-3,-1,-1,-3,-1
59569638567,2,5,3,2,-1,0,0,1
59569638567,1,-1,0,1,-1,-1,-2,-1
59569661203,-9,-5,0,-1,0,0,-2,-3
59569661203,-6,-13,-3,-1,-3,-1,-1,-3
59569661773,-5,-2,-2,-1,-2,-1,0,-2
59569661773,-2,0,-3,-3,-2,0,-2,-1
59569674834,-3,-8,-2,1,-1,1,0,1
59569674834,5,-5,0,-1,-1,-1,-1,0
59569682993,0,1,-1,1,1,0,-1,1
59569682993,0,-4,-1,-1,-3,-1,0,-1
59569698042,-3,1,0,0,-1,0,0,-1
59569698042,1,0,-3,1,-1,-3,-2,-2
59569698599,2,5,1,-2,-1,-1,-2,-1
59569698599,-4,1,1,-1,-1,0,-2,-1
59569720964,-4,-5,-2,-2,-2,0,-2,0
59569720964,0,3,-1,-1,-1,0,0,0
59569721736,3,-5,3,0,-2,-2,1,-1
59569721736,12,15,-1,1,-2,-1,1,0
59569735176,1,-5,0,-1,0,-2,0,-2
59569735176,-1,-5,-4,-2,-2,-2,-2,-2
59569743021,-16,-12,-4,-1,-2,-1,-1,-2
59569743021,-8,-5,2,-2,-1,-1,0,0
59569757889,-1,0,1,0,-2,-1,0,-3
59569757889,4,-1,0,1,0,-2,0,0
59569758585,2,2,-3,-3,-2,0,-2,0
59569758585,-2,-5,-4,-1,0,-2,-2,-3
59569781171,-6,-5,-2,-2,-2,-1,0,1
59569781171,-4,-4,1,-1,0,1,-1,-2
59569781805,0,8,0,-1,0,-2,-3,-2
59569781805,0,0,-1,0,-1,-3,1,0
59569794522,-2,-6,-3,-2,0,0,-1,-2
59569794522,0,3,1,0,-1,-1,-2,0
59569802759,0,1,-2,-1,0,-1,-2,-1
59569802759,-6,-5,-1,1,1,-1,-1,-2
59569817822,-4,-2,-4,-2,-1,-2,-3,-2
59569817822,-2,0,0,0,0,0,0,0
59569818599,2,10,-3,-1,1,0,0,-1
59569818599,-2,-4,2,-3,0,1,-1,-1
59569841038,-1,-1,-1,-1,-3,-2,-1,-1
59569841038,1,-1,-3,-6,-3,-1,0,0
59569841778,1,-1,-2,1,0,-2,0,-1
59569841778,-3,-5,-3,1,-2,0,-2,0
59569854830,3,3,2,8,0,0,0,0
59569854830,0,8,0,-18,-4,0,1,0
59569862970,-4,-4,-3,-5,-2,-1,-1,-1
59569862970,2,1,-1,4,2,1,-2,0
59569878005,-2,-3,-1,5,-8,-2,-2,-2
59569878005,0,-2,0,17,2,-1,-2,-1
59569878647,-3,-5,2,4,-3,-1,-2,-2
59569878647,-2,-5,-8,-24,-4,-2,-2,-3
59569901265,10,15,5,7,6,2,-1,0
59569901265,-4,-22,-1,18,0,0,-1,-3
59569901767,-3,-1,-2,-30,-1,0,1,0
59569901767,1,1,2,17,3,1,0,0
59569914805,-2,-5,-4,-14,-3,-3,-1,-1
59569914805,12,11,3,10,0,0,-2,2
59569923017,2,-5,-3,-19,2,0,-3,-1
59569923017,0,-3,-4,-5,-7,0,2,0
59569937695,-3,-2,-3,-9,0,2,-2,-2
59569937695,-8,-3,-2,22,-1,-12,-2,-2
59569938607,0,-1,-1,4,1,3,0,2
59569938607,-3,1,-1,-24,-7,-4,-5,-3
59569961180,-5,-2,0,8,2,0,1,-1
59569961180,-5,1,-3,-11,4,4,3,0
59569961820,-2,-3,0,-6,-4,-3,-1,-4
59569961820,-1,-2,3,5,-5,-6,-1,-2
59569983542,-2,-4,-2,-20,-1,3,0,-3
59569983542,0,3,-4,-11,1,4,-1,-6
59569984285,1,2,3,24,2,-6,-2,1
59569984285,1,0,-2,-13,-3,-8,-3,-2
59569998291,-3,0,1,2,2,0,-2,-2
59569998291,-4,2,-1,-5,-3,3,1,2
59569999019,4,-3,-2,11,-1,0,3,-2
59569999019,-2,-4,0,-23,-1,4,0,-2
59570021069,2,2,-1,29,3,-5,1,1
59570021069,-5,-4,-1,-34,-8,-10,-1,-1
59570021794,-4,-2,-2,25,-1,2,-6,-5
59570021794,-2,-2,1,13,5,0,-1,0
59570043655,-2,-1,0,-12,3,13,1,-1
59570043655,4,1,-2,13,-2,0,-1,1
59570044318,-2,-3,-2,-8,-2,-9,-3,1
59570044318,19,18,-1,-6,-8,-4,0,-2
59570057807,-5,0,-3,-9,-2,-6,-2,-2
59570057807,-2,-2,-3,-1,-4,-3,-4,-1
59570058611,2,1,0,-1,3,-4,2,5
59570058611,-1,0,0,20,6,12,3,2
59570080952,-5,-7,-1,-6,-3,2,1,0
59570080952,-1,7,1,-5,-7,-9,0,-1
59570081768,1,2,-2,0,2,3,-8,-2
59570081768,-13,-10,-4,-13,-1,-7,-2,-21
59570103666,2,3,-3,0,-2,4,2,12
59570103666,-10,-11,-1,4,4,8,-6,-6
59570104303,-10,-26,-5,-17,-9,-13,-1,-4
59570104303,-1,6,2,20,10,-6,-5,4
59570117678,-4,-14,1,0,-6,-5,-2,-5
59570117678,0,3,-1,-8,2,11,5,-1
59570118496,2,7,3,-3,-3,0,3,2
59570118496,0,-2,-4,7,-2,6,-2,0
59570141191,-3,-1,-3,1,-4,-11,-6,-1
59570141191,1,-1,1,7,2,4,-1,0
59570141842,-1,-1,-1,-11,-4,-5,3,2
59570141842,-3,-5,-2,-1,-1,3,1,4
59570163716,1,3,-2,-4,-1,-8,-7,-3
59570163716,-6,-3,-1,-1,-4,-4,-4,-2
59570164356,3,4,-2,5,0,5,3,-5
59570164356,-2,-3,-1,-13,0,8,-3,2
59570177714,1,0,0,5,1,-5,0,0
59570177714,-1,-1,3,0,-3,-11,-2,3
59570178741,0,5,-2,0,-1,-5,-7,-4
59570178741,-6,-3,0,6,1,4,13,5
59570201214,-1,-13,-1,0,2,8,2,-2
59570201214,8,-4,-3,7,2,-6,-9,-13
59570201768,0,1,0,-11,-10,-9,6,10
59570201768,-1,-4,-1,3,-1,10,4,-3
59570223422,3,7,-2,-8,3,15,-2,-1
59570223422,-12,-19,-5,-2,-6,-28,0,2
59570224212,1,-2,2,0,0,-14,-12,-7
59570224212,0,1,-1,4,4,15,0,2
59570237865,-4,0,-2,-5,-1,0,2,-6
59570237865,6,6,1,-3,0,15,-3,-7
59570238634,-5,-2,1,4,0,-13,1,7
59570238634,-3,-2,2,-5,1,-9,-7,-4
59570260321,3,3,0,6,1,5,-2,-2
59570260321,1,8,1,-14,-2,6,7,3
59570268035,-14,-12,-8,4,-5,11,-5,-32
59570268035,-2,-2,-1,-5,-7,-23,-13,4
59570283677,1,-1,2,6,2,10,11,2
59570283677,-2,4,1,-2,3,-10,-6,-13
59570284284,7,5,3,4,4,-1,-1,17
59570284284,-5,-2,-2,4,-2,2,-3,-5
59570297768,6,-4,-7,-9,-7,-11,-12,6
59570297768,-2,2,-2,-3,-3,0,4,-28
59570298539,9,4,3,2,11,36,5,34
59570298539,8,9,3,7,0,-38,-8,-2
59570321160,-2,-4,-1,-9,-11,-8,8,1
59570321160,0,-2,-2,3,0,10,-8,11
59570321787,-1,1,-1,-1,10,-4,2,-25
59570321787,3,5,4,0,-9,3,3,-11
59570343459,-3,-1,-10,-6,-11,-10,7,0
59570343459,2,-2,-1,-6,3,7,-14,12
59570345074,-14,-15,-2,6,-6,-10,8,-3
59570345074,-2,-8,-2,-2,8,16,-7,12
59570357035,-1,1,3,-15,3,-7,7,4
59570357035,4,2,2,27,0,18,12,2
59570366089,0,1,-6,-13,-12,-11,-14,-6
59570366089,-1,-4,-2,-11,-2,-11,-7,-12
59570381063,-5,-7,-11,-6,-7,-7,-12,-2
59570381063,0,4,-1,-4,12,-2,6,-1
59570382599,8,2,3,4,0,10,3,32
59570382599,0,9,-3,8,3,5,7,-11
59570403669,-5,2,-1,-5,-4,-17,-23,15
59570403669,-5,-3,4,0,-4,17,17,1
59570405032,0,0,-3,-4,-6,-26,-10,9
59570405032,3,-4,-1,-4,-2,10,7,6
59570417353,10,3,3,21,17,9,0,31
59570417353,-5,-4,-1,-9,-3,-11,-7,-42
59570426156,-6,-3,1,5,-3,7,11,-10
59570426156,-7,-4,-7,-13,-9,12,-13,-11
59570441199,5,-3,4,18,16,6,0,-3
59570441199,-2,-2,-1,-23,-14,-11,3,8
59570442604,-2,2,-3,12,4,-1,-4,-20
59570442604,1,-5,-4,-14,-17,-27,-9,-2
59570463709,-5,-2,-5,-3,-8,13,-9,-18
59570463709,1,-1,0,10,17,6,1,17
59570465077,-1,2,3,-4,4,37,10,-10
59570465077,0,2,-6,-7,-10,-43,-8,4
59570477064,-4,4,7,8,1,0,8,-1
59570477064,-6,-2,-5,2,-10,-2,-13,-3
59570486108,1,-4,-6,-5,1,4,0,11
59570486108,-5,-6,-2,-6,1,13,4,2
59570501133,-7,2,2,2,-7,-15,-6,-34
59570501133,5,-2,1,11,13,2,-4,19
59570502626,1,2,0,-27,-2,0,12,5
59570502626,-2,3,0,25,8,23,-3,-3
59570523569,-8,-4,-3,1,-4,-21,-1,-6
59570523569,0,-3,-7,-45,-1,-3,12,19
59570525091,0,-1,0,15,-11,-5,-17,-17
59570525091,-6,5,1,4,6,-9,6,-3
59570537045,-1,0,-2,12,4,20,6,0
59570537045,-4,-1,-2,-2,-14,25,-5,1
59570546063,-3,-2,1,5,2,-53,-13,-4
59570546063,0,-2,0,-1,-3,5,6,6
59570568641,1,2,3,-11,9,18,14,0
59570568641,-3,-4,-9,-4,-6,-9,0,-1
59570570094,-6,-2,-9,15,-11,-3,-15,-18
59570570094,-3,-7,-4,-9,1,3,-9,-16
59570583711,-1,0,-3,-25,-4,-22,5,27
59570583711,-1,-3,2,6,3,2,-4,-7
59570585081,1,-1,2,14,4,6,7,2
59570585081,-2,-5,-5,19,-4,-4,-1,4
59570597076,-3,-6,-12,-26,-2,7,-17,-14
59570597076,-1,1,9,39,0,-26,-10,-14
59570606125,3,0,-6,-24,-8,28,5,12
59570606125,4,-3,1,6,-5,4,-5,-46
59570620997,2,2,-2,3,-8,-31,-3,-14
59570620997,4,-2,6,27,18,17,6,6
59570622542,3,0,3,-47,1,-1,6,24
59570622542,-4,-2,0,-1,1,8,3,20
59570643529,2,-3,-1,10,-13,-4,-19,-12
59570643529,-2,7,2,-11,13,-22,-4,-29
59570645091,14,-8,-1,6,-3,27,21,46
59570645091,7,-2,-2,-3,7,-13,-1,19
59570657066,-1,6,0,21,4,8,0,-18
59570657066,-10,2,-6,-20,-20,-17,-7,-43
59570666080,-8,-5,-5,-15,1,0,-9,-10
59570666080,5,2,11,9,7,-1,8,13
59570680335,2,-7,-5,-35,-12,12,1,14
59570680335,-4,-4,-5,-5,4,4,-25,-56
59570687152,-3,6,9,59,-3,-31,-3,-16
59570687152,-14,-5,-9,-68,-6,-8,1,7
59570703523,-8,-2,0,28,9,12,-4,-34
59570703523,1,-5,-3,-33,-5,11,13,47
59570705083,9,7,2,-1,5,-2,-10,-25
59570705083,-14,-11,-2,5,-7,-6,-9,-1
59570717101,0,8,5,-16,6,4,5,-20
59570717101,-3,3,-5,7,-15,-6,-9,28
59570726109,-6,-4,4,9,6,-11,4,-15
59570726109,1,-1,1,9,-2,-2,-1,-5
59570740400,-8,-5,-2,-20,-13,-6,-16,-18
59570740400,20,-7,-9,9,3,-6,-11,20
59570747149,0,8,5,-13,0,-21,-18,13
59570747149,12,0,-3,6,5,14,11,10
59570763491,1,2,3,-2,-18,-7,34,-13
59570763491,3,5,0,3,4,-17,-12,34
59570765079,-15,1,2,-9,11,27,-23,-47
59570765079,-13,-3,7,13,-1,2,-9,-33
59570777158,1,-3,-3,28,1,-2,-2,44
59570777158,-16,-14,-4,-15,-12,-10,14,13
59570786157,9,3,-7,-10,-12,21,-18,-2
59570786157,14,3,-1,15,8,-24,52,83
59570808516,-4,0,1,-13,-4,-2,25,-1
59570808516,-3,0,-3,15,13,-9,-3,0
59570810043,-6,-3,1,11,-3,-23,4,-32
59570810043,5,-9,-12,-7,-13,40,-5,39
59570823630,11,-4,-9,-3,2,-31,33,89
59570823630,-22,2,4,-7,-7,-3,-2,49
59570825085,5,-2,2,4,8,20,3,6
59570825085,-5,-3,4,-12,-3,-3,3,-30
59570837138,-4,0,-6,-5,-8,-17,-20,6
59570837138,1,-1,3,-5,3,17,-26,-37
59570846032,30,-12,-16,4,3,-2,22,99
59570846032,2,25,6,4,8,12,-10,-40
59570860307,-7,-3,-7,4,8,6,-17,-54
59570860307,-6,1,-3,-8,-15,10,21,-55
59570867085,-21,-3,0,-4,6,-26,-20,-45
59570867085,24,7,1,4,2,-5,-6,27
59570883723,27,3,0,0,3,20,-18,17
59570883723,-16,-3,-1,9,4,10,28,18
59570885110,-11,4,-3,-12,-10,-9,-18,-70
59570885110,-5,-6,-7,-3,2,12,-2,4
59570907525,2,8,8,5,1,-26,-3,62
59570907525,20,-9,-4,-7,-4,-4,6,8
59570909055,-2,0,2,0,7,36,10,24
59570909055,-8,-12,0,-4,-4,-24,-30,-39
59570920511,1,1,1,-1,-1,7,-13,-1
59570920511,0,1,0,4,4,0,34,19
59570927432,-8,-12,-3,-5,-9,-2,-2,24
59570927432,-1,-1,-3,5,-3,-2,-4,-18
59570943658,-6,-1,-1,-5,1,5,1,-16
59570943658,2,1,3,13,-3,-11,-24,-14
59570945072,-6,-2,1,-13,-4,0,35,-16
59570945072,-8,-2,-1,10,-8,-2,-16,-11
59570973666,-17,-7,0,17,7,6,13,-31
59570973666,2,3,3,4,-2,-21,-4,-11
59570975042,7,-3,-6,-6,-2,1,-11,67
59570975042,-11,3,4,3,1,6,10,-3
59570980310,-1,-6,0,1,-7,16,-27,-30
59570980310,1,5,-2,3,2,-21,0,13
59570987029,-11,-4,-3,-10,1,9,-2,-29
59570987029,1,-2,-4,4,-3,-8,-4,16
59571003469,-8,-3,-1,-2,7,22,-2,0
59571003469,-3,0,-7,-65,-14,-10,-22,-21
59571005015,3,0,-6,5,3,-10,29,4
59571005015,-14,-1,0,-8,2,19,7,-19
59571025951,-18,-5,4,-4,-4,-24,-2,-14
59571025951,-7,-2,-1,16,1,23,10,-33
59571027532,6,2,2,13,-2,-21,1,3
59571027532,-4,-2,-1,-26,4,-1,-7,-27
59571040354,11,0,-2,20,-11,-17,-1,3
59571040354,1,-1,-1,9,6,14,-11,-4
59571047031,-6,-1,-4,-17,-5,-3,-8,-2
59571047031,0,-1,-8,-33,-6,-9,1,4
59571063701,6,0,1,-27,2,12,2,-4
59571063701,12,8,5,32,4,-3,13,28
59571065114,-4,1,2,34,-1,-8,-13,-28
59571065114,-1,-3,-5,11,-3,-7,-5,-4
59571086157,0,-1,-2,-74,-11,-8,4,-10
59571086157,1,0,-2,-10,-1,-7,-21,-10
59571087590,-3,-2,-5,-8,-1,23,12,-2
59571087590,2,-3,-11,22,6,-5,2,0
59571099853,-5,-1,0,12,-1,-3,-4,-2
59571099853,0,-4,5,-23,-4,1,2,3
59571108591,2,1,0,-15,5,8,-1,2
59571108591,0,-1,0,3,-9,-13,-1,2
59571123702,-3,-3,-3,25,4,3,-4,-9
59571123702,-3,-7,-6,-23,-15,0,-4,-18
59571125227,-3,-1,0,4,0,-11,-4,-1
59571125227,1,2,5,0,7,11,8,2
59571146182,3,-1,1,11,6,10,-3,-3
59571146182,-3,-1,-2,-19,-10,-15,-9,-6
59571147634,-4,-2,-3,-16,-6,-15,3,-2
59571147634,5,0,5,7,2,24,0,14
59571159866,-5,-1,1,5,-2,-27,-3,-9
59571159866,2,0,5,13,10,15,7,4
59571176079,-4,-1,4,-3,-11,3,-6,-12
59571176079,3,-1,-1,-3,-8,-29,-5,16
59571183400,-2,-1,1,-10,8,17,1,3
59571183400,3,9,-4,5,-1,4,6,2
59571185005,-6,-1,-5,27,5,-6,-8,-9
59571185005,-4,-1,-4,-26,-5,-3,0,-10
59571205934,2,1,0,5,-8,-16,-7,1
59571205934,-2,-3,-5,18,8,16,10,7
59571207551,0,-2,-3,-11,0,-1,-10,-4
59571207551,-11,-4,-2,9,6,0,-8,-10
59571219550,4,1,-8,3,2,15,4,-1
59571219550,-1,-3,-2,20,-6,-25,-4,-2
59571228583,0,-1,2,11,-5,1,-5,-5
59571228583,-3,-4,2,-4,-2,8,3,14
59571243513,2,2,4,7,3,-3,4,0
59571243513,-7,-17,2,3,0,0,-2,-16
59571245115,5,3,-2,-10,-6,13,-3,5
59571245115,10,3,-2,-7,0,-36,1,14
59571273394,-7,-3,-4,-4,0,-11,-5,-11
59571273394,1,2,-2,-41,-4,14,0,6
59571275101,-4,-1,-3,0,4,-5,-2,-4
59571275101,-4,-3,-15,9,-4,11,-4,-17
59571279575,-2,-3,-7,10,-3,5,4,0
59571279575,1,-4,0,0,1,-18,-7,-5
59571288586,-4,-1,3,-6,-3,-1,0,-4
59571288586,3,4,7,3,0,-3,-2,-3
59571303394,-3,-3,3,3,1,11,11,3
59571303394,-2,2,4,3,-4,-9,-8,-1
59571305119,3,0,9,18,5,15,7,3
59571305119,-1,-2,-3,-19,-13,-17,-4,4
59571325910,-1,-1,-7,-3,2,3,-11,-5
59571325910,0,-3,-7,3,4,23,9,2
59571327557,3,10,-1,-3,2,-33,-6,20
59571327557,0,-1,2,1,0,-2,1,-7
59571339578,2,1,5,6,-4,12,-1,-12
59571339578,4,1,-3,-14,-6,-7,3,10
59571348614,-1,-2,-3,0,5,15,-2,-2
59571348614,-3,-2,-2,1,0,-1,-1,-17
59571363444,6,1,1,-8,-4,-10,-6,5
59571363444,1,2,-1,13,1,0,-1,5
59571365046,-4,-5,-5,-16,-5,13,-4,-10
59571365046,-1,-2,1,-1,2,-7,6,-9
59571385876,-1,-1,3,-1,5,4,-3,-26
59571385876,0,-2,-2,11,-7,-10,3,19
59571387519,-2,-3,-1,-9,-6,-3,-4,-8
59571387519,-4,-2,-5,-2,2,8,-3,-11
59571399582,-4,0,-1,3,-3,-7,-1,-2
59571399582,-2,1,-3,-3,-2,-1,-3,-9
59571408576,0,-3,-4,-5,2,-22,-6,-12
59571408576,-3,-2,0,4,1,20,5,11
59571423388,-4,-1,-3,-1,-3,-7,-5,8
59571423388,1,0,2,2,-1,-17,-3,-4
59571425063,0,-2,-2,4,-3,7,3,3
59571425063,0,-2,-1,1,-9,-19,-9,-19
59571445909,-3,-3,-4,-1,1,-4,-1,13
59571445909,-3,3,1,-2,8,29,1,-4
59571447539,-1,1,-3,-4,-3,-5,1,-3
59571447539,4,2,1,4,3,11,-2,11
59571459607,0,-2,3,-6,-7,-35,0,0
59571459607,0,-1,-2,-3,-2,-2,-8,-1
59571468516,-2,1,3,4,0,-3,-3,-8
59571468516,-1,1,1,0,0,16,8,5
59571483419,0,2,-2,-4,-5,4,-1,4
59571483419,-2,-2,-2,-2,2,0,3,1
59571485040,-3,-5,-1,-1,-1,3,-2,-3
59571485040,-4,-1,-3,2,0,2,3,0
59571505986,-1,0,-1,2,1,4,-6,0
59571505986,-3,-1,-1,0,-8,-18,-5,-8
59571507557,-2,-2,-4,-5,-1,-2,0,4
59571507557,-6,-1,0,1,-1,7,-2,11
59571519561,0,-1,-2,-6,-3,-1,0,7
59571519561,-1,-2,-2,0,-2,0,-1,-5
59571528570,1,-1,0,-1,0,7,3,-1
59571528570,-2,0,1,3,-7,-38,-7,-11
59571543421,-3,-3,-6,-4,3,19,6,0
59571543421,-1,-1,1,2,5,15,2,2
59571545059,3,-1,1,-1,-3,-10,1,-2
59571545059,2,-1,-1,-1,3,12,-2,-7
59571565940,-4,-1,-1,-1,-4,-8,-5,-1
59571565940,-1,0,-2,-1,-2,-9,-2,-7
59571567594,-5,-2,-2,1,-4,5,-1,-1
59571567594,0,-1,1,-1,4,-10,-5,3
59571579525,-2,-3,0,-1,-1,3,4,-4
59571579525,-3,-3,-2,-2,-5,-5,-2,8
59571588591,2,-2,-1,2,3,8,5,6
59571588591,-3,-2,-1,-2,-4,2,-6,-5
59571603403,4,10,-1,-4,-1,-6,2,-5
59571603403,-3,-1,0,-3,-5,1,-3,-4
59571605047,-2,-1,0,-5,-6,-10,-3,0
59571605047,-1,0,-2,-2,3,15,2,0
59571625906,1,1,-8,1,1,-13,-3,-2
59571625906,0,0,1,1,1,13,0,0
59571627488,-1,-1,-2,-2,0,2,4,0
59571627488,0,-2,0,-5,-6,-11,-5,-3
59571639570,-4,-4,0,-1,-7,-7,-4,-1
59571639570,-5,-2,-3,0,3,10,-5,-9
59571648620,-2,-3,0,0,4,-9,-1,1
59571648620,3,1,-2,1,-3,12,2,7
59571662810,-1,-4,-2,-3,-2,8,0,-1
59571662810,-2,-2,-3,-1,-6,-23,-2,-3
59571669545,1,1,-1,1,-2,13,1,-1
59571669545,-2,-5,-5,1,0,-11,-3,-8
59571685922,-5,-2,0,-1,-3,-11,-1,18
59571685922,2,1,2,1,4,11,3,3
59571687550,0,-2,-2,-1,-2,-2,-4,-1
59571687550,2,0,0,2,-2,-3,2,1
59571699544,1,0,1,-5,-2,5,-3,-3
59571699544,-3,-4,-4,-3,1,0,3,0
59571708565,0,-1,2,-1,-4,-13,-8,0
59571708565,-3,-1,2,1,1,0,1,-3
59571722165,1,-1,2,2,3,24,1,1
59571722165,0,1,1,0,-1,-16,-5,-6
59571731060,-1,0,-1,-2,-5,-3,-2,-2
59571731060,-2,-2,-3,-11,-5,-8,-4,-2
59571745900,-7,-2,3,4,1,2,3,-9
59571745900,11,1,0,0,2,5,4,23
59571747527,-3,0,-3,2,-3,-5,-2,0
59571747527,-3,-1,-2,-4,-1,-2,-3,-3
59571759627,-4,-2,-2,1,1,-2,-3,-6
59571759627,-6,-1,-1,0,-4,-2,-3,-7
59571768549,-1,-1,-3,-3,0,-2,0,-1
59571768549,-4,-2,-1,-1,0,0,-5,-2
59571782797,1,-2,-1,1,0,-4,-3,-1
59571782797,2,1,4,1,-1,-3,5,10
59571789533,-4,-3,-3,1,-3,0,1,12
59571789533,13,2,2,-4,-1,2,-3,6
59571805920,3,-3,-3,5,-1,-1,16,7
59571805920,0,1,0,1,4,8,16,0
59571807553,0,0,0,-16,-4,-13,-11,-9
59571807553,1,2,1,8,4,7,3,6
59571819574,-1,-1,-5,-14,-4,-1,-9,-2
59571819574,-2,-2,-6,-5,-5,-1,-10,-8
59571828579,-1,-2,1,11,3,3,4,0
59571828579,-5,-1,-1,15,-1,-3,-3,-8
59571842748,-1,-3,1,-11,-4,-5,-5,-7
59571842748,-3,-2,-3,-9,-3,-1,-3,-6
59571849539,-1,-2,-1,1,1,0,-3,0
59571849539,-7,-1,-4,-25,1,-2,-3,-12
59571865950,-1,-1,0,36,-2,-1,5,6
59571865950,-1,-3,1,7,-1,-2,-7,2
59571867550,1,0,2,19,0,-1,4,-3
59571867550,-5,-4,1,-10,0,-5,3,-1
59571888452,4,1,4,-3,2,6,-1,6
59571888452,-6,-2,6,-12,1,-3,-2,-16
59571890049,-1,-4,-6,4,-8,-2,-7,1
59571890049,-4,-1,-1,-8,0,0,3,3
59571903174,-1,-3,0,1,1,-4,-5,1
59571903174,1,0,-2,-41,-8,-1,-9,-17
59571911074,0,-2,0,11,2,0,5,12
59571911074,2,7,-4,-1,-1,0,3,-3
59571925934,0,-1,0,-4,2,-2,-1,15
59571925934,-2,-5,-2,20,2,-2,-8,-6
59571927544,-6,-6,-7,-34,-6,0,2,-3
59571927544,14,6,2,25,-1,-1,-3,-3
59571948399,6,7,-3,-31,-4,-1,6,3
59571948399,-9,-5,-9,-19,-7,-4,-9,4
59571950007,1,3,1,9,2,1,12,5
59571950007,-14,-15,-2,-25,-5,1,-7,-6
59571962069,0,9,3,43,8,-2,-3,-13
59571962069,-1,-10,-2,10,-9,-4,-1,8
59571971076,-1,6,1,-28,-1,0,-4,-23
59571971076,-9,-5,0,17,0,0,-1,-14
59571985953,-7,2,2,-13,-5,-3,-1,-3
59571985953,4,5,-2,9,5,-1,3,4
59571987550,3,-4,-4,12,-3,-3,-7,-3
59571987550,5,2,0,-6,1,-1,5,7
59572008403,4,-4,-4,-29,-7,0,-8,-4
59572008403,12,10,1,41,5,-3,0,1
59572010052,-6,-5,2,-8,0,2,3,1
59572010052,-9,-9,-3,18,0,-2,0,5
59572022093,-2,2,-4,12,1,0,0,0
59572022093,0,-9,3,-12,0,2,-2,-12
59572031044,3,6,3,-4,-3,-2,-5,0
59572031044,-15,6,0,-50,-8,-2,-4,8
59572045909,16,8,6,7,2,0,-4,-5
59572045909,8,11,8,15,1,3,2,8
59572047505,4,1,0,-7,1,-1,-4,-5
59572047505,-6,-4,-3,13,-2,-1,3,-4
59572068461,-7,-8,-9,-8,-4,-5,0,-7
59572068461,-6,-5,-7,-3,0,-4,4,-2
59572070062,-6,-2,0,25,3,0,0,3
59572070062,19,6,-3,-16,-9,-1,1,4
59572082043,-14,-26,0,17,6,2,0,-2
59572082043,2,0,-2,-25,-9,-2,1,-9
59572098605,-5,-6,-3,5,-1,-1,-3,4
59572098605,5,5,2,22,0,-3,-2,3
59572105958,-12,-2,-4,-18,-3,-1,-1,-32
59572105958,-10,-2,-1,6,-1,2,-2,2
59572107552,-3,-5,-4,-9,-2,-1,-3,-5
59572107552,9,3,-4,2,1,-2,-1,5
59572128364,8,-6,1,1,-1,-1,1,11
59572128364,-7,4,1,-1,2,-2,1,5
59572129994,-4,2,-2,-6,-1,1,-1,-2
59572129994,13,-9,0,6,1,1,1,12
59572143518,10,8,1,-6,-3,-2,-6,-4
59572143518,-49,-37,-5,-4,-1,-3,-2,-15
59572151121,30,13,1,4,0,-1,1,8
59572151121,-5,-3,1,0,-1,0,-2,-22
59572165962,-28,4,-1,0,-2,-2,-4,4
59572165962,-10,0,4,-6,2,2,0,-22
59572167553,-7,-5,-5,4,-1,-3,-3,-5
59572167553,-7,-3,-1,-5,1,-1,-3,4
59572188410,2,1,-2,0,0,-1,1,3
59572188410,11,4,-4,7,0,-1,0,3
59572190030,-8,-2,1,-3,-3,-1,-1,4
59572190030,1,-1,-2,5,-1,0,-1,-8
59572202058,-4,1,-2,1,-1,-1,-1,-3
59572202058,10,-7,-3,-4,0,-3,-2,13
59572211110,-6,-5,0,-9,-1,0,-1,-1
59572211110,3,10,1,12,2,-1,-1,-1
59572224953,4,2,-5,-41,-6,-2,-1,2
59572224953,0,6,-2,-3,-2,-1,0,6
59572233609,-8,-3,-4,-4,-3,-3,-3,-11
59572233609,0,-3,-2,6,0,-1,-3,6
59572248449,-4,-10,1,10,2,-1,-1,-3
59572248449,4,6,-2,-3,-4,-2,0,3
59572250057,0,-5,0,-1,2,-1,-2,-2
59572250057,-9,3,1,-14,-3,-1,0,4
59572262051,-4,3,-2,0,-2,-2,1,2
59572262051,8,-4,-1,-4,1,-1,0,0
59572271120,7,13,4,10,1,-2,-1,-1
59572271120,-10,-11,1,4,3,1,0,-1
59572285968,8,14,2,2,-1,-1,-4,-1
59572285968,-8,-3,-5,-7,-3,-3,-1,1
59572287554,-2,0,0,6,1,-1,0,3
59572287554,-5,-16,-4,11,-3,-3,-2,1
59572308404,-6,-1,-1,-41,-7,0,-1,-17
59572308404,13,12,0,13,1,-1,-1,-14
59572310002,2,-34,-7,-9,-2,-2,0,14
59572310002,-8,12,0,5,1,-1,1,0
59572322064,7,-4,-2,14,0,1,-2,5
59572322064,5,-6,-3,-3,-3,-1,-1,0
59572331034,-6,0,2,-12,-5,-1,-3,-5
59572331034,7,-4,-4,-1,1,-1,0,-5
59572345880,0,-10,2,-1,-2,-3,0,1
59572345880,3,6,2,6,1,0,-1,5
59572347560,-14,0,-3,-11,-1,-2,-4,-7
59572347560,-2,-2,0,-2,-3,-1,-1,-2
59572368410,2,-2,-2,13,2,-1,-2,3
59572368410,-5,11,-2,-9,-3,-1,-1,2
59572370049,4,15,1,-4,0,-1,0,-1
59572370049,1,-2,0,-3,-1,-1,-3,-6
59572382084,-3,-4,0,8,2,1,-1,1
59572382084,2,3,0,-13,-4,0,-1,1
59572391055,-2,-2,-2,9,-1,-1,-1,-2
59572391055,-3,0,-2,-9,-1,-1,0,-2
59572405905,1,-3,5,4,0,-2,-1,1
59572405905,15,-22,-3,-3,-3,-1,-3,0
59572407501,-4,14,4,-1,-1,-2,1,1
59572407501,7,1,-2,-2,-3,-2,-2,-10
59572428479,-5,-8,-4,-3,0,0,-1,3
59572428479,8,8,1,6,1,-1,-1,2
59572430052,-1,-5,-3,0,-1,-1,-1,-5
59572430052,-1,-5,-1,-7,-5,-4,-3,-2
59572442154,4,5,0,2,-1,-2,0,1
59572442154,15,7,1,4,1,0,2,0
59572451038,-3,-8,-1,2,-1,0,0,-3
59572451038,-3,7,0,0,-1,1,-1,2
59572465936,-6,-11,-2,2,-1,0,-1,-4
59572465936,-12,-2,-2,-6,-3,-1,-2,-1
59572467493,-2,-3,0,-1,-1,-1,-2,-2
59572467493,0,-5,-2,-2,-1,-2,0,0
59572488425,0,0,-1,2,-1,-2,-1,3
59572488425,-11,-4,0,1,0,-1,-1,1
59572490056,0,-6,-3,-1,0,-3,0,-2
59572490056,6,3,-1,-5,-5,-3,-2,0
59572510899,-4,-1,0,1,0,0,-2,-2
59572510899,-7,0,1,0,-1,-1,0,-2
59572512538,4,0,-3,-2,0,-1,-1,1
59572512538,-4,-4,-2,-1,0,-1,-1,2
59572525902,2,6,-2,-2,-3,-2,-2,-10
59572525902,-12,-14,-1,3,-1,-1,3,1
59572527519,-3,-4,-1,-3,0,0,-1,-2
59572527519,-1,-4,-2,1,1,1,0,-1
59572548417,5,-1,-4,-2,-2,-2,-1,5
59572548417,-11,1,-2,-3,-1,-1,-2,-4
59572550024,5,3,0,1,-2,-1,-1,-2
59572550024,-5,-17,-3,-3,0,-1,-1,1
59572562116,0,-6,0,2,-1,0,-2,1
59572562116,1,-1,1,0,0,-2,-2,-1
59572571049,-7,-4,-3,-1,-2,-1,0,-1
59572571049,1,3,1,0,1,2,-1,-3
59572585940,-2,-2,-1,1,-1,-2,-1,0
59572585940,0,6,-6,-4,-2,0,-1,0
59572587524,-5,-3,4,2,0,-1,-1,-3
59572587524,3,6,2,0,-2,-2,1,-1
59572608428,-5,-1,0,-3,-2,-1,1,0
59572608428,0,15,0,3,2,-2,-1,0
59572610056,2,-3,-3,-6,-2,0,-2,-3
59572610056,-3,3,0,-1,0,-1,-2,-2
59572622050,-2,-1,0,-1,-2,0,0,-1
59572622050,5,-5,-5,-2,-4,-1,-2,-2
59572631077,0,6,2,2,1,0,2,1
59572631077,-4,-4,0,0,-2,-3,-1,3
59572645930,2,3,0,0,-1,-2,0,-10
59572645930,-24,-20,0,-2,-1,1,0,0
59572647522,1,-2,0,-2,-3,-1,-2,1
59572647522,-4,3,-3,-2,-1,0,1,0
59572668411,-3,1,-3,1,0,-1,-1,2
59572668411,7,0,-2,0,-1,-1,-1,1
59572670024,14,13,-1,1,-1,0,1,0
59572670024,0,-13,-3,-3,-2,0,-2,4
59572682052,-2,-2,-1,-4,0,1,1,-4
59572682052,3,-1,2,1,0,-2,0,-3
59572691108,-3,1,-2,0,0,0,-1,1
59572691108,3,3,-4,-1,-3,-3,-3,-3
59572713408,-2,-1,0,-3,-4,-2,-2,-2
59572713408,-2,-4,-1,0,-1,-3,-1,2
59572714986,-3,-3,2,-3,-3,-4,0,0
59572714986,-6,-8,1,0,0,-2,-3,-7
59572728405,0,-1,-2,0,0,-1,0,5
59572728405,-8,0,-2,-5,1,-2,-2,-4
59572730002,8,8,-4,-5,-4,-3,-4,-3
59572730002,3,2,1,0,0,2,3,0
59572742046,-1,2,0,1,-2,-1,-1,-2
59572742046,1,-7,-2,0,-1,-2,-1,2
59572751131,-4,-2,-5,2,0,-1,-1,1
59572751131,6,2,2,-3,-2,-2,-1,-4
59572765958,-1,-2,0,0,-1,0,-1,1
59572765958,3,2,-1,-3,-3,-1,0,1
59572767553,-5,-10,-2,0,0,-1,-2,-4
59572767553,0,5,-1,0,-2,-2,-1,0
59572788406,5,1,1,-2,0,-1,-1,0
59572788406,-7,-3,1,0,0,1,-1,-1
59572790012,-6,-1,-3,1,-2,0,0,-5
59572790012,2,-19,-3,-2,-1,-1,1,4
59572810948,-7,4,1,-2,0,-2,1,-7
59572810948,2,2,-2,-1,1,0,0,2
59572812571,-4,-5,-1,1,-2,0,-3,-1
59572812571,-5,1,-3,-12,-3,-1,-2,-1
59572825947,22,-8,-4,1,-1,-1,-2,-6
59572825947,5,3,3,0,-1,0,-1,1
59572827553,-15,-8,-1,0,-1,-1,-2,1
59572827553,5,1,-3,2,0,-1,0,-1
59572848413,1,4,-2,-1,0,-1,1,3
59572848413,-2,0,0,-2,-3,-1,-2,-2
59572850027,5,-2,-1,-2,-1,-1,-1,0
59572850027,-15,0,0,2,1,1,-2,-6
59572870892,-4,-2,0,-3,-2,0,0,6
59572870892,5,4,-1,2,-2,-2,-1,-3
59572872547,-2,13,1,-2,-1,0,1,-1
59572872547,-1,8,0,0,-1,-3,-3,-2
59572885913,-10,-6,-3,-1,-1,-1,-4,0
59572885913,-4,-3,-1,-1,0,-1,0,-1
59572887553,1,4,-1,-8,-1,-1,-1,-2
59572887553,3,2,0,-1,0,0,0,3
59572915891,-5,-2,-1,1,-1,-1,-1,-3
59572915891,1,3,-4,-1,0,-1,-2,0
59572917514,-21,-18,-3,-4,-1,-2,-4,-15
59572917514,-2,1,0,1,-1,0,0,-3
59572930895,-9,-9,1,-2,-3,-2,-1,0
59572930895,2,0,-1,-2,0,-1,-1,0
59572932530,-1,-1,2,1,1,0,1,4
59572932530,-1,-2,-3,-2,-2,-1,-2,2
59572945265,-7,-19,-6,0,-2,0,-2,-4
59572945265,2,13,-1,-6,-4,-3,-2,-2
59572952066,7,4,1,2,0,0,-2,4
59572952066,1,0,0,-8,-1,1,-2,-3
59572968397,3,4,-1,2,1,0,-1,-1
59572968397,-1,-2,-4,-1,-3,0,-3,-2
59572969987,-1,-7,-5,0,-1,-1,0,1
59572969987,-3,-1,1,1,-1,-1,0,-3
59572990937,-2,6,-1,-1,-1,0,-2,1
59572990937,-4,-7,0,-1,1,-1,-2,-2
59572992555,2,-5,-2,0,0,-1,0,-2
59572992555,-12,-2,-6,-2,-3,-2,0,-2
59573005231,-2,2,1,-1,-2,-2,-2,-1
59573005231,-5,-7,2,1,0,0,0,0
59573012064,1,-1,-1,1,0,0,-2,2
59573012064,1,0,-1,0,-2,-1,-4,0
59573028469,-2,-1,-1,-2,0,0,0,-1
59573028469,-4,-3,-2,-3,0,-1,-1,-3
59573030061,-3,0,-1,-1,-2,1,-1,0
59573030061,2,2,1,1,0,-1,0,0
59573050881,4,-10,-4,-5,-3,-3,-3,-2
59573050881,-11,-24,-3,-3,-2,-1,-1,-1
59573052526,0,1,-2,-1,-2,-1,-1,-2
59573052526,-1,-5,-1,0,1,0,-1,-1
59573065261,0,5,-1,-1,-2,-1,-1,-1
59573065261,11,3,-2,0,-2,0,-1,2
59573072014,-3,-3,0,-2,-1,-2,0,-4
59573072014,-3,-1,0,2,0,0,-2,0
59573088365,-1,-1,0,-2,0,0,-2,-1
59573088365,-1,4,2,0,0,0,-1,-1
59573090003,1,-3,-3,0,-1,-1,-1,0
59573090003,1,10,0,2,-1,1,1,-14
59573118103,-12,-16,0,-1,1,0,1,1
59573118103,-8,6,4,-1,0,-1,0,-4
59573125920,9,8,1,-4,1,-2,-1,0
59573125920,-3,-5,-2,-1,-1,-2,-1,1
59573126712,0,5,-1,-2,-1,-1,-1,-1
59573126712,1,-1,-3,-2,0,1,-3,-3
59573132040,-1,-4,-1,-3,-1,-2,-2,2
59573132040,-3,-3,0,-1,-2,-1,-2,1
59573148462,4,4,1,3,0,-1,0,0
59573148462,6,7,-1,-2,0,-1,-1,3
59573150010,-5,6,-1,1,1,0,0,-4
59573150010,-1,-2,-3,-2,0,0,-1,2
59573170984,10,8,1,0,-1,0,0,2
59573170984,-2,-1,-1,-3,-2,0,-2,0
59573172554,-2,-4,0,-1,-3,-2,-1,0
59573172554,3,-1,0,1,0,0,-1,-1
59573185288,0,4,0,-1,-1,-3,-3,-1
59573185288,-1,-12,-1,0,0,-1,0,-2
59573192103,1,-14,-3,-3,-3,-1,-3,12
59573192103,6,7,2,0,-1,-1,-2,-8
59573208417,-3,1,-3,0,0,0,-1,0
59573208417,1,3,-2,0,-2,0,-1,-2
59573210012,2,2,-2,-1,0,-1,-3,-2
59573210012,1,1,-2,0,-2,-1,-1,1
59573230860,-5,-12,-2,-1,-1,0,-1,1
59573230860,2,-3,-4,-2,-3,-3,-1,9
59573232487,-4,-3,-1,-5,-1,0,1,-3
59573232487,-3,-7,-5,-3,0,-3,-3,0
59573245262,1,7,1,-1,-2,1,-1,-5
59573245262,-3,-2,-2,1,-2,0,-1,-1
59573259552,-2,1,-1,-1,-2,2,-1,-5
59573259552,-6,-5,0,-1,-2,0,-1,1
59573268443,-1,-1,1,1,-1,-2,1,2
59573268443,2,10,1,-1,-2,0,-1,-1
59573270063,-3,-12,-3,-1,0,-2,-2,-5
59573270063,1,-3,0,0,-2,-1,-1,1
59573290865,-12,5,-1,0,0,-2,-2,-3
59573290865,-4,11,1,1,1,-1,-2,-4
59573292577,-4,10,1,0,-1,-2,-1,-7
59573292577,3,1,-1,-2,0,-1,0,2
59573304581,1,-20,-5,-3,-2,-1,-1,4
59573304581,-11,-5,1,0,-2,0,0,-6
59573321093,-5,0,-3,0,-2,-1,1,1
59573321093,1,-3,-3,-1,-2,0,-2,-2
59573328376,5,5,-1,-3,-3,-1,-3,-2
59573328376,23,13,0,-1,-1,-1,-1,1
59573330046,-8,-7,1,2,-2,0,0,-4
59573330046,-2,-1,-3,-1,-2,-1,-1,1
59573350858,-7,-3,-5,-1,-1,0,-2,-5
59573350858,-3,-5,-1,1,-1,-2,0,-3
59573352530,3,-12,-1,-1,-1,-3,-1,3
59573352530,1,2,2,-1,0,-3,1,1
59573364653,-3,5,0,-1,0,-2,0,-4
59573364653,-6,-8,-4,-2,-2,0,-2,-2
59573373536,4,5,-3,0,0,1,1,0
59573373536,-6,-7,-2,-2,0,0,-1,-4
59573388416,-1,-3,-2,-1,-2,-2,-2,2
59573388416,-5,-6,-2,-1,-1,-1,-2,-8
59573390014,-4,2,1,0,-1,0,-2,-4
59573390014,0,1,-3,-3,-1,0,-1,-2
59573411000,7,1,0,-1,-2,0,0,8
59573411000,-8,10,0,-1,0,-2,1,-4
59573412528,-2,2,-2,0,-1,0,-2,-2
59573412528,-2,1,-1,1,0,-1,-1,-2
59573424523,0,-4,1,2,0,1,-2,-2
59573424523,4,1,-3,-1,-2,-1,0,2
59573433561,-3,-1,0,-3,-2,-2,-1,-2
59573433561,6,5,-2,0,-2,-1,-2,4
59573448423,-8,-5,0,-1,-1,-1,2,-21
59573448423,-3,-7,-1,-1,0,-1,-3,4
59573450023,1,1,-1,1,0,0,0,5
59573450023,3,1,1,-3,-1,-1,-2,-8
59573470960,-2,1,-3,1,0,-1,-1,1
59573470960,-2,-5,-4,-2,-1,0,-1,1
59573472568,3,2,0,1,0,0,0,-2
59573472568,-5,-4,0,-2,-3,-2,-1,0
59573484519,0,1,0,-2,0,-1,-1,1
59573484519,-2,-5,1,-2,-2,-3,-1,-2
59573493592,0,-3,-5,-3,0,-3,-2,3
59573493592,-3,-1,-1,0,0,1,1,-1
59573508435,-3,-1,-1,-2,-2,-2,-3,1
59573508435,-1,-4,-2,0,1,0,0,0
59573510038,13,-4,-2,-1,-1,-2,-2,-4
59573510038,-3,-9,-2,-1,-1,0,1,0
59573530894,4,0,0,-4,-3,-3,-1,-1
59573530894,0,6,1,0,0,-3,-2,0
59573532505,-1,-5,1,-2,-1,0,-1,-9
59573532505,-3,-1,-3,-2,-1,-2,-1,2
59573544576,-1,-1,1,0,-1,0,-1,3
59573544576,4,6,-1,-1,0,1,-2,-2
59573553613,-5,7,3,1,0,-1,-1,2
59573553613,3,-1,-3,-2,0,-2,-3,0
59573568402,-4,-1,0,0,0,0,0,0
59573568402,-3,-5,-3,-2,-1,-2,-2,-3
59573570038,-5,1,-1,-1,-1,0,-1,-2
59573570038,-5,-3,-1,-3,-2,0,-1,0
59573590916,3,-1,-2,-1,0,-3,-2,1
59573590916,-5,-3,-1,-1,-1,-1,-2,-8
59573592621,0,-1,-3,-1,-3,-1,-2,6
59573592621,0,2,2,3,1,-1,-1,-1
59573604584,-2,-1,-2,-4,0,-2,-1,-2
59573604584,-4,-7,2,2,1,-1,0,-2
59573613519,6,1,-3,-3,-1,0,0,10
59573613519,-16,5,-3,-2,-3,-1,-2,-15
59573628388,-11,-9,-3,-2,1,-1,-2,0
59573628388,0,-2,-2,-1,-1,-1,-2,2
59573630014,0,0,0,-3,-3,-3,-4,-1
59573630014,5,1,-3,-1,0,-1,2,5
59573650869,-3,13,-1,0,0,0,0,-1
59573650869,-5,-15,-4,-1,-3,-1,0,-2
59573652514,-4,-1,-1,-1,1,0,2,-1
59573652514,-2,-2,-1,-2,-1,-3,-3,-3
59573664600,5,1,2,-1,-1,-2,-1,0
59573664600,4,-4,-3,-2,-1,-1,-2,3
59573673559,-2,2,3,-1,0,-1,0,-9
59573673559,2,-3,1,-1,-2,-2,0,3
59573688413,1,-3,-2,-2,-2,0,-1,-2
59573688413,-6,-10,-4,-5,-2,-2,-4,7
59573690014,-1,2,0,0,0,1,-1,-5
59573690014,-22,-2,-1,-1,0,1,-1,-27
