timestamp,emg1,emg2,emg3,emg4,emg5,emg6,emg7,emg8
83406305506,-1,0,-1,-1,-1,-2,-2,0
83406305506,-2,-1,0,-2,-2,0,-1,-1
83406307089,-1,-1,-1,0,0,1,1,-2
83406307089,0,-1,-2,-1,-2,-2,-1,-1
83406328021,0,-1,-2,0,-2,1,-2,-2
83406328021,1,-1,-3,-1,-2,0,-1,0
83406329696,-2,-1,0,-2,-1,-1,0,-1
83406329696,-1,-3,0,-2,-2,0,0,-1
83406343032,-2,-1,-2,0,0,-1,-1,0
83406343032,-2,-2,-1,1,0,0,-1,-2
83406344614,-2,-1,-1,-1,-1,-2,-2,0
83406344614,-1,0,-2,-1,-2,-1,-1,-2
83406356720,0,-1,-1,-2,-2,0,-1,-1
83406356720,-2,-2,-1,-2,0,0,-1,-1
83406365632,0,-2,-1,-1,-1,1,0,0
83406365632,0,0,0,-1,0,0,-1,-1
83406380490,-1,-3,-2,-2,0,-2,0,-3
83406380490,-2,-1,-1,-1,-2,-1,-1,-2
83406382075,-1,-2,-2,-1,-2,0,0,-1
83406382075,-1,-1,-2,-1,-1,-2,-1,0
83406402953,1,-2,-2,0,-1,0,0,-1
83406402953,0,0,0,-1,-1,-1,1,-1
83406404562,-2,-1,0,-3,-1,-4,-2,-1
83406404562,-1,-2,-2,0,-1,-2,-1,-2
83406416706,-2,0,0,-2,-1,-1,-2,0
83406416706,0,-2,-1,0,0,-2,-1,1
83406425628,-2,-1,-2,0,1,0,-2,-1
83406425628,0,-2,0,-2,0,-1,1,-2
83406440443,-2,0,-1,-1,-1,-1,-2,-1
83406440443,-2,0,0,0,-2,-1,-2,-1
83406442081,-3,-1,-1,-1,-1,-1,-1,-1
83406442081,-2,-2,-1,0,-1,-2,-2,0
83406463203,-1,-1,-2,-2,-1,0,-1,-1
83406463203,0,-1,-3,-2,0,0,0,-2
83406464649,-1,-1,-2,-1,-3,-1,-2,0
83406464649,-1,0,-3,-2,-3,-2,-1,0
83406476629,-1,-1,0,-2,-1,-2,0,-2
83406476629,-1,-2,-1,-1,-1,0,-1,-2
83406485641,0,0,0,0,-2,0,0,-1
83406485641,-1,1,-1,-1,0,0,0,-3
83406500467,-1,0,0,1,-3,-2,-1,0
83406500467,0,-3,-2,-2,-2,-2,-3,-1
83406502108,-2,-1,-2,-2,-1,0,0,0
83406502108,-1,0,-2,-1,-2,1,-2,-1
83406523017,-1,-1,-3,0,-1,-1,-1,-2
83406523017,-2,0,0,-2,0,-2,-3,-1
83406524732,-2,-1,0,-2,-2,-1,0,0
83406524732,-3,0,-2,0,-1,0,-1,0
83406536710,-1,-1,-1,-1,-1,-1,0,-2
83406536710,-1,0,-3,-1,0,-1,1,0
83406545695,0,-1,-2,-3,0,-1,0,-2
83406545695,-2,-1,0,-1,-1,-2,-1,-2
83406560652,0,-1,-2,-2,0,-2,0,-1
83406560652,0,-2,-1,-1,-1,-3,-2,-1
83406562126,-1,0,0,-1,0,-1,-2,-1
83406562126,0,-1,0,0,-1,-1,0,0
83406582966,-1,-1,-2,-1,1,0,-3,-2
83406582966,-1,-1,-1,-3,-1,-2,-2,-2
83406584592,-2,-1,-2,-1,-1,-2,0,1
83406584592,-2,-1,-2,-3,-1,-1,-1,-1
83406596591,-2,-1,-2,-2,-1,-1,-2,-1
83406596591,-2,0,0,-2,-1,-1,-1,-1
83406605686,-1,-2,-1,0,-1,-1,0,-2
83406605686,-1,-1,-1,0,-2,-2,-2,1
83406620497,-2,-1,0,0,-2,-1,-2,-1
83406620497,1,-1,0,-2,-2,-1,-1,-3
83406622153,0,0,0,-2,-2,-1,1,-3
83406622153,-2,-1,-2,-2,-1,-1,1,-1
83406642988,0,-2,-1,0,-1,0,-1,-1
83406642988,-1,-1,-2,-1,-2,0,-1,0
83406644596,-3,-2,-2,-1,0,0,-2,-2
83406644596,-1,0,-1,1,-1,0,-1,-2
83406656624,-2,0,-1,-3,-1,0,0,-1
83406656624,-2,0,-2,-1,0,-2,-1,-1
83406665564,-1,-1,-1,-1,-1,-1,-3,0
83406665564,0,-1,0,-1,1,-1,-2,-1
83406680474,-1,-2,0,-2,-1,-1,0,0
83406680474,0,0,-2,0,-2,1,1,-1
83406682079,0,0,0,-2,-1,-1,-2,-1
83406682079,0,-3,-1,-2,-1,-2,-1,-2
83406703078,-2,-2,-2,-3,-1,-1,-1,-2
83406703078,-1,-1,-2,-2,0,-1,1,-1
83406704670,1,-2,-2,0,-1,0,-1,0
83406704670,-1,-2,0,-2,-1,1,-1,-2
83406716821,-2,-1,-1,0,-1,-2,-1,-1
83406716821,0,-1,-2,-1,-1,-1,-2,0
83406725666,-1,0,-1,-1,-1,-3,-1,-1
83406725666,-1,-2,-1,-2,-1,-2,-3,1
83406740715,0,-2,0,-1,-2,0,-1,-1
83406740715,-1,-2,0,-1,-1,0,-1,0
83406742146,-3,-2,-1,1,-1,-2,-1,0
83406742146,0,-1,0,0,-2,-1,-3,-1
83406763244,-1,0,-1,-1,0,-2,-1,-2
83406763244,-1,-1,-2,-2,-1,-2,-1,0
83406764723,0,-1,-3,-2,0,-1,0,-1
83406764723,-1,-1,-2,0,-2,-3,0,-2
83406776580,-1,-1,-2,-4,-1,-2,-2,-3
83406776580,-2,-1,-1,-1,0,-1,-3,-1
83406785623,1,0,0,-1,-3,0,-1,-3
83406785623,0,-1,-2,-1,-1,0,-1,-1
83406800485,0,0,1,2,0,-1,-1,0
83406800485,-1,0,-2,-1,0,-1,-2,-2
83406802166,-2,-1,-4,-6,-2,-2,-1,-1
83406802166,-1,-1,-2,0,1,-1,-1,0
83406823082,-1,-1,0,-1,-1,-1,-1,-1
83406823082,0,0,1,1,-2,0,0,-1
83406824669,0,0,2,2,-2,-1,-1,-2
83406824669,-1,-1,0,-3,1,0,0,0
83406845543,0,-3,-5,-2,-5,-1,-3,0
83406845543,-2,-2,-1,-5,-2,-4,-2,0
83406847183,-3,-1,0,3,1,3,-2,-2
83406847183,-1,-1,-3,0,0,3,-1,-1
83406860585,-1,0,0,-2,2,-1,1,0
83406860585,-1,-1,-2,-2,-1,-9,-3,-3
83406862105,0,-2,-1,0,-2,-1,0,-1
83406862105,-2,-3,0,0,-1,-4,-2,0
83406883298,-1,1,0,1,0,1,1,-2
83406883298,-2,-3,-5,-7,-4,2,0,-1
83406884692,0,1,1,2,1,-4,-3,0
83406884692,0,0,-2,-2,-2,1,-1,-4
83406905554,0,-1,-1,1,-1,-1,-1,0
83406905554,-1,0,2,1,1,2,3,-1
83406907096,-1,-2,-2,-2,-1,5,2,-1
83406907096,-3,-1,-4,-5,-1,-7,-6,-2
83406920039,0,1,-1,2,0,-3,-2,0
83406920039,-1,-1,1,4,0,0,0,0
83406926881,-2,-2,-2,-5,-8,0,-1,-3
83406926881,-3,-2,-4,-5,-4,1,2,-1
83406943202,0,-2,3,4,3,-6,-1,1
83406943202,-1,0,-2,1,2,1,-1,-1
83406944619,0,0,2,5,2,-2,1,0
83406944619,-2,-1,1,-6,-1,0,-2,-1
83406965490,0,0,2,6,1,1,-2,-1
83406965490,-2,-4,-6,-10,-5,-1,3,-1
83406967085,-3,0,-3,0,-1,1,2,0
83406967085,-1,-1,-1,-3,1,0,-8,-3
83406979382,-1,-1,-4,-4,-2,0,6,1
83406979382,-2,0,1,6,3,10,4,0
83406988170,-2,-3,-4,-6,-6,-20,-4,-1
83406988170,2,1,5,14,5,0,-5,0
83407010503,-1,-2,-8,-17,-6,-10,-8,-2
83407010503,0,-1,-1,0,-3,0,-3,-2
83407012110,5,6,-2,-2,8,27,3,1
83407012110,-2,-6,0,-3,-7,-20,-4,-2
83407025449,-1,-1,-1,3,-7,32,-6,-2
83407025449,-3,0,-2,0,-1,-47,14,2
83407027103,3,1,1,24,14,26,-6,-27
83407027103,4,1,-7,-60,-9,-7,14,17
83407039176,-2,0,2,8,3,-14,-12,-1
83407039176,-10,-3,-11,2,-13,2,-13,-26
83407048202,6,-12,-1,0,-13,-11,-6,54
83407048202,2,0,-1,25,7,8,-3,-9
83407063033,1,9,-2,-15,1,-3,5,8
83407063033,-4,-1,2,-1,9,16,-2,2
83407064655,-21,0,4,17,3,20,1,-78
83407064655,5,-9,-8,-5,-9,-26,25,51
83407085464,3,10,-4,-10,-6,-9,-1,-10
83407085464,43,-18,4,13,2,25,9,30
83407087076,-13,-2,-1,-19,-4,-32,-21,-15
83407087076,-10,11,5,33,0,-10,-9,-35
83407099165,65,-8,-3,-2,-2,8,6,72
83407099165,-69,-11,3,-4,7,25,-23,-43
83407108130,61,11,0,10,0,-6,25,29
83407108130,10,7,4,4,0,-2,17,25
83407122968,14,-5,-4,-1,-4,-2,-10,-29
83407122968,24,3,-4,-13,1,9,2,4
83407124597,-63,-17,0,-8,-4,-13,5,33
83407124597,6,4,0,2,1,5,-5,12
83407145509,-16,-8,3,0,1,26,-1,-31
83407145509,22,-1,-6,-2,-9,-35,0,35
83407147052,17,8,1,2,-1,-1,-7,-17
83407147052,-9,-8,-3,-11,6,27,7,-15
83407159367,-45,-2,7,9,-8,-19,-6,1
83407159367,38,-1,1,-3,-6,17,-23,-48
83407168068,9,-2,-1,-7,5,-20,11,24
83407168068,-41,-21,-14,3,-13,-18,-23,-13
83407183085,26,13,10,10,15,9,15,3
83407183085,-10,3,-6,-20,-13,-1,-14,-1
83407184621,12,-6,-11,-9,1,-2,15,12
83407184621,-14,-8,5,2,17,45,-1,-29
83407205775,-8,-14,-2,5,-1,-18,4,-20
83407205775,-21,-8,0,9,-8,-41,-22,-38
83407207179,55,8,-12,-15,-9,24,8,25
83407207179,56,38,13,10,14,44,1,64
83407219423,-75,-5,-17,-14,-6,-58,7,-11
83407219423,41,20,6,7,3,20,-3,32
83407228207,14,1,1,-2,-16,-48,-26,-36
83407228207,34,-24,3,-2,15,30,26,-3
83407243247,0,0,-1,0,-9,6,-16,-12
83407243247,-14,-6,-3,-6,-2,-13,1,-3
83407244644,-16,24,-3,-8,-31,-64,-18,-8
83407244644,-20,-10,-12,-2,9,33,-19,-1
83407265518,18,1,4,-6,34,68,29,13
83407265518,0,-19,-6,5,15,-2,13,17
83407267088,12,-2,7,4,-1,-18,-5,25
83407267088,-11,4,13,11,-27,-38,-12,-30
83407279168,-39,-5,-26,-35,-22,-56,-34,-36
83407279168,-8,9,3,1,14,41,31,19
83407288227,0,-6,-1,-2,3,33,-4,28
83407288227,-15,4,0,-4,-10,-14,0,-44
83407304456,47,-4,4,14,8,-3,-9,36
83407304456,-29,-11,2,6,3,26,20,-22
83407306128,21,1,-2,-5,5,24,11,-3
83407306128,-29,-11,-10,-8,-16,-42,-28,-34
83407333000,20,7,-6,-11,1,-6,-11,-14
83407333000,-4,6,-6,-8,-9,-16,10,19
83407334606,19,-18,4,7,21,17,9,23
83407334606,-61,5,-4,-6,-16,-26,-15,-87
83407339147,3,0,-3,2,-17,18,-3,-21
83407339147,-20,5,8,4,4,-31,-7,14
83407348173,-21,3,-7,-3,12,29,-2,-20
83407348173,37,0,-4,-3,5,-15,2,27
83407363097,-6,4,17,11,-2,7,7,10
83407363097,20,-3,-8,-12,0,5,-1,11
83407364664,-37,0,2,2,-18,5,-8,-26
83407364664,-14,0,-5,-9,-6,-28,2,-2
83407385735,-18,-5,0,10,16,14,-6,-28
83407385735,8,8,5,5,-5,-10,-8,-32
83407387173,-35,-13,-4,-7,8,7,-5,-29
83407387173,26,-2,2,7,12,-8,4,50
83407399393,-13,-5,1,-4,-12,5,5,1
83407399393,11,0,-1,1,9,1,2,34
83407408168,-30,-1,3,2,-3,-3,0,-36
83407408168,33,11,9,4,-3,11,-7,11
83407423193,6,-7,-10,0,8,-13,5,21
83407423193,8,-1,-7,-3,-12,-3,-3,-18
83407424591,2,1,6,-3,-22,-5,-3,22
83407424591,28,-3,-12,-14,13,20,27,54
83407445601,-37,3,4,-1,-9,-10,-8,-52
83407445601,-13,-3,4,2,-2,-17,-12,-4
83407447145,-17,-8,-2,3,14,11,11,-6
83407447145,23,-2,3,14,-13,-6,-6,19
83407459065,18,1,-5,-9,7,5,1,18
83407459065,-12,6,-4,4,-11,-4,-6,-27
83407468202,-5,8,-8,-6,7,-10,-8,-7
83407468202,-7,-2,-5,-17,-17,7,0,-16
83407483130,-10,-5,2,2,-7,2,0,-5
83407483130,-3,-4,8,10,-1,-1,0,-1
83407484635,5,-10,-17,-6,9,-6,-3,9
83407484635,-4,10,15,4,5,1,-1,-1
83407505561,11,5,-21,-8,-14,-12,-4,31
83407505561,1,12,-3,1,-10,-6,0,-29
83407507166,-2,-3,8,8,19,10,4,-5
83407507166,-7,-11,2,4,5,6,12,16
83407519229,-1,-19,9,10,-4,3,-3,44
83407519229,-23,-12,-28,-26,-11,-4,3,-2
83407528219,3,3,-4,24,1,-8,-20,-42
83407528219,-18,-9,-11,-48,-6,-3,-7,-2
83407543246,-1,8,1,12,10,9,15,-55
83407543246,18,-2,-14,-13,-1,-2,-4,117
83407544638,16,2,15,13,-2,3,23,-53
83407544638,-8,5,-18,3,3,-6,-16,-18
83407565723,40,30,36,27,7,0,15,34
83407565723,35,-12,-22,-31,-6,-2,-3,49
83407567196,-2,12,9,0,-3,5,32,-5
83407567196,28,15,21,32,1,-5,-29,-39
83407579396,-4,-15,-19,-24,-15,-8,-10,99
83407579396,39,4,40,16,7,-4,-8,-84
83407588210,-7,-10,-7,-13,-14,6,-1,117
83407588210,0,-3,-7,6,-6,-8,13,1
83407602419,-22,15,-6,1,0,11,2,-38
83407602419,-25,2,-15,10,2,-23,-10,-23
83407609371,-5,-8,-26,-30,-6,6,-14,-23
83407609371,-21,-4,10,17,-5,-16,-15,7
83407625753,9,-3,-14,-12,-15,-3,-16,65
83407625753,7,-4,-4,-2,-8,15,11,31
83407627130,-5,10,24,19,35,-25,-38,-65
83407627130,45,12,-1,7,46,74,68,11
83407639154,33,2,14,-4,-8,-22,46,32
83407639154,26,23,15,-4,-17,32,1,33
83407648200,-57,-32,-9,-18,-23,28,-63,-77
83407648200,-39,-28,-25,-25,-53,-91,-31,0
83407662550,-20,10,12,20,49,40,36,54
83407662550,-58,-2,19,26,26,-19,-53,-103
83407669182,61,5,-8,-25,4,33,47,68
83407669182,-15,-6,-2,-6,-11,2,-31,-47
83407685474,-26,-13,-7,-12,-20,-15,-27,-76
83407685474,-26,-3,-5,13,-9,-4,9,3
83407687118,3,4,-1,0,-21,-33,-26,2
83407687118,-15,-5,-17,-10,3,4,2,-16
83407699103,11,-6,-3,0,-4,-19,-1,-25
83407699103,5,-1,-5,-3,18,31,5,15
83407708199,31,5,12,24,-1,-6,15,53
83407708199,-56,-7,8,-2,-6,-4,6,-62
83407722504,-13,12,1,2,3,13,-20,-13
83407722504,11,-4,-8,-16,10,-3,10,-7
83407729356,-24,0,9,3,-4,-14,-5,-12
83407729356,20,1,-7,-3,5,20,9,46
83407745570,-3,3,-6,-14,-4,-29,-30,-21
83407745570,-34,-12,-2,-3,-5,6,-3,-21
83407747124,-3,-23,-5,-7,-4,-3,16,11
83407747124,7,1,5,6,-1,6,-5,13
83407759336,-5,-13,-12,-6,-8,-8,-16,-27
83407759336,2,1,5,7,5,-9,5,6
83407768216,-10,10,-7,-14,-9,5,-2,9
83407768216,0,-5,7,8,13,-2,-9,4
83407782564,3,-7,4,5,0,5,12,-18
83407782564,17,8,3,-7,-10,-6,-4,11
83407789339,8,14,6,0,-2,-3,-8,-18
83407789339,4,3,-3,1,-17,8,15,33
83407805763,15,-5,9,15,6,4,0,7
83407805763,9,0,1,-4,13,-6,2,0
83407807111,14,-1,8,24,7,8,6,22
83407807111,17,7,-12,-36,4,-5,-4,-22
83407828028,15,0,3,6,-6,0,-5,-4
83407828028,0,2,-4,-1,-9,-1,9,25
83407829586,-22,-14,-11,-6,2,-5,-6,-74
83407829586,19,3,7,14,8,3,3,22
83407842537,-15,4,-1,-7,-3,4,-7,5
83407842537,-13,-4,3,-2,-2,-7,-7,-26
83407849400,15,8,-4,-7,-21,-10,7,22
83407849400,-4,-5,-7,-4,6,4,0,1
83407865707,-1,-8,-16,-30,-12,-6,-10,-16
83407865707,-52,-2,0,9,-13,-4,-5,-20
83407867176,14,2,-8,-2,8,-7,0,12
83407867176,-12,-1,9,7,18,6,-6,-2
83407888254,5,-10,-7,1,-16,4,6,-2
83407888254,23,-1,3,7,3,-1,3,29
83407889727,-25,-3,-11,-9,1,1,9,7
83407889727,-3,-3,2,11,1,-4,-2,-1
83407901665,0,7,8,9,7,2,5,1
83407901665,39,9,-23,-2,2,7,10,79
83407910778,-47,-15,-4,1,4,-7,-12,-71
83407910778,9,3,-5,-6,-10,-3,-4,15
83407925813,-3,1,15,10,2,1,-2,9
83407925813,-6,3,-20,-21,-16,-2,1,-18
83407927236,51,-2,-10,0,9,-5,0,47
83407927236,-20,-4,13,18,20,6,-2,-17
83407947339,-12,-12,-22,-22,-30,-3,-5,-24
83407947339,-10,-2,25,6,1,-6,2,-4
83407948125,6,7,-3,-6,-12,-9,-3,22
83407948125,-18,16,12,-10,-13,-11,-11,-57
83407970720,17,-14,11,15,14,6,9,16
83407970720,6,-18,-14,-26,-1,5,4,-1
83407971329,-66,-3,2,-9,-6,3,-2,-1
83407971329,6,0,0,7,-7,-7,-9,-14
83407985011,-9,12,12,0,5,-3,0,15
83407985011,-4,-11,14,16,7,7,8,-28
83407985653,41,6,11,-13,-2,-1,4,56
83407985653,5,-8,20,-9,-5,1,-2,-3
83408007329,37,4,46,0,3,-1,-6,-1
83408007329,-76,-19,58,7,7,0,-7,-41
83408008161,-18,6,25,8,-3,1,-8,-32
83408008161,-54,-28,-41,-10,-11,-4,-11,-33
83408038022,31,-9,-44,10,5,1,-12,36
83408038022,-28,20,-55,-31,-11,-4,13,-52
83408038874,-37,-10,-43,-8,-5,-13,-17,36
83408038874,27,21,-28,-2,-6,-1,-8,-94
83408045051,16,2,-23,-6,3,4,5,47
83408045051,-44,9,0,12,0,0,15,6
83408045666,4,-7,-2,8,-3,-7,-5,-35
83408045666,10,5,3,-4,2,13,2,5
83408067374,-8,-6,-3,2,-9,1,3,-22
83408067374,57,5,4,8,3,-41,-112,-2
83408068095,21,1,4,2,14,15,94,40
83408068095,16,-1,16,10,-2,17,3,65
83408090479,-37,-17,9,13,23,32,55,2
83408090479,5,-17,-16,-16,-14,6,-18,-3
83408091325,-14,-7,-3,-4,-25,-52,-103,-65
83408091325,43,20,2,-4,-9,5,56,96
83408104880,-37,4,-1,-12,7,33,18,-75
83408104880,41,-5,-1,9,14,-26,10,1
83408105617,21,-2,20,19,32,18,-14,24
83408105617,19,8,2,-8,1,-21,-24,10
83408127308,-15,-1,-8,-20,-19,-12,-32,-24
83408127308,17,-8,-14,-10,-21,8,23,-1
83408128125,-5,6,0,-4,-11,-4,3,-7
83408128125,-20,-16,-13,-12,-7,-2,-18,-11
83408150520,3,-4,-8,-9,0,-9,3,-5
83408150520,0,-2,6,3,0,5,5,15
83408151299,4,-3,-3,5,-1,9,5,-11
83408151299,-7,-6,3,5,4,4,6,2
83408164807,-1,2,1,-2,-1,-14,-15,2
83408164807,15,10,2,1,-4,-1,8,12
83408165576,1,1,-1,-5,1,13,4,-6
83408165576,-1,-4,4,5,2,-4,6,12
83408187308,4,5,-3,-1,-5,-18,-16,-2
83408187308,-3,0,4,7,3,10,-1,0
83408188114,1,-1,-2,-2,-1,6,12,-5
83408188114,-12,-7,-4,-2,-2,-6,-8,3
83408210452,-3,-2,0,0,-1,-9,-11,-10
83408210452,-1,-1,1,1,1,9,8,1
83408211245,5,1,0,-4,-1,2,4,6
83408211245,-6,1,-1,-1,-1,-7,-3,7
83408224774,-2,-15,-1,2,-1,-4,-9,-6
83408224774,-5,-2,2,-1,0,2,9,1
83408225610,6,2,-4,-1,-3,0,-1,3
83408225610,-5,-1,-1,2,0,-1,-8,-6
83408247266,-4,3,-1,0,-1,-2,2,-2
83408247266,-3,-3,1,0,1,-4,-5,2
83408248070,-7,-7,-3,0,0,-2,0,-2
83408248070,-2,-5,1,-1,1,6,3,-3
83408270486,-2,1,0,0,2,1,-5,-1
83408270486,1,2,-1,-1,-4,1,4,-1
83408271309,-24,-9,-3,-4,-4,-12,-5,-5
83408271309,8,6,2,1,0,2,-5,1
83408284773,-2,1,-3,-4,-6,-11,-3,-5
83408284773,-4,1,2,2,3,0,2,-1
83408285562,3,-18,-3,1,2,2,3,1
83408285562,-6,-5,-2,-3,-2,3,-2,0
83408307314,-4,5,-1,0,-1,-4,-7,-4
83408307314,2,3,-2,-1,-2,3,3,-1
83408308125,8,5,-2,-1,-2,7,4,0
83408308125,0,-5,-3,-4,-4,-17,-11,-4
83408331869,0,0,0,5,-2,-2,-5,-2
83408331869,6,5,4,4,2,3,4,5
83408332736,4,3,-4,-12,0,5,0,-1
83408332736,-3,0,-6,-14,0,0,3,-1
83408344809,-3,-1,-2,-5,-4,-5,-2,-3
83408344809,-13,-20,-3,8,-3,-7,-10,-3
83408345640,20,10,7,6,5,1,4,3
83408345640,1,1,2,2,1,9,5,0
83408367278,-2,-2,2,-1,1,-4,3,0
83408367278,-2,0,-1,-1,-1,2,-1,-3
83408368080,-2,2,-1,-3,-4,-4,-2,-1
83408368080,-5,-5,-2,-1,-2,0,-3,-3
83408390513,2,2,-2,-1,-2,-18,-3,1
83408390513,-1,0,-2,-5,1,-3,0,-1
83408391286,-3,1,1,3,0,3,-3,-2
83408391286,3,-1,0,2,-1,2,5,1
83408404774,-5,-4,2,3,-1,7,-3,-4
83408404774,3,0,-6,-10,-5,-3,-1,0
83408405555,-4,-2,-3,-4,-7,-9,-8,-4
83408405555,-3,-2,0,3,-2,-12,-5,1
83408427262,1,1,-2,-4,2,17,8,3
83408427262,-1,-2,-4,-3,4,8,2,-4
83408428057,-1,0,0,-2,-3,4,0,-1
83408428057,-4,-2,-2,-3,-4,-6,-3,-1
83408450413,0,-1,-3,-5,-5,-14,-7,-5
83408450413,2,1,4,7,0,-1,-1,0
83408451313,-5,-1,-1,1,2,3,-3,-1
83408451313,-2,-2,-3,-5,-3,-8,-3,-4
83408464909,-1,-1,-4,-4,2,8,0,0
83408464909,-2,0,2,-3,-2,7,0,-2
83408465604,6,1,-2,-2,-3,-9,0,3
83408465604,4,-2,2,6,-1,-2,-1,-4
83408487277,-6,-2,-4,-8,1,-5,-5,-3
83408487277,-3,0,-1,3,2,-4,-2,-2
83408488089,-5,-1,-1,-1,-1,8,1,-1
83408488089,6,1,0,1,-1,1,3,3
83408510514,-2,-2,0,0,-5,1,-3,0
83408510514,-3,-1,-3,-6,-4,-16,-6,-3
83408511325,1,-1,0,0,4,5,4,3
83408511325,-4,-1,0,-1,2,2,-1,0
83408524785,0,-1,1,4,-1,4,0,-1
83408524785,-3,-4,-4,-1,-5,-6,-3,-1
83408525629,-3,-1,0,-1,-3,-5,0,-3
83408525629,-5,-2,0,-2,-2,-6,-2,-5
83408555466,1,3,-4,4,5,8,2,3
83408555466,3,3,2,-1,1,5,-1,2
83408556225,-3,-2,-1,-2,-2,-4,0,-4
83408556225,-4,-2,0,-2,-3,-1,-1,-3
83408570459,1,-1,-1,0,-2,-7,-2,-2
83408570459,-2,-1,0,-8,-2,-1,0,-3
83408571248,-3,0,-3,1,2,3,-3,0
83408571248,-1,-1,0,0,1,-2,0,2
83408584784,0,-2,0,0,-1,-7,-1,1
83408584784,-1,0,-2,0,0,9,0,0
83408585572,-2,-2,-2,-2,-3,-6,-3,-4
83408585572,-1,-1,-3,-3,1,-3,-1,0
83408607252,0,-3,-1,-2,-2,6,1,-2
83408607252,-4,-1,-1,1,2,-6,-3,-3
83408608064,1,-1,-1,1,-3,-1,-2,1
83408608064,-1,-3,-4,-5,0,0,1,-2
83408630480,0,0,-1,-1,-2,-2,-3,-2
83408630480,-1,-1,0,0,-2,1,1,0
83408631280,-3,-1,0,-1,0,1,-2,1
83408631280,0,0,1,1,-1,-2,0,-2
83408644882,0,-2,-1,-2,-2,-1,-3,-2
83408644882,0,-1,-2,-2,-1,1,0,-1
83408645561,-2,-1,1,-2,-2,-5,-1,-2
83408645561,-4,-4,-3,0,-3,1,-2,-2
83408667317,0,2,-1,1,0,-2,-1,-2
83408667317,-3,12,0,-2,0,-1,-1,-2
83408668107,-5,-5,1,7,0,-2,-3,-2
83408668107,-1,2,-2,12,0,-1,0,-6
83408690443,0,7,-4,-28,-4,-1,-1,13
83408690443,-11,-1,-2,22,1,-4,-5,-21
83408691259,23,-7,-3,13,4,3,-3,15
83408691259,4,10,-1,-2,-3,1,5,20
83408704784,-9,-4,-2,-15,-1,-3,0,1
83408704784,9,-8,0,9,1,-2,-4,-48
83408705573,-12,-16,-2,3,7,-2,-2,-8
83408705573,-14,-19,-4,10,-4,-4,-5,38
83408727280,-3,1,4,13,2,2,15,41
83408727280,-4,-5,-2,-16,-5,-1,0,13
83408728054,-8,-4,-2,-5,-3,-2,-3,-23
83408728054,0,1,2,25,15,1,-5,-20
83408758020,-7,-5,-11,-77,-33,-5,-9,-17
83408758020,-4,-2,1,6,5,0,1,10
83408758789,-1,12,0,-14,-8,-3,-1,10
83408758789,-1,0,1,15,1,-1,-2,-6
83408764764,7,1,3,18,9,1,-2,-7
83408764764,7,2,2,40,8,1,0,8
83408765551,1,-1,-11,-60,-14,-5,-2,-8
83408765551,4,1,1,-20,4,2,2,-7
83408787345,-5,-10,-3,27,-8,-4,-4,-14
83408787345,6,-20,-6,29,2,-4,-6,5
83408788160,-3,7,5,14,13,3,2,4
83408788160,-2,-1,4,31,-5,0,0,-8
83408810429,-1,-1,-2,-23,-2,-2,-3,-3
83408810429,-6,-1,-4,-6,-9,-1,-1,9
83408811246,14,10,3,19,-3,1,0,1
83408811246,1,-2,-2,74,19,-1,-1,-7
83408824489,4,5,6,42,3,0,-3,-8
83408824489,0,5,-4,-59,-8,-4,-1,4
83408832287,-16,-12,-7,-45,-10,0,-1,-2
83408832287,3,6,0,1,-11,-3,-1,-2
83408847311,1,0,0,25,8,-2,-1,-2
83408847311,0,1,2,28,17,4,3,4
83408848119,-9,-9,-12,-35,-28,-8,-4,1
83408848119,9,12,-8,-24,-9,-4,-2,-2
83408870462,-4,-11,4,19,7,1,1,-1
83408870462,3,27,8,2,7,0,2,4
83408871257,-1,-1,0,-12,0,1,-1,-1
83408871257,-2,-4,-1,-43,-11,2,1,-3
83408884764,-2,1,3,33,11,-3,-2,-5
83408884764,1,6,-4,-43,-15,-3,-2,-1
83408885543,1,4,1,30,9,0,0,2
83408885543,-21,-14,-3,-24,-4,-3,-4,-7
83408907287,21,25,2,6,4,1,-1,-4
83408907287,-11,-18,-7,-44,-10,0,-1,-1
83408908123,5,4,3,35,2,-1,0,-2
83408908123,7,-12,-3,-41,-6,1,-3,2
83408930524,-2,-4,-5,-13,-4,0,-1,-5
83408930524,0,-1,6,41,14,3,1,1
83408931309,7,-1,-14,-78,-34,-5,-2,1
83408931309,11,18,2,44,6,-1,0,-2
83408945455,-28,-18,-5,-44,0,1,0,-21
83408945455,-8,-19,-3,-47,-11,-4,0,-2
83408946247,0,10,12,102,26,2,1,-28
83408946247,14,-6,-9,-61,-19,-5,1,18
83408967307,-2,-14,-7,22,3,-5,-10,39
83408967307,-6,10,2,-35,-3,0,4,-76
83408968102,-9,-11,9,49,23,3,4,88
83408968102,2,0,9,5,2,0,9,17
83408990572,9,4,-4,-16,-4,-1,3,-7
83408990572,-3,-11,2,34,4,1,-4,0
83408991290,0,21,-9,16,-2,-3,-6,-25
83408991290,2,-10,-18,-35,-3,0,0,-7
83409004780,-11,-7,2,4,2,1,-1,7
83409004780,3,6,1,9,0,-1,-5,8
83409005697,-1,5,-1,-30,-10,-4,-5,-24
83409005697,-5,32,7,13,9,4,2,7
83409027323,15,10,-5,1,-2,1,0,11
83409027323,-12,-13,-8,58,-1,-4,-4,12
83409028062,-5,-4,4,-36,4,0,-9,-72
83409028062,1,1,-2,23,0,-1,2,-6
83409049790,5,-1,6,2,-1,0,-2,-11
83409049790,6,11,1,-18,-6,0,-1,24
83409050574,-9,-14,2,-9,0,1,3,-2
83409050574,-2,-3,2,24,1,-2,-9,-14
83409066342,-1,6,0,-20,1,0,-2,-10
83409066342,5,-4,-1,-16,-4,-1,-4,5
83409067088,-1,4,-4,19,-2,-3,0,7
83409067088,-6,-38,-5,-22,4,0,-4,-9
83409087293,-5,-10,-2,28,-2,-2,0,1
83409087293,5,9,-1,-22,-5,0,2,4
83409088113,6,-5,-5,5,3,0,0,12
83409088113,-10,3,5,6,-2,-2,-1,0
83409110937,-14,-24,-4,16,3,-2,-3,-10
83409110937,-7,-11,-3,7,-5,-1,0,-1
83409111713,6,4,-1,6,6,-1,2,7
83409111713,17,13,3,-2,0,1,-2,-3
83409124788,5,4,-6,-37,-7,1,-1,-4
83409124788,-4,2,-3,20,4,0,-1,10
83409125575,-2,-8,-2,-13,-3,0,2,-17
83409125575,-7,-2,-4,12,-3,-2,1,-1
83409147289,13,1,0,-6,-6,-3,1,-2
83409147289,5,-15,-7,-10,-2,-3,0,-10
83409148131,1,11,4,11,-1,1,2,8
83409148131,2,-23,-2,-5,-4,-2,-2,-3
83409170487,-8,-2,-2,2,1,0,-2,-3
83409170487,7,2,-3,5,-3,-2,2,3
83409171287,2,0,-2,-2,-1,0,0,8
83409171287,-6,3,0,-11,0,-1,-3,-8
83409184841,4,3,-1,-5,0,-1,0,4
83409184841,-1,-11,-1,1,-1,0,-2,1
83409185559,-5,-5,-3,-6,-5,-4,-1,4
83409185559,-14,-1,-2,-10,1,0,0,2
83409207252,2,-11,1,7,0,0,-2,-4
83409207252,-8,2,2,13,2,-1,-2,2
83409208052,14,-1,-1,-13,-7,-1,-2,4
83409208052,1,9,-1,-1,0,-1,1,0
83409230464,5,6,2,2,-1,-3,-1,0
83409230464,-3,16,-1,1,-2,-1,0,-6
83409231301,12,-4,-2,0,1,0,-1,5
83409231301,-8,-9,-2,-6,0,-1,-3,2
83409244844,-5,2,-1,-1,-4,-2,-1,-6
83409244844,1,1,-2,-6,-1,-3,-2,3
83409245608,-11,-4,0,3,1,0,-2,-6
83409245608,-3,25,-2,-3,-4,0,-2,-6
83409275511,-10,-1,-1,-2,-2,-1,-2,-1
83409275511,21,-6,-4,-5,-2,-1,1,-1
83409276288,-4,1,-2,-2,0,-2,-1,1
83409276288,-8,-3,-1,-2,-2,-1,-2,-2
83409290483,3,6,0,0,-2,-2,0,-1
83409290483,-6,0,0,-5,-2,-2,-1,-1
83409291274,-13,1,-4,0,-3,-3,-3,0
83409291274,1,-14,3,-2,0,-1,1,1
83409304141,-4,-1,-3,0,-2,-1,0,-3
83409304141,-3,14,5,2,-1,-1,-1,0
83409312339,-18,12,-7,-6,-3,-1,-2,-1
83409312339,-3,0,0,-2,-1,-2,-3,-12
83409327300,-2,3,1,1,0,-1,-1,7
83409327300,12,8,0,-4,-4,-1,0,1
83409328050,-23,-37,-2,2,1,0,1,1
83409328050,8,3,2,0,1,1,1,-1
83409350500,-3,0,-1,-3,-2,-3,-1,-3
83409350500,-1,4,-1,-1,-1,-1,0,1
83409351235,8,-1,2,2,0,0,-1,1
83409351235,8,-6,-4,-2,-1,-1,0,0
83409364097,-4,-10,-4,1,0,-1,0,-3
83409364097,-16,-5,-3,-7,-3,-3,-2,-2
83409372311,20,-6,0,0,-1,1,1,0
83409372311,-14,-3,-2,-2,-2,-3,-3,-1
83409387291,13,14,3,1,3,-1,-1,-2
83409387291,-10,-4,-1,-1,-2,-1,-2,-5
83409388060,12,19,2,-1,0,0,0,4
83409388060,14,8,2,-2,-2,-1,-1,-11
83409410472,-6,0,0,-1,-2,1,1,11
83409410472,-23,-34,-3,-1,-1,0,-3,-4
83409411263,-7,8,2,2,1,0,1,0
83409411263,4,2,-3,-2,-2,-3,-3,-2
83409424153,16,-9,3,-1,-1,2,-1,-3
83409424153,5,10,-3,-1,0,-1,-1,0
83409432311,-4,-9,-2,2,-2,-1,0,1
83409432311,-6,2,-2,-4,-1,-1,-1,1
83409447314,-4,-2,-1,2,0,-1,-2,-4
83409447314,8,3,0,2,1,1,0,4
83409448080,4,-12,-2,-3,0,0,-2,-4
83409448080,-8,1,-2,-4,-4,0,-1,3
83409470468,-10,2,-1,-1,-2,-1,0,-2
83409470468,1,-8,-1,-2,0,-1,-2,-2
83409471255,-4,-1,-1,1,1,-1,1,0
83409471255,1,-5,1,2,1,0,0,3
83409484138,0,-9,-8,-8,-4,-3,-2,-3
83409484138,-14,3,3,5,0,1,0,-3
83409492330,10,-3,0,-3,-2,-1,0,8
83409492330,-9,-29,-5,-1,-3,-2,-5,0
83409507303,-4,0,1,1,-1,-3,-1,-4
83409507303,-13,-1,-4,-2,-2,0,-1,5
83409508054,3,5,4,1,-2,-2,-1,-1
83409508054,-3,8,0,2,2,1,1,-1
83409530489,-3,0,-1,-2,-2,0,1,1
83409530489,9,-9,-2,-1,-1,-3,0,-3
83409531292,-2,2,2,-2,0,-1,0,-3
83409531292,-17,-32,-7,-4,-3,-2,-2,1
83409544111,4,3,0,3,0,-1,0,-6
83409544111,-6,-2,1,0,-1,-1,-1,0
83409552320,-5,-2,-2,-3,-2,-1,-3,-3
83409552320,8,4,0,0,-2,-1,1,2
83409567337,4,1,-7,-4,-4,-2,-2,-2
83409567337,6,8,1,0,-2,-1,-3,-2
83409568114,-3,-4,0,3,2,1,-2,-3
83409568114,4,7,-1,-1,-3,-3,0,-10
83409590423,1,-5,-3,-2,-2,-2,-1,7
83409590423,-1,6,4,4,1,-1,-2,-2
83409591275,-2,4,-5,-2,-1,-2,-1,-2
83409591275,-1,7,0,1,1,1,-1,1
83409604142,-4,-6,-1,-2,-1,-1,-1,-4
83409604142,33,-1,0,0,-2,-1,-1,-3
83409612298,-9,5,-1,-2,0,-1,0,9
83409612298,-19,-3,0,-3,-4,-2,0,-1
83409627287,2,4,1,-1,-1,-1,-1,-1
83409627287,-12,-20,-7,-1,0,1,0,-2
83409628069,-1,5,2,-1,-2,0,-1,-4
83409628069,8,7,-2,1,2,-1,0,2
83409650491,-9,-3,-1,-2,-1,-1,-1,-1
83409650491,-4,-3,-1,-1,0,-3,-2,-1
83409651293,-5,-33,-8,-6,-5,-4,-3,-6
83409651293,0,1,-2,-2,0,0,-2,3
83409672924,1,11,2,0,0,0,1,-1
83409672924,16,0,-1,-3,-1,-2,0,1
83409673804,0,-13,-3,-1,-1,1,-1,1
83409673804,26,22,0,1,-1,0,-1,2
83409687248,-12,-6,3,1,0,-2,0,1
83409687248,-1,10,0,-2,-2,-1,1,0
83409688086,-3,5,2,1,0,-1,-1,-2
83409688086,6,5,-1,0,-1,0,-2,-1
83409710541,-13,-14,-3,-2,-1,-1,-2,-2
83409710541,2,3,-4,-4,-2,-2,-2,-3
83409711293,-6,0,1,-2,-1,-2,-1,-2
83409711293,-14,-25,-1,-2,0,-3,-2,-1
83409733019,22,21,1,0,0,0,-1,3
83409733019,-2,-3,2,-1,-1,0,0,-2
83409733767,-1,-9,-4,-1,-1,-2,-1,-3
83409733767,-22,-16,-1,-1,-1,-1,-1,1
83409747282,2,-27,-2,-2,-2,-1,0,-5
83409747282,-2,-2,-2,-4,-1,0,-1,1
83409748071,5,19,1,1,-1,0,-1,0
83409748071,5,14,-1,-2,-1,-1,0,-2
83409770516,-3,2,-1,-1,0,0,-2,-3
83409770516,-11,-8,-2,0,-1,-1,-2,-1
83409771245,-1,2,0,0,0,-1,0,-6
83409771245,3,-2,-2,-2,-1,-1,-1,8
83409793024,14,-4,-3,-1,-1,-1,0,-4
83409793024,-5,4,0,1,-1,-1,-1,11
83409793784,5,7,1,0,-2,1,0,4
83409793784,3,-5,-1,-2,1,-1,0,-2
83409807286,36,29,5,0,-1,-1,-1,0
83409807286,10,5,-2,-2,-1,-1,-2,-3
83409808019,-4,13,-2,-2,-2,-2,-1,-2
83409808019,4,10,4,2,-1,-1,0,0
83409830461,-20,-17,-6,-5,-2,-2,-2,-3
83409830461,3,17,2,1,1,-2,0,-3
83409831263,15,2,0,-1,0,0,-2,-4
83409831263,-4,1,-2,-1,-1,0,-2,-4
83409852742,-17,3,-5,-1,0,0,-1,-1
83409852742,-6,-1,1,0,-3,-1,0,-3
83409853519,-11,-9,-6,-5,-2,-2,-2,0
83409853519,-1,-3,-1,-2,-2,0,0,0
83409867306,0,-5,-4,-3,-2,-2,-3,0
83409867306,9,0,1,0,1,0,1,3
83409868082,0,5,0,-2,-3,-3,-3,-3
83409868082,-1,-12,-2,-1,-1,-1,-1,-8
83409890516,-9,0,-2,-1,-3,-1,-1,5
83409890516,1,-9,-4,-3,-2,-2,-2,-11
83409891280,6,6,-3,-2,0,-2,0,5
83409891280,4,13,1,1,0,-2,-2,-3
83409912999,-11,3,0,0,0,1,0,-2
83409912999,-29,-40,-7,-3,-3,-2,-3,-5
83409913760,2,5,0,1,0,-1,-2,-6
83409913760,-3,-5,-3,-1,-1,0,-2,3
83409927314,6,8,-2,-1,-3,-3,-2,-2
83409927314,-19,-4,-1,-1,0,-1,1,2
83409928095,22,3,4,2,1,1,3,1
83409928095,-15,-15,-1,-1,-2,-2,0,-1
83409950482,-12,-11,-1,-2,-2,-2,-1,-2
83409950482,4,10,2,-1,0,2,1,1
83409951229,-5,8,-2,-2,-3,-2,0,-1
83409951229,6,7,-2,-3,-2,0,-2,-3
83409980445,0,9,1,1,1,0,-1,-4
83409980445,-6,-6,-3,-2,-2,-2,-1,7
83409981233,-7,-3,0,0,0,-1,2,-2
83409981233,-20,-9,-6,-4,-3,-1,-2,-2
83409987255,-4,-3,-1,0,-2,0,-2,1
83409987255,4,2,-2,0,1,-1,-1,-2
83409988078,-31,-6,-5,-3,-3,-2,-2,-5
83409988078,-1,6,-1,0,0,-1,0,0
83410010486,0,-8,0,-1,-1,-1,-1,-2
83410010486,-5,8,-1,0,-1,-1,-1,-2
83410011258,8,-1,0,-2,-2,0,-2,-1
83410011258,8,-2,-3,-3,-1,-2,-2,-4
83410033419,-9,-5,-2,-2,0,-1,0,-2
83410033419,27,10,1,-1,-3,0,-1,-6
83410034202,-4,-9,-2,-2,-1,1,-1,7
83410034202,0,1,-2,0,-1,-1,-1,-1
83410047312,-5,-9,-2,-2,-1,-2,-1,0
83410047312,-17,-4,-1,-2,0,-2,-2,-4
83410048102,7,-2,0,-1,-1,0,0,-2
83410048102,5,-2,2,0,1,1,-1,-7
83410070454,-2,9,-3,-2,-2,-1,-2,6
83410070454,1,-7,-3,-1,-3,-1,-1,-1
83410071267,-12,-3,0,-1,-1,-1,-2,-4
83410071267,16,29,1,-1,-1,-1,-1,1
83410092984,-7,-10,-3,0,-1,-2,-3,-5
83410092984,1,-3,2,-1,0,0,-2,2
83410094573,8,-13,-4,0,0,-1,0,-2
83410094573,-6,-52,-5,-2,-3,-2,1,-3
83410107269,8,0,-1,-2,-1,-1,-1,-11
83410107269,21,15,2,-1,-2,-3,1,9
83410108035,5,0,1,1,-1,-1,1,-1
83410108035,-2,5,1,0,-1,-1,-2,2
83410130505,1,-7,-1,0,-1,-1,0,-2
83410130505,-9,-15,-4,-2,0,0,-1,-4
83410131261,-9,2,0,1,1,-1,-3,-4
83410131261,0,5,0,-2,-2,-2,-2,2
83410153034,-6,-15,-2,-1,-2,-2,-1,2
83410153034,-4,10,-1,-1,-1,-1,-1,-4
83410153805,-6,-7,-2,-1,-2,-1,-1,9
83410153805,-7,-2,-2,-1,1,0,0,0
83410166606,8,0,2,-1,-2,0,-3,1
83410166606,-4,-5,-3,-1,-3,-1,0,-1
83410175720,10,-27,-2,1,-3,-1,-1,-4
83410175720,-5,3,1,0,1,-1,-2,1
83410190535,-2,7,2,0,0,1,0,1
83410190535,1,-6,-1,-1,-2,-1,0,-1
83410192092,13,26,8,1,2,0,2,2
83410192092,8,9,0,0,-2,0,-1,1
83410212957,-13,-13,-4,-2,-2,-2,-2,-3
83410212957,3,-23,0,0,0,2,-1,1
83410214585,12,6,-1,-1,0,1,-1,-2
83410214585,-5,1,-1,-2,-2,-3,-1,2
83410226634,2,12,1,0,1,0,1,0
83410226634,-24,6,-1,1,-1,-2,-1,-1
83410235633,-10,-1,-7,-6,-3,-4,-4,-4
83410235633,-3,2,-2,-2,-2,-1,0,-1
83410250471,-3,-27,-4,-1,-2,0,-2,-1
83410250471,-12,-3,-2,-1,-1,-1,-1,-1
83410252098,3,6,0,1,0,-1,-2,-1
83410252098,-2,-1,-2,-2,-2,-1,0,-3
83410272956,5,6,-1,-1,0,-2,1,3
83410272956,-4,-6,-2,0,0,0,-1,-1
83410274575,-9,-5,-4,-2,-1,-1,-1,-1
83410274575,3,-1,0,-1,-1,-1,0,0
83410286656,8,10,1,-1,-2,-1,-3,2
83410286656,-4,-5,-2,-2,-1,-2,-3,-5
83410303175,-8,-8,-2,-1,-1,-1,-2,-4
83410303175,1,3,0,-1,-1,0,0,-2
83410310568,-7,3,-2,-1,-1,-2,0,-2
83410310568,-7,1,-3,-2,-3,-2,-1,1
83410312112,-4,0,0,-2,-1,-2,0,-3
83410312112,-6,-12,-1,0,0,-1,0,-1
83410332988,-1,-6,1,2,0,-1,0,-1
83410332988,7,3,-2,-4,-1,-1,-1,-3
83410334590,-4,-21,-4,-2,0,0,-2,-6
83410334590,2,12,-1,-1,-1,-2,0,3
83410346673,-3,8,0,0,-1,-1,0,-1
83410346673,0,-5,-2,-1,1,0,-1,0
83410355588,-5,3,-1,-1,-2,-1,-2,-1
83410355588,-4,-2,-3,-1,-1,-1,-4,-3
83410370450,-1,-3,-3,-1,0,-1,1,-1
83410370450,7,7,2,-3,-2,-2,-1,-1
83410372117,-5,-4,-2,-2,-2,-2,-2,-3
83410372117,-1,3,1,-2,-1,0,-2,-1
83410392999,12,10,0,-1,-1,-1,0,2
83410392999,9,14,1,1,0,0,1,0
83410394601,-4,-3,-1,0,0,-1,0,0
83410394601,-1,-6,-1,1,-1,-2,-2,-2
83410406596,-2,1,0,0,-2,-1,-3,-3
83410406596,-1,-4,-3,-2,-2,-1,-2,-2
83410415665,-3,0,0,1,-2,0,-1,1
83410415665,-3,-3,-2,0,-1,-1,-2,-2
83410430457,-8,-13,-4,-3,-1,-1,-3,-2
83410430457,2,0,-1,-1,0,-1,-2,-1
83410432115,3,3,0,-1,-2,-1,1,1
83410432115,-3,-5,-1,-1,-1,1,0,-1
83410453008,-2,5,0,0,0,-1,-1,0
83410453008,1,-1,-2,-1,-1,-1,-2,-2
83410454645,0,-3,-1,0,-1,-2,-1,0
83410454645,-2,1,-2,-3,-2,-1,0,-1
83410466612,-22,-16,-1,-1,-2,-1,0,-3
83410466612,-7,-5,-3,1,-1,-1,-1,0
83410475629,19,8,0,-1,0,1,0,1
83410475629,-4,9,1,-1,0,-2,-2,-1
83410490270,2,2,-2,-1,1,0,-1,-1
83410490270,8,-2,-1,-3,-3,-2,-3,-1
83410496565,-3,17,1,-2,-1,-2,1,-3
83410496565,11,7,0,-1,-3,-1,-2,-1
83410512950,4,5,2,-1,-2,-1,-1,-1
83410512950,1,0,-2,-1,-3,-2,-2,-3
83410514559,-9,3,-2,2,0,0,-2,1
83410514559,-13,-19,-1,0,0,0,-1,-2
83410526598,-3,2,-3,-2,1,-1,-1,-3
83410526598,6,4,-1,1,-1,-1,0,0
83410535610,-16,5,-1,-2,-2,-1,-3,-2
83410535610,-2,-5,-1,1,-1,-1,1,4
83410550450,-2,-3,-2,0,-2,-2,-1,0
83410550450,-10,-12,-1,-1,0,-1,-1,-2
83410552056,2,-2,-2,0,1,-3,0,0
83410552056,1,-9,-7,-4,-1,-1,0,-3
83410572988,4,7,0,1,-1,1,0,0
83410572988,-1,3,-1,0,1,-1,0,1
83410574607,-2,-10,-1,1,-1,-2,-1,-2
83410574607,5,-2,-5,-3,-2,-4,-2,-2
83410586603,-28,-6,-1,-2,-2,-2,-2,-5
83410586603,-5,-3,-1,-1,1,0,-2,-2
83410595618,14,-1,0,-1,-1,-1,-1,-1
83410595618,2,1,1,0,-1,-1,-1,-1
83410610416,2,-12,-3,-1,-2,-2,0,1
83410610416,-3,3,-2,0,-1,-1,-2,-2
83410612051,9,-7,-3,-2,-3,-3,-3,-2
83410612051,2,17,-3,-1,0,-1,-2,0
83410632973,4,-15,1,2,2,1,0,1
83410632973,-4,-5,-1,-1,-1,-1,-1,-1
83410634588,-3,-5,0,-2,-1,-1,-1,0
83410634588,1,6,1,1,-2,-1,-1,-2
83410655414,-6,-3,-4,-4,-4,-1,-1,-4
83410655414,-2,9,2,1,-1,-2,1,0
83410657067,-7,-5,-1,-1,-1,-1,-1,-1
83410657067,1,-4,1,1,1,0,-1,2
83410670502,-16,-18,-7,-5,-2,-3,-2,-2
83410670502,-6,-9,-1,-2,-1,-1,-2,-2
83410672074,9,8,3,1,-1,-1,0,1
83410672074,-8,-4,0,-1,0,-1,0,-3
83410692745,10,11,-3,0,1,-2,-2,0
83410692745,0,3,-2,-3,-1,-1,-1,-2
83410699142,-12,-4,-3,-5,-2,-1,-1,-1
83410699142,9,2,0,-2,-3,-1,-1,0
83410715481,3,12,4,-1,-2,-1,-1,-1
83410715481,1,-1,-1,1,-1,-2,-2,-1
83410717074,4,10,2,1,-1,0,-2,1
83410717074,-6,-9,-2,0,0,-1,-2,-2
83410729786,19,7,-1,-1,0,-2,0,2
83410729786,-1,16,-1,0,0,1,-1,-1
83410736594,-7,-9,-4,-1,-1,-1,-1,-1
83410736594,27,22,3,-1,-1,1,1,-2
83410752965,-12,-10,3,3,1,-1,1,0
83410752965,12,0,-2,-2,-1,0,-1,1
83410754563,4,-6,1,2,0,-1,-1,-1
83410754563,-3,1,-1,1,1,-1,0,2
83410775484,3,13,2,-1,0,0,0,0
83410775484,-1,-13,-2,-3,-1,0,-2,0
83410777107,0,-6,-1,-1,-2,-2,0,0
83410777107,-11,-19,-4,-3,-2,0,-2,-2
83410789852,4,9,-1,-2,-1,-2,-1,-2
83410789852,-7,-4,-3,-2,0,-1,2,1
83410796703,-3,14,-4,-3,-2,-1,-1,-3
83410796703,-8,-8,0,1,-1,-1,1,0
83410812966,-1,7,-2,-1,0,0,-3,0
83410812966,6,-8,-1,-1,-2,-1,-1,0
83410814617,-4,1,-3,-1,-1,-1,-1,-3
83410814617,-5,-2,-1,-4,-3,-2,-2,-1
83410835434,0,-2,-1,-1,-2,1,-1,0
83410835434,15,2,-2,1,-1,-2,-1,0
83410837077,-10,-7,0,-1,0,0,-1,-3
83410837077,-9,-6,-1,1,0,-1,-3,0
83410849842,2,20,-1,-3,-2,0,-1,-3
83410849842,17,-16,5,2,0,0,-1,4
83410856686,-7,-22,-6,-1,-1,1,0,0
83410856686,-3,0,-3,-1,0,0,-1,-1
83410872948,7,6,1,0,1,0,0,0
83410872948,-7,3,-2,-2,-1,-2,1,-1
83410874628,-2,-1,0,0,0,-1,0,-2
83410874628,-6,-7,-2,-2,0,-1,-2,-2
83410895405,-3,-13,-2,-1,-1,-2,-4,-1
83410895405,-11,-3,-4,-3,-4,0,-2,-3
83410897087,-2,-5,-1,-1,-2,-2,-1,0
83410897087,-1,3,0,-1,-1,0,-1,-3
83410909779,-3,-10,-2,1,0,-1,-1,-2
83410909779,-16,0,-1,-2,-2,-1,-3,-3
83410916664,-2,4,-1,0,-1,-2,-2,0
83410916664,4,-1,0,0,-1,-2,0,0
83410932959,-4,-3,-4,-2,-2,0,1,-1
83410932959,-5,1,-1,-1,0,-1,-1,0
83410934556,13,4,-4,-4,-3,-1,0,0
83410934556,-1,5,2,0,-1,-2,-2,-3
83410955491,-5,-5,-1,2,1,-2,0,-1
83410955491,12,10,1,-3,-3,-1,0,-2
83410957046,-6,-7,-3,-4,-2,-1,-2,-1
83410957046,-15,-3,-4,-4,0,-3,-2,-2
83410969812,-9,-2,0,-1,-3,0,0,-8
83410969812,5,3,-3,1,-1,-1,-1,7
83410976611,2,11,1,1,0,1,-1,2
83410976611,-5,-7,0,-2,-2,-2,-3,-1
83410992963,-2,-5,-1,-2,-2,0,-2,-2
83410992963,-8,-1,-1,-3,-1,-1,-2,-4
83410994575,-7,-23,-3,1,0,0,-2,-3
83410994575,13,18,-3,1,0,-1,-1,2
83411022964,7,6,4,0,0,-2,-1,3
83411022964,-2,6,0,2,-2,-1,-2,-2
83411024590,1,4,-3,-3,-1,-1,-3,0
83411024590,4,6,1,-2,-1,0,0,-2
83411029839,-1,-5,-4,-2,-2,-2,-2,-2
83411029839,-14,-9,-2,-3,-1,-1,-2,-1
83411036647,3,0,4,2,2,0,0,-1
83411036647,-3,-2,-4,-1,-3,0,0,-3
83411052987,-5,-7,-1,-1,-3,-1,-2,-1
83411052987,3,-7,-5,-2,-1,-2,-1,-4
83411054585,-7,1,1,-3,-2,-2,2,-3
83411054585,2,25,3,0,0,-1,0,0
83411075445,11,-8,-3,-2,1,-2,0,4
83411075445,-4,4,1,2,1,0,0,-4
83411077091,4,13,0,-1,-4,-2,-2,-1
83411077091,-3,-12,-1,1,1,0,-1,1
83411089793,-19,0,0,0,0,0,-3,-2
83411089793,-9,1,-1,-3,-4,-1,-2,-3
83411096630,-3,-3,-3,-1,-1,-1,0,-2
83411096630,-6,-5,-1,-1,-1,0,0,0
83411112893,-3,-35,-6,-2,-2,0,-1,-1
83411112893,-3,-16,-4,-1,0,-2,1,0
83411114583,5,7,2,-2,-3,-2,0,0
83411114583,-4,-10,-1,-1,-2,-2,-1,-2
