timestamp,emg1,emg2,emg3,emg4,emg5,emg6,emg7,emg8
115665055946,-1,0,-1,-2,-1,0,0,-1
115665055946,-2,-1,-3,-1,-2,-2,-1,-3
115665056718,0,-1,1,-1,-2,-1,0,-1
115665056718,0,0,1,-3,-1,-1,-2,-1
115665057531,-2,-1,0,-1,0,2,-2,-1
115665057531,1,0,-1,-1,-3,0,1,-1
115665058361,0,1,-1,-1,-3,-2,-2,-3
115665058361,-1,-3,-1,-2,-1,-2,-1,-1
115665069622,0,0,-1,0,-1,-1,0,0
115665069622,-1,-1,-1,0,0,-1,-2,0
115665077623,-2,-2,-3,-2,0,-1,-1,-1
115665077623,0,-2,-2,-1,-1,0,0,-1
115665083961,1,-2,-1,-1,-2,-1,0,-1
115665083961,-1,-2,-1,-4,1,0,0,-2
115665098943,-3,-1,-1,-2,0,0,-1,-2
115665098943,0,-1,-1,0,-2,0,-2,-3
115665108272,-2,-1,-1,-1,-1,-4,-2,0
115665108272,-2,-1,-1,0,-1,-3,-2,-1
115665113929,1,0,-1,0,0,0,-2,-1
115665113929,-2,0,-2,-2,0,-1,0,-2
115665129700,1,-1,-1,1,-2,-1,-2,-3
115665129700,-1,1,2,-2,0,-1,-2,-1
115665137581,-2,-3,-1,0,-1,-1,-1,1
115665137581,-3,-2,-1,0,0,1,-1,1
115665177225,0,-2,-2,-1,0,1,-1,-2
115665177225,-1,-1,-2,-2,-1,-2,0,-3
115665178011,1,-2,-3,-2,-1,-3,1,-1
115665178011,0,-1,-1,-2,-2,0,-1,0
115665178826,0,1,-3,1,-1,-2,0,-1
115665178826,1,-1,-2,-1,0,-1,-1,0
115665181238,-1,0,-2,-2,0,-2,-2,0
115665181238,-2,-2,-2,1,0,-3,-3,-1
115665189433,-2,0,0,0,0,-2,0,0
115665189433,-3,-1,-1,-1,0,-1,-2,-3
115665196277,-1,-4,-1,-1,-2,1,1,-1
115665196277,-2,-2,-1,0,-1,-1,0,-2
115665203742,-1,-1,0,0,-2,-1,-3,1
115665203742,-2,0,-1,-2,-1,-1,-1,0
115665218776,-1,0,-1,-2,-1,-2,-3,-1
115665218776,0,-1,-2,-1,-3,-3,0,-3
115665227409,-2,-2,0,-1,-2,-1,-1,-2
115665227409,1,-1,0,2,-1,0,0,0
115665235236,-2,0,0,0,-1,0,-2,-3
115665235236,0,-1,-1,-1,-1,1,-1,0
115665249451,-1,1,0,-3,-2,-1,-1,-1
115665249451,0,-1,0,-1,-3,0,-1,0
115665256274,-1,-2,-2,-1,-1,0,-1,-1
115665256274,0,1,0,-1,-1,-3,-1,-1
115665263782,-1,-2,-1,-1,-2,0,0,-2
115665263782,-1,-2,0,-1,-2,-3,-2,0
115665278781,0,0,0,-1,-1,-2,0,-1
115665278781,-1,0,-2,-1,1,-1,-1,-3
115665286942,0,-2,-2,-1,-1,-1,-1,0
115665286942,-1,-2,-1,-2,-1,-1,0,-2
115665293767,1,-1,0,0,0,-4,-2,-1
115665293767,-1,-1,-2,0,-2,-3,-2,-2
115665309456,1,0,-1,-1,-1,-1,0,-1
115665309456,-2,-1,-1,-1,0,1,-1,-3
115665316264,0,1,0,0,-2,0,1,0
115665316264,-1,-2,0,-2,-2,0,-1,0
115665323779,-2,-1,-2,-2,-1,-1,0,0
115665323779,1,-1,-2,-1,-1,-1,-4,-1
115665338750,-2,-1,-2,-1,1,1,-2,-1
115665338750,-2,0,-1,-2,-1,-3,0,-2
115665346939,-2,-1,0,0,0,-2,0,-2
115665346939,-2,-1,0,-1,-1,-1,1,-2
115665353739,-1,-1,0,1,-2,0,0,-1
115665353739,-1,-1,0,0,0,2,1,-3
115665369456,-1,-1,-2,-2,-2,-1,-3,-1
115665369456,-1,1,-3,-1,-3,-3,-2,-2
115665376237,-1,-1,3,-2,-1,-1,-1,-1
115665376237,-3,-3,13,1,1,1,1,0
115665383680,-2,0,-3,-2,-2,-3,-2,-3
115665383680,1,2,12,2,1,1,-2,1
115665398783,-2,1,-11,-4,-1,-2,-2,-3
115665398783,2,1,2,-1,-1,-1,-2,0
115665406975,1,-2,10,2,0,2,0,0
115665406975,0,-1,-1,0,-2,-1,0,0
115665413730,0,-1,-4,1,-2,-4,0,-3
115665413730,-2,1,-2,-2,0,0,-2,-3
115665429496,-2,-1,-8,-2,-3,-3,-3,-3
115665429496,-3,-3,-19,-6,-7,-2,-2,-1
115665436241,1,-2,4,-2,2,3,1,1
115665436241,-2,-1,-1,-2,0,-1,-2,1
115665443768,-1,-2,1,-5,-1,-1,-2,0
115665443768,-1,1,-4,2,-1,-1,-2,-2
115665458783,-2,-2,0,-7,-4,-1,-3,1
115665458783,0,-1,-4,0,-1,-1,-2,0
115665466941,-2,-2,-6,-3,-1,-2,0,0
115665466941,0,-2,4,1,1,0,0,0
115665481256,0,-1,2,3,-1,0,1,-3
115665481256,-1,-1,-1,1,-3,-1,-1,-1
115665489478,-2,-1,-1,0,-1,-1,-1,-3
115665489478,1,-2,2,-1,1,-3,0,-2
115665496278,0,-2,-3,-3,0,-3,-2,-1
115665496278,-2,-3,-8,-3,-3,-2,-2,0
115665503719,-1,-2,3,4,-2,-2,-3,-4
115665503719,1,3,3,-2,0,3,3,1
115665518772,-2,-1,1,4,-1,0,-1,-2
115665518772,0,-1,-6,-13,1,0,0,-1
115665526940,1,-1,-3,-1,-2,0,-1,2
115665526940,-2,-3,0,-2,-2,-3,-2,-4
115665541263,0,-1,2,-1,-3,-3,-1,-2
115665541263,-2,-2,-1,-5,-3,-3,-1,-3
115665549433,-2,2,3,3,3,1,-2,-2
115665549433,-2,-1,-2,2,4,1,0,2
115665556275,0,1,1,-2,-4,0,-1,1
115665556275,-2,-1,0,1,0,-2,-2,-1
115665563774,-1,-1,-2,-3,-5,-4,-2,-3
115665563774,-2,-2,-2,3,-1,-1,-3,-1
115665578805,-2,0,0,1,0,0,-1,0
115665578805,0,1,1,5,3,-1,-2,-3
115665586961,1,0,-1,-6,-1,2,2,0
115665586961,-2,-2,0,-3,-2,-1,-1,-3
115665601319,-3,-1,-1,-6,-1,-3,-1,-1
115665601319,-1,-1,-2,2,-3,0,-3,-2
115665609484,-2,-1,-4,-4,-1,-4,-4,-2
115665609484,1,2,-1,-4,-1,-3,-1,1
115665616220,-3,-1,-2,-2,1,6,-3,-3
115665616220,14,1,1,-1,-1,0,3,0
115665623810,-5,-3,-2,-10,-1,-8,-4,2
115665623810,0,-1,1,9,0,1,1,1
115665638731,-4,1,-1,7,-2,-3,-1,-3
115665638731,2,1,-4,-15,-2,2,2,4
115665646963,-1,-2,1,3,2,1,1,-2
115665646963,-2,-3,-3,-3,-8,-3,0,-4
115665661229,-2,-4,-5,-6,-3,-10,-6,-1
115665661229,-4,0,1,-1,2,5,-1,-2
115665669456,0,1,1,3,1,0,-3,-2
115665669456,0,2,0,-3,9,3,3,1
115665676267,-7,-13,-7,-8,-4,-1,-15,-3
115665676267,-3,-2,-1,9,-3,-3,9,0
115665683719,2,-1,0,-12,-4,-14,-9,1
115665683719,-2,-2,1,10,1,13,2,-2
115665698759,-1,-3,2,-16,1,7,2,0
115665698759,1,6,-1,5,2,-2,-3,-4
115665706253,-19,-4,-1,-3,-1,-8,-11,-2
115665706253,-2,-2,-1,-5,-2,-4,7,-4
115665721254,1,4,3,24,-2,5,5,2
115665721254,-9,-7,-7,-31,-7,-11,-4,-2
115665729444,1,-1,-2,4,3,17,1,-3
115665729444,9,-1,-3,4,-5,-22,-16,-6
115665736262,-7,0,1,2,-4,14,9,11
115665736262,-5,-3,0,11,1,-8,-3,-1
115665743779,0,2,-2,-4,0,10,2,38
115665743779,10,4,5,-11,-3,13,-1,4
115665758792,7,-5,5,12,9,-12,-3,-9
115665758792,-4,-5,-5,8,-9,-34,-6,6
115665773750,-11,-10,-4,-20,-5,27,4,0
115665773750,24,15,-2,11,7,-2,-12,-8
115665781247,4,5,-1,-11,1,11,17,13
115665781247,-5,-7,-1,-6,7,15,-1,5
115665790242,2,-1,0,-1,-9,-11,0,-9
115665790242,-13,-8,-3,-25,-3,-13,-3,-14
115665796244,1,4,-1,30,11,-12,-6,-7
115665796244,-5,0,0,-18,-16,0,-6,-8
115665812752,12,1,2,23,3,1,3,-6
115665812752,-16,-9,-2,-7,-6,32,8,3
115665818729,8,4,3,-7,2,-17,-2,-2
115665818729,-2,-3,-5,34,4,6,9,5
115665833750,1,3,0,4,4,-6,-10,-8
115665833750,-10,-4,-3,-9,-8,-32,-8,3
115665841270,-13,-2,-4,-3,-1,24,8,3
115665841270,7,3,3,2,2,3,3,-3
115665850363,-1,-3,-5,-2,-4,3,1,-11
115665850363,-5,-4,-2,1,1,-12,-12,0
115665856251,3,1,-2,-6,-9,-11,1,-6
115665856251,2,2,1,-1,6,18,1,0
115665872741,-1,-1,0,3,-3,-5,6,-1
115665872741,-6,-5,-2,-3,1,2,2,-3
115665878790,0,1,3,-8,0,-14,-8,-4
115665878790,-8,-1,1,-1,1,9,-10,-4
115665893790,6,-2,-7,-3,0,-11,0,3
115665893790,-1,1,2,-3,-19,-6,5,-1
115665901209,-14,-4,-5,-3,-2,12,5,-11
115665901209,-2,-3,1,0,7,8,1,3
115665910353,3,3,4,-1,1,4,3,0
115665910353,-5,-2,-3,-3,-3,-3,-7,-4
115665916278,2,-2,-6,-20,-13,-33,-8,2
115665916278,-1,-3,1,21,12,22,12,-10
115665932794,2,1,3,-1,-1,7,4,0
115665932794,1,-4,-2,5,4,11,9,2
115665938727,-5,-4,-7,-5,-7,-31,-14,-7
115665938727,1,4,-1,-16,-5,11,-7,2
115665953736,2,1,1,19,17,-11,-1,-5
115665953736,-8,-3,-4,-5,-5,-19,-1,-4
115665961267,0,-2,-2,-12,3,29,14,13
115665961267,3,-2,-1,20,-15,-13,-2,-5
115665970266,0,0,0,2,13,-2,2,1
115665970266,-3,6,5,0,5,22,1,5
115666000125,2,-5,-2,-17,-9,-6,-11,-7
115666000125,-1,-3,-8,-13,-7,-15,-9,-5
115666001730,-2,2,7,0,-7,-15,-3,-2
115666001730,0,-1,-7,14,-2,8,-2,-16
115666013761,-10,-4,2,4,2,16,5,18
115666013761,13,4,3,3,0,-10,-6,3
115666022736,-1,-2,-3,-4,4,4,2,3
115666022736,0,-1,-2,5,4,-12,-1,-1
115666036279,-3,-3,-3,17,0,-7,-10,-10
115666036279,-6,-4,-5,-25,-10,-15,-3,-9
115666045215,-1,-4,-13,-8,-8,-8,-7,5
115666045215,3,1,12,10,15,17,12,8
115666058749,0,-1,-3,11,0,6,2,-11
115666058749,-4,-5,-5,-11,-6,-26,-8,-4
115666067789,6,6,6,-8,6,16,-6,-3
115666067789,-3,-1,-1,-19,-10,6,4,11
115666082618,2,-4,-10,-1,5,-24,0,-9
115666082618,-3,2,3,10,8,-17,-3,-3
115666084230,-7,-4,-6,-8,-5,19,-5,-19
115666084230,5,0,5,-12,-1,-2,-1,19
115666090058,9,11,6,14,-5,5,0,-5
115666090058,-4,-3,-2,-10,6,3,6,-5
115666091671,-6,-4,-3,5,-14,0,4,-1
115666091671,-3,-3,-3,8,4,-7,-8,-4
115666096248,8,6,1,-13,1,9,-4,1
115666096248,3,1,3,5,-10,13,0,3
115666112782,-6,-4,0,1,3,-5,5,0
115666112782,-2,-1,-9,-3,-5,-8,-4,-8
115666118728,-7,-1,4,3,-7,-12,-15,-1
115666118728,-4,-3,-8,-11,-1,8,2,4
115666133750,2,1,3,-7,-6,0,5,2
115666133750,2,-2,-10,-6,1,-8,1,-2
115666141301,0,-2,0,11,12,3,-3,-5
115666141301,-3,-2,-2,14,-7,0,-2,-5
115666150241,-1,-2,-7,-32,-8,-13,-6,-1
115666150241,-4,1,0,0,7,2,-4,-5
115666163759,3,-1,1,-12,-9,14,8,12
115666163759,1,-2,1,-22,-4,-4,-3,-9
115666172761,-11,-7,-1,60,3,-4,1,0
115666172761,17,2,0,-23,1,-5,-8,-7
115666186971,2,3,3,-5,3,-2,1,2
115666186971,0,3,9,12,13,9,3,3
115666193777,-1,-1,-10,17,-13,-9,-4,-21
115666193777,0,-2,-2,-7,-10,-1,-1,5
115666201308,-2,-1,-1,26,7,0,0,-6
115666201308,0,0,-3,-1,-4,-3,-2,4
115666210245,1,2,4,-28,-3,4,6,14
115666210245,-7,-6,-8,24,-4,-2,-2,-3
115666223751,-4,-4,-3,-3,1,0,-3,-1
115666223751,0,-1,-11,-14,-14,-9,-2,-2
115666232777,6,0,7,10,17,7,-1,13
115666232777,-2,3,7,-13,23,3,3,4
115666246976,-2,-6,-3,1,-43,-8,-3,-6
115666246976,-1,-2,-2,11,12,0,1,-2
115666253766,-3,0,0,-13,4,-8,-4,1
115666253766,0,-5,2,15,-20,-6,-3,3
115666261290,-2,5,-26,-12,6,1,-2,-5
115666261290,-1,-4,25,-14,8,9,2,5
115666270277,3,-1,16,-49,-24,-4,0,-4
115666270277,-9,-5,-6,51,20,-2,-4,-9
115666283806,6,-2,8,7,4,-2,0,-2
115666283806,-7,2,-15,0,-5,-3,-1,3
115666292836,-11,2,-34,-3,-4,-3,-3,-6
115666292836,-2,-1,17,-28,-4,6,2,0
115666306969,-12,-1,-10,20,11,0,-4,-4
115666306969,0,-2,5,-30,-7,-3,-18,1
115666313748,4,2,2,-10,1,2,-25,-2
115666313748,10,0,-11,3,-20,-7,-16,-1
115666321261,5,-1,-3,-29,5,-1,-8,0
115666321261,0,-3,14,6,-1,3,10,-4
115666330288,-3,-6,0,15,-2,-8,18,-13
115666330288,21,0,-1,-6,12,0,20,-1
115666352575,-2,-2,6,-21,-21,-3,18,5
115666352575,-14,0,-12,-4,-5,14,-9,-2
115666354244,-5,-1,4,39,5,1,-21,-1
115666354244,-5,-3,-5,-1,-6,-3,-19,-6
115666367597,5,-2,0,-11,16,-6,-13,-5
115666367597,11,0,-4,4,-4,-3,9,12
115666369198,5,-1,5,28,-10,-8,14,-4
115666369198,-5,2,-3,-7,14,4,22,-2
115666381294,0,-1,2,14,-16,2,16,2
115666381294,-3,-1,-4,-3,-7,-7,10,-3
115666390224,-2,-1,-5,-24,4,1,1,1
115666390224,-2,-1,2,8,-8,-2,-20,6
115666403731,-4,-3,-2,-5,5,2,-26,1
115666403731,2,0,-4,11,4,-4,-26,-3
115666412786,0,0,5,9,8,2,-14,1
115666412786,-12,-5,-7,-24,6,2,-9,-5
115666427624,0,-1,-3,-12,-2,3,3,3
115666427624,0,-1,-2,1,-8,-7,6,-2
115666429217,-2,6,-8,4,3,-3,6,-6
115666429217,-10,-5,-8,6,1,3,15,-2
115666441238,0,-6,22,-25,4,5,11,4
115666441238,7,-2,2,18,14,1,12,-1
115666450233,0,-3,12,-23,-15,-2,8,2
115666450233,-3,8,-18,5,-19,-9,3,-6
115666463779,-8,-2,-18,20,10,2,8,0
115666463779,-4,-12,1,-10,5,4,5,4
115666472770,-1,-1,-10,-10,1,-1,1,0
115666472770,1,1,4,-12,-5,-3,1,-1
115666487604,-1,12,-8,16,-3,-8,-5,-8
115666487604,-3,-5,5,-2,2,2,6,0
115666489194,0,-10,-4,5,3,-1,-3,-1
115666489194,-1,-3,6,-12,-3,-1,0,2
115666501308,-3,-3,-22,-19,-3,-2,0,-1
115666501308,-2,0,-7,18,-1,-3,-5,-3
115666510274,13,4,34,-2,-3,2,0,1
115666510274,4,8,23,20,4,-1,-1,-2
115666523797,-1,0,-5,-19,6,-4,-8,-4
115666523797,-5,0,-33,6,-22,-6,-4,-4
115666532818,4,3,-13,-8,4,5,5,4
115666532818,-8,-1,-7,-22,-10,0,-3,-7
115666547634,5,-16,4,35,7,2,0,6
115666547634,14,17,17,-15,1,-5,-4,0
115666549236,-3,8,-18,-7,-8,-8,-6,-6
115666549236,-5,-5,-4,22,11,3,2,-4
115666570100,24,12,1,-20,-14,6,7,7
115666570100,-15,-8,24,7,4,-2,-8,-41
115666571694,17,-2,-35,-23,-15,-7,-14,-16
115666571694,-15,7,49,28,3,1,8,25
115666583784,-13,-7,-2,8,-2,-4,-3,-1
115666583784,-6,-10,-13,25,17,4,3,19
115666592741,-22,-21,-44,-26,-18,0,5,-12
115666592741,13,-3,5,-14,-1,-2,-7,0
115666607579,8,6,33,20,-2,1,-4,-11
115666607579,18,7,9,-54,10,0,-1,14
115666609200,-6,0,-9,-31,-13,-4,-2,2
115666609200,2,-14,-17,-4,-8,-7,-3,-2
115666621236,-16,-4,21,6,-11,-14,1,3
115666621236,1,-1,-23,-16,-5,4,-5,-4
115666630295,19,4,64,77,13,7,8,13
115666630295,-1,-2,-44,-53,-7,1,-6,-25
115666643813,5,8,109,41,17,10,8,17
115666643813,-7,-9,3,17,-15,-6,0,-2
115666652764,-18,-7,-15,-21,2,-19,-7,-28
115666652764,-22,-4,-1,13,0,12,-9,0
115666667614,45,12,-47,19,16,13,6,22
115666667614,-14,8,-12,-1,-6,0,0,-15
115666669186,-5,1,17,-4,-1,-2,-1,11
115666669186,-4,-2,-9,7,4,-5,-7,-8
115666681298,-13,-7,-25,-48,-17,-22,-5,-12
115666681298,5,1,5,-3,9,7,7,6
115666690264,12,7,-1,21,6,30,0,5
115666690264,-9,-10,-2,-3,-1,-31,3,-8
115666703788,-16,-4,-16,-2,12,32,-6,4
115666703788,12,3,4,4,1,4,2,18
115666712727,-13,-5,-6,-22,-13,-15,-4,-10
115666712727,6,1,2,14,-4,0,-2,6
115666726946,-11,-7,-11,-37,-27,-16,-3,-11
115666726946,-9,-5,-38,2,11,-8,-6,-9
115666733829,-7,-5,14,3,9,5,2,5
115666733829,6,3,7,-23,-12,-1,0,3
115666741342,-15,-9,-15,7,5,-9,-7,-10
115666741342,7,3,-6,6,-12,0,-3,-3
115666750208,-2,-1,0,1,6,-5,0,5
115666750208,1,-2,-2,-30,-2,-1,0,0
115666763750,-12,0,-7,-9,-3,0,2,-8
115666763750,0,-2,14,2,-1,-2,-1,1
115666772698,2,1,2,20,1,-2,2,5
115666772698,3,3,5,9,4,1,1,0
115666786970,0,-2,-8,-8,1,5,-3,-4
115666786970,-7,-3,7,-6,-10,-4,-1,0
115666793750,0,0,-4,16,10,-2,-3,-4
115666793750,2,2,-6,5,-5,6,1,4
115666801244,-7,-5,-6,-6,4,-2,-1,-3
115666801244,19,3,6,8,2,-3,-2,-2
115666810224,-6,-2,-3,4,-2,0,-3,-5
115666810224,0,1,2,-27,-10,7,4,5
115666823788,4,-1,-3,20,8,-3,-1,-5
115666823788,-7,-2,3,7,6,-3,-2,-2
115666832809,-3,-3,-5,-34,-14,-2,0,-2
115666832809,3,-1,2,20,1,1,-3,-2
115666846950,-6,-1,-6,1,2,-4,-7,-2
115666846950,-2,0,-7,-14,-3,1,0,1
115666853808,-1,-2,4,-2,3,1,-1,1
115666853808,1,2,3,6,-4,-2,0,-4
115666861279,-12,-9,-4,-3,2,-1,-3,-8
115666861279,-13,-3,-1,1,-4,-3,-3,-1
115666870204,17,2,1,5,1,0,1,4
115666870204,-3,-2,0,-2,1,1,1,-1
115666883725,3,-1,-5,-3,-1,-4,-5,-4
115666883725,6,0,2,6,-5,-1,0,0
115666892800,-4,2,-2,15,15,6,0,2
115666892800,2,-1,-3,-8,-11,-5,-3,-1
115666906978,4,2,3,12,1,4,1,3
115666906978,-11,-5,-2,-7,-2,-6,-1,-3
115666913760,2,0,0,-3,1,-4,-5,-7
115666913760,-10,-8,-4,39,13,2,-2,0
115666921212,2,3,1,-19,-19,-8,0,2
115666921212,-4,0,1,9,5,6,6,0
115666930292,1,1,-2,7,-5,-6,-3,-3
115666930292,-3,-4,-10,-1,1,-5,-2,-2
115666943729,5,2,8,28,-5,1,-1,-2
115666943729,-1,2,6,-31,4,0,-3,1
115666952750,-3,-3,-8,0,-3,1,2,2
115666952750,3,1,0,11,-3,-4,-6,-4
115666966989,0,-2,-6,14,17,-5,0,1
115666966989,0,0,-1,-14,-17,-2,0,-1
115666973766,-17,-4,-17,-5,6,1,-1,1
115666973766,22,7,3,-8,9,2,2,1
115666990097,-2,2,15,6,1,0,-2,-3
115666990097,-2,-4,-35,11,1,-4,-4,-1
115666991715,-5,-8,14,-21,-9,-1,3,3
115666991715,-4,-1,-1,5,1,1,0,-3
115667003756,0,-2,-12,-3,-6,-1,-3,-4
115667003756,1,-2,-2,-9,-8,-4,-2,-4
115667012750,0,1,1,12,5,1,-3,-1
115667012750,-7,-4,-8,8,2,-2,-5,-3
115667026976,3,1,2,4,-6,3,2,2
115667026976,1,1,-4,-3,2,-3,-3,-1
115667033716,0,-3,-3,-13,-11,-1,-2,-4
115667033716,-3,-1,4,-9,1,-2,-1,0
115667050093,-5,-4,-10,-3,-4,-4,-4,-3
115667050093,-1,-2,7,-15,-12,-1,1,3
115667051696,-1,0,3,9,9,-3,-3,-1
115667051696,0,-3,-17,-8,-17,-2,0,-2
115667063775,1,-2,3,-9,-7,0,1,-2
115667063775,-4,0,8,22,4,0,-2,-3
115667072710,11,1,-4,0,-2,-1,3,1
115667072710,-5,-1,4,-6,-4,2,1,1
115667086919,-2,-1,-5,-14,1,0,0,-3
115667086919,-2,-2,8,4,3,-3,-6,-2
115667093751,-4,-1,2,-1,-2,-3,-2,0
115667093751,2,4,0,-7,0,3,-1,-1
115667110033,-5,-4,0,-15,-4,-4,0,-1
115667110033,-1,1,0,2,-1,0,-2,-2
115667111690,-3,-2,-1,-3,-1,-8,-1,-1
115667111690,1,-2,1,3,1,1,-2,-4
115667123779,0,-1,-3,-6,-3,2,3,-2
115667123779,-14,-5,-1,-6,1,-2,-4,0
115667132813,2,2,0,-1,-2,-3,2,-4
115667132813,-3,-2,3,-3,1,1,-3,1
115667155053,-1,1,-1,-13,-6,-2,-1,0
115667155053,-2,-3,-1,17,7,-4,-2,-3
115667156688,0,-2,2,-5,-4,6,-1,3
115667156688,-3,0,-2,4,-1,-6,0,-3
115667170061,0,0,2,-9,-3,5,-1,0
115667170061,2,-2,0,10,-3,-9,-3,-1
115667171657,-4,-2,-1,-3,2,17,7,-1
115667171657,1,-3,-2,-2,0,-6,-5,-3
115667183765,2,1,-2,-2,-3,-3,-2,-1
115667183765,-1,1,0,-4,0,-1,0,-3
115667192800,-2,-4,-1,0,-1,-4,-4,-4
115667192800,-1,0,3,-5,-1,-1,2,2
115667206942,-1,-1,-3,7,2,2,1,-2
115667206942,1,-2,-1,-8,-10,2,-2,0
115667214371,-1,-2,4,3,-1,-24,-9,0
115667214371,-2,-3,-5,-17,-5,10,9,-3
115667230177,-1,-1,1,-2,3,10,2,2
115667230177,2,-2,-4,0,5,1,0,-1
115667231731,-4,-2,-2,-9,-6,5,-5,-5
115667231731,-3,-2,-1,1,-6,-35,-19,-1
115667243802,-2,-2,1,-2,0,17,7,0
115667243802,4,1,6,4,11,22,15,4
115667252718,1,3,0,2,2,16,3,-1
115667252718,-1,0,1,2,-2,-15,-5,-1
115667266940,-4,-3,-7,-9,-7,5,1,-7
115667266940,-1,-3,-1,7,-5,-30,-12,-2
115667273732,-3,-3,-4,0,-2,8,-6,-3
115667273732,-7,-4,0,4,6,17,11,5
115667290098,10,3,0,2,-1,-18,-6,0
115667290098,-3,-2,0,0,-1,7,3,-3
115667291733,1,-1,-1,-18,-7,-8,-2,-2
115667291733,-1,-2,0,2,1,6,1,0
115667303759,-3,-4,0,-1,-2,-3,-2,0
115667303759,0,0,1,7,-1,-1,-3,-3
115667312720,-1,-2,-4,-2,-1,0,4,0
115667312720,0,3,-1,-5,-8,-12,-8,-3
115667326941,-1,-1,1,-3,6,-13,-5,2
115667326941,1,0,-6,4,-2,7,3,0
115667333747,-3,-3,-2,2,2,-5,3,-3
115667333747,1,0,-1,-3,3,24,1,-1
115667350252,-1,-2,0,7,-3,-6,-1,-2
115667350252,-1,0,2,-10,-1,-6,-3,-3
115667351724,-7,-13,-4,-1,-5,2,2,3
115667351724,-3,-2,-1,-1,-7,-17,-4,-4
115667363710,-1,-1,0,-4,-2,-7,-5,-2
115667363710,-5,-4,-3,-6,2,3,-1,1
115667372739,5,3,1,0,3,25,4,1
115667372739,3,1,-1,6,4,-11,1,1
115667386957,-2,-2,-2,-6,-4,-7,-6,-3
115667386957,-3,-1,-5,-8,-6,-3,-3,-6
115667393756,-3,-1,-2,4,-2,-9,-7,-1
115667393756,1,-4,-2,-2,-5,-4,1,0
115667410107,-3,0,-1,11,6,20,4,1
115667410107,3,0,0,-5,2,-2,2,4
115667411700,0,2,3,-10,-1,-8,-4,-1
115667411700,-3,-3,-5,-1,-3,1,3,-2
115667423760,-2,-4,-8,4,-5,-3,0,-2
115667423760,-4,-1,1,12,0,-8,-6,-1
115667432734,3,2,1,-14,-3,-6,-8,3
115667432734,1,0,0,0,5,19,8,-2
115667455224,0,0,0,0,0,-5,-2,-1
115667455224,1,-3,-3,-14,-3,8,4,1
115667456746,-5,-3,-2,4,-4,-15,0,-3
115667456746,-1,-1,-1,0,6,24,0,0
115667470072,0,-2,1,-4,3,-4,-1,0
115667470072,0,-1,-1,6,-2,-3,2,1
115667471737,-3,0,-5,-9,-2,-12,-4,-2
115667471737,-5,-2,-5,-9,-9,-2,-3,-4
115667483781,-4,-1,-3,-4,-2,-16,-8,3
115667483781,-4,-3,2,1,4,13,8,3
115667492749,1,2,0,12,4,7,2,0
115667492749,-4,-4,-3,-4,-2,2,1,-1
115667506908,1,-3,-6,-10,-3,-3,-2,-2
115667506908,-5,-3,-5,-21,-16,-12,-6,-2
115667513766,-1,0,-1,18,3,4,2,0
115667513766,3,0,-3,-54,-17,-13,-7,0
115667530113,3,1,6,15,7,-3,-2,-1
115667530113,6,0,2,5,2,4,-8,-4
115667531722,6,1,1,-1,-8,-21,-1,-6
115667531722,8,3,5,6,4,10,4,-3
115667543770,8,2,3,17,3,5,3,-3
115667543770,5,2,4,-5,2,11,0,-3
115667552802,-2,2,2,0,1,-9,-3,-1
115667552802,-8,-2,-1,27,0,-6,-1,-2
115667566992,-10,-4,-8,-27,-11,15,5,-1
115667566992,-2,-4,-8,10,1,-48,-4,0
115667573727,1,-3,-5,-12,-6,-5,-14,0
115667573727,-3,0,0,9,3,-2,-6,1
115667590150,-9,2,8,2,5,18,15,1
115667590150,-5,3,3,4,7,17,7,-2
115667591724,-3,0,0,-3,-4,10,4,3
115667591724,4,-3,1,-2,-2,-7,0,2
115667603781,4,-5,-4,0,-7,-10,-11,-3
115667603781,-2,1,1,3,-5,-7,-5,0
115667612754,-2,-5,-2,3,1,-1,4,-1
115667612754,1,2,2,11,5,2,-2,-7
115667626955,9,3,3,4,-3,-9,-4,-11
115667626955,-1,-1,-1,3,-1,-2,1,-10
115667633748,13,14,3,2,-1,0,-2,-15
115667633748,-4,-7,1,7,-2,-7,-1,0
115667650149,-13,4,-1,-3,-1,-3,-1,-6
115667650149,-1,-2,-1,-6,-4,3,-5,-2
115667651700,-2,-1,-4,-2,-1,6,0,6
115667651700,-3,-1,-3,-7,1,-2,1,5
115667663769,-2,-2,-5,-7,-1,-2,-1,5
115667663769,6,-1,-6,-7,-2,4,-3,5
115667672701,-21,-5,-4,-7,1,3,0,7
115667672701,2,5,-2,-4,1,-1,0,5
115667686933,-4,-9,-6,-5,-1,-1,-2,5
115667686933,0,-1,-3,-9,-1,2,-3,0
115667693738,2,-5,-1,5,0,0,0,-5
115667693738,0,-4,0,0,0,-4,-2,-8
115667709417,0,2,1,6,-3,-1,-4,-4
115667709417,-4,3,3,8,6,0,-2,-2
115667716261,6,-11,-2,-1,-10,-3,-1,-7
115667716261,-3,1,-1,2,0,1,-1,-1
115667723745,1,0,0,-5,-2,-2,-1,1
115667723745,-1,1,-1,0,0,1,-1,-2
115667732793,-3,-2,-3,0,1,-2,1,1
115667732793,0,0,-3,-2,-2,-2,-1,1
115667746944,2,-4,-3,-2,0,-3,-2,1
115667746944,-4,-4,-1,-1,-2,0,-1,-2
115667753750,-1,2,1,0,2,0,-2,0
115667753750,-2,-3,1,-1,-2,0,-1,-1
115667769469,0,0,3,1,1,-1,-1,-2
115667769469,0,-2,-2,0,-3,0,0,-3
115667776237,1,-3,1,-2,0,0,1,1
115667776237,-9,0,-3,-4,-2,0,-2,-1
115667783720,3,-1,0,-1,-1,0,-1,-1
115667783720,0,-2,-3,-4,-2,-1,-1,1
115667792766,0,-1,-1,3,-1,-2,0,2
115667792766,3,0,-1,1,1,0,-1,1
115667806953,-2,-3,-3,-4,-1,-2,-1,0
115667806953,-2,-5,0,0,-2,1,-1,1
115667813757,-1,6,-5,-3,0,-2,-1,-2
115667813757,-4,-3,1,1,1,-2,-2,0
115667829416,7,0,-2,7,-3,1,1,1
115667829416,-1,1,1,-7,-3,-2,-2,0
115667836234,-4,-3,-1,12,8,1,1,0
115667836234,2,-2,-3,-12,-9,0,-1,-2
115667843728,-2,-2,-2,-8,-7,-2,-2,-1
115667843728,0,-1,-2,-13,-3,-3,-2,-1
115667852720,-1,-7,-4,-2,1,-1,-1,-3
115667852720,0,12,1,2,-2,0,-1,-4
115667866998,-7,-7,-1,0,0,0,0,1
115667866998,-1,-4,-2,-4,-1,-1,-1,-2
115667873725,18,19,-2,10,-4,-2,-1,1
115667873725,-4,12,0,2,1,-1,0,-1
115667889503,-4,-4,-1,0,0,-1,0,-6
115667889503,-1,-1,2,0,-1,2,-1,2
115667896228,-3,0,-1,-9,-1,-2,-3,4
115667896228,6,-6,0,2,-1,0,-1,-2
115667912572,-5,1,-3,2,-2,-2,-2,0
115667912572,-7,0,0,-2,-2,-2,0,-1
115667914192,-7,-8,-1,-4,-1,1,-1,-4
115667914192,3,-1,-2,3,-1,0,-1,4
115667926902,-8,-5,-2,-6,-1,0,1,-1
115667926902,3,-2,-2,2,0,0,1,-2
115667933764,-5,0,2,-4,-3,-2,-2,-1
115667933764,-9,-10,-2,-5,-2,-2,-3,-2
115667949474,3,5,1,-1,0,-2,-3,-21
115667949474,2,1,0,3,-3,0,-1,1
115667956268,-7,-5,-3,-1,-2,1,-1,1
115667956268,4,-5,-1,-5,-2,-4,0,-5
115667972639,2,-1,-2,-3,-2,0,-4,0
115667972639,0,0,-3,6,-1,0,0,5
115667974217,-1,-5,0,-4,-1,-2,-1,-5
115667974217,3,1,1,0,0,-3,-2,2
115667986218,-7,5,-2,-1,0,0,-2,2
115667986218,-4,-9,-3,-2,-3,-3,-4,-2
115667995214,0,4,0,-2,-1,0,-1,-2
115667995214,3,-4,1,1,-2,-2,2,2
115668009444,-10,-8,-1,1,0,-4,-1,2
115668009444,6,4,0,1,-2,-2,1,-6
115668016210,-4,-2,-1,-2,-2,-2,1,3
115668016210,-8,-6,-4,-1,-1,-1,-1,-3
115668032601,4,0,-1,-6,-2,-2,-1,2
115668032601,-2,-1,-1,-1,-1,0,-3,-1
115668034251,1,-5,-2,-2,-3,-1,0,1
115668034251,-1,2,1,0,-2,1,0,-1
115668046248,0,-4,-1,1,-1,-1,-2,2
115668046248,2,-2,0,0,-1,-2,-2,-1
115668055229,-4,1,0,-2,0,-1,-1,-3
115668055229,-2,-3,-3,0,-1,-1,-1,-5
115668069492,2,1,-1,0,0,0,0,4
115668069492,-4,-2,-2,0,1,-1,0,-4
115668076251,1,-3,-2,-1,0,-1,-1,-1
115668076251,0,-3,-2,-2,-2,-3,-2,2
115668092630,4,0,1,0,0,-1,0,1
115668092630,-2,1,-2,-1,-2,0,0,0
115668094183,2,-5,-2,-2,-1,-1,0,1
115668094183,0,1,2,-1,0,1,-1,-1
115668106200,1,1,-1,-2,0,-2,0,-1
115668106200,-10,-18,-1,-2,-2,-1,-2,-2
115668115251,-1,-1,-1,-3,-1,-3,1,0
115668115251,-2,-4,-2,-4,-2,1,-2,-1
115668129459,-4,5,-2,-1,-1,1,-1,-1
115668129459,6,4,1,1,1,0,-1,-1
115668136246,1,2,0,-1,-2,-1,-1,0
115668136246,-2,-2,0,0,0,-1,-2,-2
115668152568,-2,-8,3,0,-1,0,0,0
115668152568,-9,-6,-1,-3,0,-3,-1,1
115668154198,-6,2,-2,-2,-1,-3,-2,-3
115668154198,1,1,-2,-2,-1,-1,-2,6
115668166280,-12,-7,-3,-1,-1,-1,-3,-8
115668166280,0,4,-2,-2,-1,-1,0,-2
115668175218,-1,-6,-2,0,-2,-1,0,-2
115668175218,-7,-2,-1,-2,0,0,-2,0
115668189408,9,13,0,-1,-2,0,1,3
115668189408,1,-2,-1,-1,-4,-1,-2,-1
115668196281,-3,2,0,-1,-1,0,-1,-3
115668196281,0,-3,-1,1,0,-2,1,-5
115668212627,4,4,-1,-1,0,-1,-2,1
115668212627,2,4,-1,0,-1,-2,0,-4
115668214240,-2,-5,-1,-2,-1,0,0,0
115668214240,-1,1,-1,-2,-2,0,-2,-3
115668226261,0,-3,-2,0,0,-1,-2,1
115668226261,-1,1,-1,-1,0,-2,-1,2
115668235222,-1,-1,-1,0,-2,0,-2,-1
115668235222,-2,-1,-1,-2,-3,-3,-1,0
115668249438,0,1,-2,0,-2,-2,-1,0
115668249438,-6,-3,-2,-1,-1,0,-2,-1
115668256256,7,8,2,1,-1,-1,0,-2
115668256256,0,-1,-2,-1,0,-2,-1,-2
115668272599,1,5,-3,-1,-2,-2,-2,1
115668272599,-5,4,-1,1,-1,-2,0,0
115668274224,-6,-5,-1,0,0,-1,-2,-3
115668274224,8,2,-2,-2,0,-1,-3,-2
115668286978,6,7,1,-1,-2,2,0,1
115668286978,-2,-4,-2,0,-1,-2,1,0
115668293738,-1,1,-2,-2,0,-2,-1,0
115668293738,-4,-2,-1,-2,-4,-2,0,-1
115668309452,-5,-5,-2,-3,-2,-1,-1,-3
115668309452,3,3,2,-1,-1,-1,-1,-1
115668323700,-4,-4,-3,-3,-1,0,-1,-1
115668323700,-1,0,-1,0,1,0,-1,-1
115668332531,1,-5,-3,-1,-2,0,-1,-2
115668332531,3,-2,1,-1,-2,0,-1,-2
115668334185,-2,-1,1,-2,-4,-4,-2,0
115668334185,-3,-3,-2,-1,0,-2,0,0
115668346974,-1,0,0,-2,-1,-2,-1,0
115668346974,-1,-2,-3,0,0,0,-1,-2
115668353753,-1,0,0,-1,-2,-1,-1,-2
115668353753,-12,-4,-4,-1,-2,-1,-2,-5
115668369447,-4,-8,-2,0,-1,-1,-1,-1
115668369447,0,0,0,-2,-2,-1,0,0
115668376231,-2,-1,-1,-1,0,-1,-1,0
115668376231,0,-1,0,-2,0,-1,-2,-2
115668392602,-2,-5,-2,-1,-1,0,-1,-3
115668392602,0,-2,-2,-4,-2,-1,0,0
115668394214,0,5,-2,-2,-1,1,-2,-1
115668394214,1,1,1,0,-1,-2,0,0
115668406279,3,9,-1,-1,-1,-2,-2,1
115668406279,1,0,-1,-1,-2,-3,0,-1
115668415241,-3,-3,-2,-1,-3,-2,-2,-2
115668415241,-1,-4,0,0,0,0,0,-2
115668429397,2,7,0,-1,-1,-2,0,1
115668429397,-14,-7,-4,-2,-1,-2,-3,-1
115668436268,9,0,1,-1,0,-1,-1,1
115668436268,1,0,0,-1,-2,-1,0,0
115668452578,-6,-8,-1,0,-2,-1,-1,-2
115668452578,-1,-2,-1,-1,-1,-1,-2,-1
115668454178,-5,-4,-4,0,-1,0,-1,-3
115668454178,0,0,-3,-2,-2,-1,1,-1
115668466257,1,-5,-3,-2,-1,-1,-1,-2
115668466257,3,0,0,0,-1,2,-1,-2
115668475275,-3,-1,0,-1,0,-2,-2,-1
115668475275,1,0,1,-1,-1,-1,-1,-1
115668489471,-2,-5,1,-1,0,-2,0,-1
115668489471,3,1,-1,0,-2,-1,-1,0
115668496253,-1,-3,-3,-3,-1,-1,1,-1
115668496253,-4,0,-2,-1,-1,-1,0,0
115668512663,-3,-1,-2,-2,-1,0,-1,-1
115668512663,-1,-9,-2,-2,0,0,-1,-1
115668514304,8,-2,-2,-1,-2,-1,-3,1
115668514304,4,5,1,0,-1,-1,1,2
115668526211,-3,-4,1,-1,-1,-2,-1,-1
115668526211,1,3,1,-1,-1,-1,0,6
115668535207,-3,-3,1,-2,-3,-4,-1,-6
115668535207,-2,-3,-2,-1,-1,-1,-4,-2
115668549458,0,-3,-3,-1,-2,2,-1,-1
115668549458,1,3,-3,-3,2,-2,-1,-1
115668556224,-2,-2,-4,-3,0,0,-2,-1
115668556224,-1,-2,-2,-2,-1,-1,0,0
115668572569,-2,-4,0,0,-1,-2,-3,0
115668572569,1,5,-2,0,-2,-1,0,-2
115668574183,-2,-2,0,-1,-1,1,0,0
115668574183,-2,-3,-1,-3,0,-2,-1,-2
115668586259,-1,-2,-1,-1,0,-4,0,0
115668586259,-4,-1,-1,-2,0,-1,0,-4
115668595211,-5,-2,0,-1,-1,-2,-2,-1
115668595211,1,3,-2,-3,-2,-1,-1,0
115668609440,-2,-4,-1,-2,-2,1,-1,-1
115668609440,1,0,0,1,-1,0,-2,-2
115668616240,-1,-1,0,2,0,-1,-1,-3
115668616240,4,-6,-2,0,1,-2,-2,-1
115668631937,-4,6,1,-1,-3,-1,-1,2
115668631937,-2,-3,-1,-2,-1,-1,0,-1
115668638737,0,0,-1,-1,-2,0,1,0
115668638737,0,9,-1,-1,0,-1,-2,0
115668646258,1,-3,-2,-1,-1,-2,-1,-4
115668646258,1,1,0,-1,-3,-2,0,-1
115668655272,-4,0,0,-1,0,0,-2,1
115668655272,-2,-3,-2,-1,-2,-1,0,-2
115668669453,0,0,-2,-2,-1,1,-1,-1
115668669453,-4,-6,-2,1,-2,-1,-1,-3
115668676243,0,-1,-4,0,-1,-1,0,-1
115668676243,-5,-4,1,0,-1,-3,0,-3
115668691947,-1,-3,-1,-1,0,-1,0,0
115668691947,-1,-3,-2,-1,-1,-2,-3,1
115668698738,-3,-1,-1,-1,-1,-1,-1,-1
115668698738,-2,-4,-1,-1,-2,0,-2,0
115668706248,0,-2,-3,-1,-1,-3,-1,-2
115668706248,1,1,-1,0,1,-2,1,-2
115668715247,-2,-1,-2,0,-2,-2,-1,-1
115668715247,-3,-1,-2,0,-2,0,0,-1
115668729450,0,-1,-1,-1,1,-2,-1,-1
115668729450,0,0,-2,0,-2,-1,-1,-2
115668736242,-1,-2,-3,-2,-1,0,-4,0
115668736242,-1,-1,-1,-2,-1,-1,-1,0
115668751941,-1,-2,-3,-3,-2,0,-2,0
115668751941,-1,0,0,-2,0,-1,-2,-1
115668758748,-4,-2,1,-2,-1,-2,0,-4
115668758748,-1,-2,-1,-1,-1,-2,-2,-3
115668766223,-1,0,1,0,1,-2,-2,0
115668766223,2,-1,-1,-3,-1,-3,-2,0
115668775246,0,0,-2,0,0,-2,-2,1
115668775246,0,-2,-1,0,-3,1,0,-2
115668797618,0,-2,-1,-1,-2,0,-1,-3
115668797618,-1,-1,-1,-2,-2,-2,-1,-2
115668799154,-1,1,-1,-2,-1,-3,0,-3
115668799154,1,-1,-2,-1,0,-1,-1,-1
115668811923,-1,-2,-2,1,-1,-1,0,-1
115668811923,-2,0,-1,1,-1,1,0,-2
115668818774,-2,0,-2,-2,-2,0,-1,-1
115668818774,-1,-2,-1,-1,-1,-1,-1,0
115668835124,-2,0,0,-1,-1,-2,-1,-4
115668835124,0,-1,-2,-1,-1,-1,-2,-2
115668836714,0,-2,0,-1,-2,-2,0,-2
115668836714,-2,-2,-2,-1,-2,-1,-1,-1
115668849437,0,0,-1,-1,-1,-2,-1,-2
115668849437,-3,-2,0,-1,-1,-1,-2,0
115668856258,-1,-2,-1,-3,-1,0,-2,0
115668856258,-3,-1,-2,-1,-1,0,-2,-2
115668871916,-2,-1,-1,-2,-2,0,-1,1
115668871916,-1,1,-2,-1,-2,-2,0,-2
115668878738,0,-1,-1,-1,-1,0,0,0
115668878738,-1,-3,0,-2,1,0,-2,-1
115668895098,-1,-1,-3,0,-1,-2,-1,-1
115668895098,-1,-2,-2,-2,0,-1,-2,-1
115668896653,0,-1,-2,-2,-1,-2,-2,-2
115668896653,0,1,1,-1,-1,-2,1,-1
115668909393,2,0,-2,-1,-1,1,-1,1
115668909393,-6,-4,-3,-2,1,-1,-2,-2
115668916192,5,3,-1,0,0,-3,0,0
115668916192,0,-2,-2,-1,-2,-3,-3,-2
115668931921,0,-1,-1,0,-3,-1,-1,-1
115668931921,-1,-1,0,-2,-1,0,-2,-1
115668938798,-2,-3,0,-2,0,0,1,-1
115668938798,0,-1,0,1,-1,0,0,-1
115668955045,-1,-2,0,-3,-2,-1,0,-1
115668955045,0,1,0,-1,-2,0,-1,-1
115668956655,-3,-3,-1,-1,-1,-1,-1,0
115668956655,-1,-1,-2,-1,-2,-2,1,0
115668969384,-4,-1,-3,0,0,-2,-2,-3
115668969384,1,-2,0,0,-1,0,-1,-1
115668976209,-2,-2,-1,-1,0,0,0,0
115668976209,-3,0,-2,-2,0,-2,-2,0
115668991958,-1,-1,0,-2,0,-2,-1,-1
115668991958,0,0,-1,-1,0,-2,0,-1
115668998720,-1,1,-2,-1,0,-1,-1,-3
115668998720,0,-3,-1,-1,-2,-3,-1,0
115669015093,1,-1,0,0,-1,-1,-2,-1
115669015093,3,-2,-1,1,-1,-1,0,-2
115669016708,-1,-2,-2,-1,-4,0,-2,-2
115669016708,-1,-2,0,0,1,-1,0,-3
115669029418,-3,-1,-1,-1,-1,0,0,-1
115669029418,0,-1,-2,-2,-1,0,0,-1
115669036195,-2,-3,-1,-1,-2,-2,-2,-1
115669036195,1,3,-3,-1,-1,-3,-1,-2
115669051907,-2,-1,0,-1,-1,-1,-1,1
115669051907,-8,-3,-1,-1,-2,1,1,1
115669058665,3,2,-1,-2,-2,0,0,0
115669058665,-2,-1,-1,-1,-1,-1,0,-1
115669075110,1,0,-2,1,-2,-2,-3,-1
115669075110,0,-1,-1,0,-3,-3,-3,-2
115669076840,0,-3,-1,1,-1,-1,-1,-2
115669076840,-2,-1,-1,-2,-2,0,-3,-2
115669089837,-1,-1,-2,-2,0,-2,-1,-1
115669089837,0,-3,0,0,-1,-3,-1,0
115669097889,-2,-1,-1,-1,0,-1,-1,-1
115669097889,-2,-1,-1,-2,-2,-2,-2,0
115669112107,-1,-1,-1,0,-2,-1,0,-1
115669112107,0,0,-2,-2,0,-1,0,-1
115669118883,0,-3,0,2,-1,-1,-1,-1
115669118883,-2,-1,-2,1,-2,0,-2,-3
115669134232,0,-3,1,-1,0,0,-1,-1
115669134232,2,-1,0,-1,-1,-2,-1,-3
115669141514,-3,1,1,-1,1,-2,0,-1
115669141514,0,0,-2,-1,-2,-1,-2,-2
115669150289,-2,-3,-1,-1,-2,-3,-1,-3
115669150289,-1,0,-1,-2,-1,1,-1,-3
115669156397,-3,-3,-1,1,-2,-1,0,0
115669156397,0,-2,-1,-1,1,0,0,-1
115669171245,-1,-1,-4,-1,0,-1,-2,0
115669171245,0,-2,-1,-3,-1,-3,-1,-1
115669178791,-1,0,0,-3,-2,-1,0,-1
115669178791,-1,-3,-1,0,-2,-2,-1,-1
115669194465,-1,-1,-3,-2,0,0,-1,-3
115669194465,-2,0,-3,0,-1,-1,-1,-1
115669195179,0,-2,-1,0,-1,0,-3,-2
115669195179,-1,-1,1,-2,-2,0,-2,1
115669210311,-2,-2,0,-2,-1,-2,-2,0
115669210311,-1,-4,2,0,-4,-1,-2,-1
115669216251,1,1,-2,-2,-2,-1,-2,-1
115669216251,-2,-4,-1,-3,-1,0,0,-1
115669231239,1,0,0,-2,-1,-2,-1,-1
115669231239,-3,0,-2,-1,0,0,-1,-2
115669238858,-3,-2,-2,-1,0,-2,0,1
115669238858,0,-2,-1,1,0,-1,1,0
115669254491,-1,-1,1,0,0,-2,-1,1
115669254491,0,0,-3,0,-2,-1,0,0
115669255205,-1,-1,-1,0,-1,-2,1,-1
115669255205,-1,-1,-2,1,-2,0,-1,-2
115669270358,-3,-1,-1,-2,-3,-1,-1,-1
115669270358,0,-1,1,-2,0,0,-2,-1
115669276245,-3,-2,-1,-3,-2,-1,-1,-1
115669276245,-1,-1,-1,-2,-1,1,-1,-1
115669291354,1,0,-1,-1,-1,-2,1,-3
115669291354,0,0,-1,-1,-1,-2,-1,0
115669307121,-1,0,-1,-3,-1,-2,-1,-2
115669307121,0,-2,2,-1,1,-2,0,0
115669314473,-2,-2,-3,-1,0,0,0,-2
115669314473,-1,0,-1,1,0,-2,-1,-1
115669315265,-1,2,-2,-1,-2,0,-1,-1
115669315265,-1,1,-1,-1,-1,-1,-1,1
115669330391,0,-1,-3,0,-1,1,-1,0
115669330391,0,-2,-2,-2,-1,-3,-2,0
115669336353,-3,-2,-2,0,0,-1,-2,1
115669336353,-2,-2,-3,-1,-1,-1,0,1
115669351251,-1,-1,1,-1,-2,-2,0,-1
115669351251,-1,-1,0,-2,1,0,0,-2
115669358746,-1,-2,-3,1,0,-2,-2,-1
115669358746,-2,0,-1,0,-1,0,-2,-1
115669374620,-1,0,0,0,0,-1,-3,-2
115669374620,-3,-1,-1,-1,-2,-1,0,0
115669375190,0,-1,-1,0,0,-1,-2,-1
115669375190,-1,-2,-2,-2,0,-1,0,-3
115669390261,-1,-1,0,0,0,1,-2,0
115669390261,-2,0,-1,-2,-1,0,-1,0
115669396266,-2,0,-2,-1,-2,-1,0,0
115669396266,-2,0,-2,-2,1,-3,-2,-3
115669419447,1,0,1,0,-2,-1,0,-2
115669419447,1,1,-1,-3,-1,0,-1,-2
115669420297,-2,-3,1,-1,-2,-1,0,-4
115669420297,-1,-2,0,-1,-1,-1,0,0
115669434570,-1,1,1,2,0,-1,0,-1
115669434570,0,-2,0,0,-1,-2,-2,1
115669435351,1,-3,0,-2,1,-1,0,-1
115669435351,-3,1,-2,-2,-3,-2,-1,-1
115669450365,-2,-3,-3,-2,1,-3,-1,-3
115669450365,0,-1,0,1,0,-1,-2,-3
115669456229,0,1,-1,-2,0,-1,-2,-1
115669456229,0,-2,-1,0,-1,0,-2,1
115669471303,-1,-2,-2,-1,-3,1,-2,1
115669471303,-2,0,0,0,-1,-1,-1,0
115669478789,0,-1,-1,-1,-1,-2,-3,0
115669478789,0,-2,-2,0,-1,-1,-1,-2
115669494390,-3,-1,-2,-1,0,0,1,-1
115669494390,-1,-2,1,-1,-2,-1,-1,-1
115669495245,-1,-2,-1,-2,-1,1,-2,-2
115669495245,-1,1,0,-3,0,-2,-1,-2
115669510364,1,-1,1,-1,0,1,-1,-2
115669510364,-3,-2,-3,0,-2,0,-1,0
115669516387,-1,0,-2,0,0,0,-3,-1
115669516387,0,0,0,-1,-2,-2,0,-1
115669531281,-1,-2,-2,-2,-1,-2,2,0
115669531281,-1,0,-2,-1,-1,-1,0,-3
115669538745,-1,-1,0,-2,-1,-1,0,-1
115669538745,-1,-1,-1,0,0,-2,-1,1
115669554493,0,-1,0,-1,-1,-1,-1,-1
115669554493,-1,-1,0,1,-2,-1,1,0
115669555263,1,-2,-1,-1,-2,-2,-2,-2
115669555263,-2,-2,0,-1,-3,-1,-2,-4
115669570343,-2,0,-1,0,-2,0,-3,0
115669570343,-1,-2,-3,-3,-2,-1,-3,-1
115669576442,-1,-1,-2,-1,0,-1,-3,-2
115669576442,0,-2,0,-2,0,-1,0,-1
115669591395,-1,-2,-3,-2,0,0,-1,0
115669591395,0,-1,-1,-1,1,-2,-1,-2
115669606961,-2,-2,-1,-1,-2,-2,0,0
115669606961,-1,-1,0,-2,-2,-2,-2,-2
115669613949,-1,0,0,0,-1,-1,-3,-1
115669613949,1,0,0,-3,-1,0,-2,-1
115669621325,-1,-1,0,-2,0,-1,0,1
115669621325,-2,-2,-1,-2,-1,0,-1,-1
115669630456,1,-1,-1,0,-2,-2,-2,-1
115669630456,1,-1,0,0,-2,0,-2,-1
115669644440,0,-1,-2,-1,-3,-1,-1,-1
115669644440,-1,-2,-3,0,0,-1,0,1
115669651275,-3,-1,0,-1,-2,0,0,-1
115669651275,-2,-2,1,-1,2,-2,-1,-1
115669658842,-2,-1,-2,-1,-1,-1,-2,-1
115669658842,0,-1,0,1,-2,-1,-3,-2
115669673899,-1,-1,0,-2,0,-1,-2,-1
115669673899,0,0,-2,0,-2,1,-1,-2
115669681521,-1,-1,-1,0,-2,-2,2,0
115669681521,1,-1,-2,2,-1,0,-2,-1
115669696947,0,-2,-2,0,-1,0,-1,0
115669696947,-1,-2,1,-2,-2,-2,-1,-2
115669697814,-1,-2,0,-1,-1,-1,-1,1
115669697814,-3,-1,-1,-1,-1,-1,-3,-1
115669711475,-1,-2,-2,-3,-1,0,0,-2
115669711475,0,-2,-1,0,-2,-1,0,-1
115669718793,1,-2,-2,1,-2,-2,1,-2
115669718793,-1,-2,-2,-1,-1,-3,0,0
115669733948,-1,-1,-3,-2,-1,-3,-1,-1
115669733948,-1,0,-2,-2,0,-1,-2,0
115669741409,0,-2,0,-2,0,0,-3,0
115669741409,0,0,-1,0,-1,-2,0,-1
115669750348,-2,0,0,-1,-3,-3,-1,0
115669750348,-2,-1,-2,-2,0,-1,0,-1
115669756407,-1,0,0,-1,0,-2,-1,-1
115669756407,-3,-2,-1,-2,-1,0,-2,0
115669771330,0,0,-3,-1,0,0,0,-2
115669771330,-2,1,-2,-1,-1,0,-2,-1
115669778981,-1,0,-3,-2,0,-3,-2,0
115669778981,0,0,-2,-1,-1,0,-1,0
115669793901,-1,0,1,0,-2,-1,-1,0
115669793901,0,-2,1,0,-2,-1,-3,-2
115669801292,-1,-1,0,0,-2,0,-1,-2
115669801292,-2,-1,-1,-2,-3,-1,0,-2
115669816944,-1,-2,-1,-1,-1,0,-2,-3
115669816944,-1,0,-2,-2,-3,-2,0,-3
115669817684,-1,0,-1,-1,-1,-1,-2,-1
115669817684,-2,-1,-1,0,-1,2,1,-1
115669831484,-1,-1,1,0,-2,-1,0,0
115669831484,-1,-2,-1,1,1,-3,-2,-1
115669838752,0,-2,-2,-1,-1,-1,-1,-4
115669838752,-1,-1,-1,-1,-1,-2,-3,-2
115669853842,-3,-3,-1,-1,-1,-2,1,0
115669853842,-2,-1,-1,-3,1,1,-1,0
115669861493,-2,-1,1,-1,-1,-1,0,-1
115669861493,0,-2,-1,-1,0,-3,-2,-3
115669877202,1,-1,-1,0,-2,0,0,-2
115669877202,0,-2,0,-2,0,-1,-2,0
115669877751,-2,0,-3,-2,0,1,0,1
115669877751,0,-2,-2,-2,-1,0,-2,0
115669891393,-2,0,-2,-1,0,-2,-3,-3
115669891393,-1,-2,-2,-3,-2,-1,0,-1
115669898795,-2,0,-3,2,-2,-1,-1,-2
115669898795,0,-2,-3,-3,0,-1,-1,0
115669913790,0,-1,-2,-2,-1,-3,-1,-1
115669913790,-2,-1,1,1,1,1,-1,-1
115669921291,0,1,-1,-1,-1,0,-1,-2
115669921291,0,0,0,-1,-2,0,-1,1
115669936976,-1,-1,-1,-2,-1,0,-2,0
115669936976,-2,-2,-3,-2,-1,-1,1,-1
115669937677,-1,-2,-2,-1,-1,1,-1,-1
115669937677,-2,1,-2,-1,-2,-2,-1,-1
115669951509,-1,-1,-1,0,-1,-1,-1,-1
115669951509,-3,0,-2,0,-1,-1,1,-1
115669958957,-1,-2,-1,0,-1,-2,-1,-3
115669958957,-1,-2,-2,-2,-1,-1,-1,-2
115669973825,-1,-2,-1,-3,-1,-1,-2,-2
115669973825,-1,-1,-3,1,-3,-1,-1,0
115669981537,-2,-1,-1,-1,-1,-2,-1,-1
115669981537,-2,-1,0,-2,0,-2,-1,0
115669997178,-1,-1,0,1,-2,0,-1,0
115669997178,1,-1,1,1,-1,-1,-1,-2
115669997757,1,-1,-2,-1,-1,-1,-2,1
115669997757,0,-2,-2,0,-3,0,0,-3
115670011337,-2,-1,-1,-4,0,-2,-2,-2
115670011337,1,0,-2,-1,0,0,-2,0
115670018844,-2,-2,-1,-2,-1,-2,0,0
115670018844,-2,-1,0,0,0,0,-1,0
115670033925,0,-1,2,-1,-2,-1,-3,-2
115670033925,-2,-2,0,-1,0,0,-2,0
115670041435,-3,-2,0,0,-1,-1,0,-3
115670041435,-1,-4,-2,-1,-1,-1,-1,0
115670057026,-2,-2,-2,0,-1,-3,-1,0
115670057026,-2,-1,-1,-1,-2,-2,-1,0
115670057751,-2,-1,0,-1,-2,-1,-1,0
115670057751,2,-1,0,0,-2,-1,-2,0
115670071292,0,-1,0,-3,-3,0,2,-1
115670071292,0,1,0,-1,-3,0,-1,-1
115670078814,-1,0,-2,0,0,-1,-2,0
115670078814,-1,-2,-1,-1,-1,0,-2,-1
115670093995,-1,0,-2,1,0,-3,-1,-1
115670093995,0,-1,-1,0,-1,-2,1,-1
115670101487,-1,-3,-1,-2,-1,-2,-1,0
115670101487,-2,2,-1,-3,-1,-2,0,-2
115670117188,-2,0,-1,-3,-2,0,-1,-1
115670117188,-2,-3,-1,-1,0,-1,0,1
115670117712,0,-1,-1,0,-1,0,-2,0
115670117712,-1,-2,-1,-2,0,0,1,1
115670131245,0,0,-1,0,0,1,-1,-2
115670131245,0,0,-1,-1,-1,-1,0,-1
115670138913,-2,0,-3,-1,2,-1,-1,0
115670138913,-2,-1,-2,1,-2,-1,-1,-1
115670153927,-2,-1,-1,-1,-2,0,-2,0
115670153927,-2,-1,0,-1,-1,0,-1,0
115670161439,-1,-2,-1,-4,-1,-2,1,-2
115670161439,-2,-1,1,-2,-2,-1,-1,-3
115670177188,1,-3,-3,0,-1,-1,0,0
115670177188,0,1,-1,-2,0,-1,-2,0
115670177753,-1,0,0,0,-1,1,-2,0
115670177753,-2,-1,-1,-1,1,-2,-1,-1
115670191474,-1,-2,-1,1,-1,-2,1,1
115670191474,-1,-3,-3,-2,-1,-1,-2,-1
115670198977,-1,1,0,-3,-2,-1,-1,0
115670198977,-2,-2,-1,-2,0,-1,-2,0
115670214006,-1,-1,-1,-2,-1,0,0,1
115670214006,-2,0,-1,-1,-1,-1,1,-3
115670229504,0,-1,-2,-1,-2,-1,0,-3
115670229504,-1,-1,0,0,-1,-2,-1,-1
115670236923,0,-1,0,-1,0,0,0,0
115670236923,-1,0,-1,0,-2,0,-1,-3
115670237810,-1,-2,-2,-1,-1,-1,0,0
115670237810,1,-1,-2,0,-1,-2,0,1
115670252884,-1,-1,-2,0,-1,-1,0,0
115670252884,-1,-1,1,-1,-2,-1,-2,-2
115670258914,-1,0,0,-2,-2,-1,-2,1
115670258914,0,-2,-2,-1,-2,0,0,-2
115670273858,-2,-1,-3,-2,-1,-2,-1,-1
115670273858,0,-1,-1,-1,0,-2,-1,-1
115670281394,-2,-1,-2,0,-3,-1,0,0
115670281394,-1,0,0,-4,0,-2,0,-1
115670297017,-1,-2,-1,0,-1,0,-3,-1
115670297017,0,-1,0,-1,0,-2,0,-1
115670297782,-2,-1,-1,0,-1,0,-1,-1
115670297782,0,0,-1,-3,-2,0,0,-1
115670311424,-1,-1,-2,-2,-1,-1,0,-2
115670311424,0,-1,-1,-3,-1,-1,-2,0
115670318852,0,0,-1,-1,-1,-2,-1,0
115670318852,-1,-2,0,-2,-1,-1,-3,-2
115670333795,-2,-1,1,-3,0,0,1,-4
115670333795,-2,1,-2,0,-2,-1,0,-1
115670341246,0,-1,-1,-2,-1,-1,-3,-1
115670341246,0,-1,-1,-1,-1,0,2,0
115670357018,0,-2,-3,1,-2,-2,-1,1
115670357018,1,0,-1,-2,0,0,1,-1
115670357707,-2,-2,0,-1,0,0,0,-2
115670357707,-2,-1,-3,-1,-1,-1,-3,-1
115670371261,-1,-2,0,-2,-1,0,-3,-1
115670371261,-2,-1,-2,0,-1,-1,0,1
115670378953,-1,-1,-1,0,0,0,1,-1
115670378953,-1,0,-2,-1,-1,-2,-1,-1
