timestamp,emg1,emg2,emg3,emg4,emg5,emg6,emg7,emg8
83451567078,-5,-7,-1,-2,-3,-1,-3,-7
83451567078,0,-7,-3,0,-1,0,-2,5
83451582744,5,-4,-1,0,0,0,1,0
83451582744,-7,4,0,0,0,0,0,4
83451583579,2,2,-3,0,-1,-1,-1,-1
83451583579,4,1,-2,-1,-1,2,1,-8
83451597074,-3,0,-3,-4,-2,-2,-2,-2
83451597074,6,2,-3,1,0,0,-2,5
83451597886,-4,-8,-3,-2,1,0,0,-5
83451597886,7,4,0,0,1,0,-3,4
83451620292,-18,-13,0,-1,1,2,-1,-2
83451620292,6,3,0,0,-1,-2,-2,-1
83451621117,4,-1,1,0,-1,-2,-1,4
83451621117,-3,24,-1,-2,-1,-2,-1,-3
83451642789,11,-7,1,1,1,-1,0,-5
83451642789,3,9,-2,-1,0,-2,-1,1
83451643566,-17,20,0,0,0,-1,-4,2
83451643566,-6,-4,1,-1,-2,-1,-1,-8
83451657078,0,1,-2,0,-3,-2,-3,1
83451657078,16,8,-3,-2,-1,-2,0,0
83451657886,5,1,-1,-1,-3,-1,1,1
83451657886,-4,-9,-3,0,0,-3,-2,-2
83451680320,-4,9,0,0,-2,-2,-1,-10
83451680320,-6,-2,-2,0,-1,1,0,3
83451681080,12,-7,-3,-2,-2,-1,0,1
83451681080,-4,-2,2,-2,-1,0,-1,-4
83451702785,7,9,0,-1,0,-3,-1,-3
83451702785,-11,-6,1,-1,-1,-1,-1,1
83451703588,1,-6,-5,-4,-2,-3,-2,-2
83451703588,-1,-5,0,1,-2,-1,-1,-6
83451717144,13,-21,-3,-3,-1,0,0,6
83451717144,0,0,0,0,-1,0,0,-2
83451717923,-2,-4,0,0,0,-1,1,-1
83451717923,-9,-15,-4,-2,-2,-2,-3,-17
83451740267,-6,4,1,0,-1,-1,-1,2
83451740267,-4,7,-1,0,0,-1,-1,-2
83451741064,6,-17,-1,0,0,-2,-1,-16
83451741064,-4,0,-4,-3,-1,-2,0,14
83451762786,-3,-1,-2,-2,-3,-2,0,-3
83451762786,-16,-7,1,-1,0,-1,-2,-5
83451763581,1,10,4,0,1,-1,-3,2
83451763581,-3,-4,-2,-2,-1,0,-1,1
83451777077,4,0,0,0,-1,-3,-2,-3
83451777077,8,-5,-4,-1,-3,0,0,2
83451777865,-5,-5,-2,0,-1,-1,-1,4
83451777865,2,25,0,0,0,0,1,-1
83451800300,-4,-7,-1,-1,0,0,-1,-3
83451800300,0,-25,-4,-2,-2,-2,-1,-1
83451801065,-14,3,0,-1,0,-1,0,-19
83451801065,2,1,0,0,0,-3,0,1
83451822825,3,12,-3,-3,-2,-1,0,-1
83451822825,0,10,5,0,0,0,0,0
83451824433,10,-6,-1,-2,-3,-2,-2,6
83451824433,7,-26,-2,1,-1,-2,-1,-11
83451836411,-2,4,1,0,0,-1,3,4
83451836411,-6,8,-1,0,-2,0,-1,-2
83451845356,-4,-8,-3,-3,-2,-2,-3,5
83451845356,-5,-4,0,-1,-2,0,-1,-2
83451860289,21,2,-1,0,-1,-1,0,3
83451860289,-1,8,-1,-4,-1,-2,-1,1
83451861923,1,5,0,0,-1,0,2,3
83451861923,-5,-5,-4,-2,-2,-3,-1,7
83451882814,-7,28,1,-1,-1,-1,-4,-5
83451882814,6,-26,-6,-4,-2,-2,-2,-1
83451884345,-17,-21,-4,-1,0,-1,-2,25
83451884345,7,6,3,1,-1,1,1,-9
83451896464,-12,-5,-4,-2,-1,-1,-1,-1
83451896464,0,5,-2,0,0,0,-1,1
83451905477,4,-4,-3,-2,0,0,-1,3
83451905477,1,-2,0,-1,1,-1,-3,2
83451920317,-3,-13,-3,0,-1,0,-2,0
83451920317,-1,3,1,-2,-1,0,0,-5
83451921933,7,-2,-2,-2,-2,0,-1,-14
83451921933,1,3,2,-1,-2,-1,0,8
83451942801,-6,-13,-1,-2,-1,-2,-3,-7
83451942801,-7,-4,-2,0,0,0,0,2
83451944393,6,12,2,1,1,-1,0,-6
83451944393,-11,-1,-3,0,-1,0,0,0
83451965303,-4,-7,-2,-1,-3,-2,-1,1
83451965303,5,23,-1,-3,-3,-2,-2,7
83451966914,-2,-15,-1,1,0,-1,0,-3
83451966914,-1,-5,-2,-3,-1,0,-3,-2
83451980281,-2,-3,0,-1,1,-1,0,1
83451980281,-12,5,-3,-3,-2,-1,-2,-4
83451981898,16,12,2,1,-1,0,-3,17
83451981898,-2,-2,-2,-4,-1,-2,0,-7
83452010268,2,-1,-1,-1,0,1,0,0
83452010268,6,-7,0,0,1,-2,1,-4
83452012796,-11,-1,0,-1,-1,0,-2,0
83452012796,10,-9,-3,-2,0,1,-1,-8
83452016375,1,8,0,0,-1,-1,-1,4
83452016375,2,-7,0,0,-2,-1,-2,-1
83452025429,-7,-1,-1,0,0,-1,0,-4
83452025429,0,6,-1,2,0,0,-1,1
83452040280,-16,-6,-4,-3,-3,-2,-2,-10
83452040280,-5,7,0,1,-1,0,1,1
83452041906,0,3,-1,-2,-1,-2,0,-4
83452041906,-8,-2,-1,-1,0,-1,0,1
83452062862,3,3,-1,-2,0,-1,-3,-1
83452062862,-7,-3,-1,-1,-3,-2,0,1
83452064364,-6,-7,-1,-2,0,0,-1,-7
83452064364,0,22,-1,-2,-1,-1,-1,1
83452076451,-10,-2,-3,0,-3,-2,-2,-1
83452076451,5,-3,-3,-2,-1,0,-1,-2
83452085486,-8,-15,-4,-2,-1,-2,-1,-3
83452085486,-2,-1,1,-1,0,-3,-2,2
83452100306,1,-9,1,1,-1,-2,-2,9
83452100306,1,-4,2,0,-1,0,-3,-9
83452101956,-1,5,-1,-2,-2,1,0,0
83452101956,-3,-7,-2,-1,-2,0,-2,-1
83452122773,-9,3,-3,-1,-1,-1,-2,-10
83452122773,-1,-8,-1,-2,-2,-2,0,8
83452124367,4,7,-1,-1,0,1,0,-2
83452124367,7,-14,-1,-1,0,-1,-1,2
83452136433,6,28,6,4,1,-1,1,-2
83452136433,7,0,-1,0,2,0,1,-2
83452145402,-3,1,-1,0,-2,-3,0,-3
83452145402,3,-1,-1,-1,-3,-2,0,1
83452160259,4,1,-2,0,-3,-1,-1,-2
83452160259,-1,5,-1,-1,-1,-2,-2,-3
83452161853,2,-22,-4,-2,-1,1,1,1
83452161853,-5,-1,1,2,0,-1,-2,-2
83452182786,-8,-16,-5,-6,-4,-3,-1,-2
83452182786,5,-4,-3,-1,0,-1,-1,0
83452184446,-15,-1,-2,-2,-2,-1,-2,-2
83452184446,-1,-8,-1,0,-2,-2,0,-3
83452196494,2,-11,-4,-1,0,0,0,1
83452196494,8,-3,-1,0,1,1,-1,-1
83452205406,-4,4,-1,1,-2,-1,-1,-2
83452205406,-22,-12,-7,-4,-1,-2,-2,-6
83452220257,11,11,5,-3,-1,0,0,1
83452220257,-1,-2,-1,0,0,0,-1,0
83452221867,11,7,2,-4,-3,-2,-2,1
83452221867,-6,4,10,10,1,1,0,1
83452242811,0,-11,-16,-4,-3,-1,0,-1
83452242811,4,-1,-16,-9,-3,-3,0,0
83452244415,-2,11,9,-3,-3,-2,-1,-1
83452244415,6,8,-7,-1,0,-2,-1,0
83452256419,0,-5,11,8,-3,-2,-3,-2
83452256419,1,3,7,7,0,1,0,-1
83452265487,4,5,-6,-9,-1,-1,-1,-1
83452265487,1,-3,-2,-9,-1,-1,0,-1
83452287766,9,0,4,7,-1,0,3,4
83452287766,-9,3,-3,1,-1,1,2,0
83452289373,28,-6,2,6,1,1,-4,1
83452289373,-6,-9,4,-8,-3,-3,0,-2
83452302838,-6,9,-3,11,3,-10,-6,-3
83452302838,-20,0,9,7,5,1,-1,-1
83452304444,6,-17,-1,0,-3,-2,0,0
83452304444,7,2,-3,-23,-4,8,2,0
83452325274,-1,-2,2,0,1,4,2,-3
83452325274,-3,-2,-2,14,-1,-5,-4,-4
83452326874,-9,5,-2,13,7,3,1,-2
83452326874,2,10,6,27,-5,-3,-1,3
83452339625,-2,-12,-10,-20,0,-1,1,-1
83452339625,3,0,0,-6,-4,-2,-4,-1
83452346403,-8,1,-6,-5,2,11,3,-4
83452346403,-14,-6,-5,18,-1,-5,-3,-2
83452362715,3,1,3,9,1,5,-10,-3
83452362715,2,-3,-1,-19,-22,-10,-1,0
83452364375,-3,7,-3,-1,-1,-27,4,-3
83452364375,0,0,-2,3,-4,8,-1,-2
83452385278,-8,-17,-3,-14,1,2,1,0
83452385278,0,1,-2,-4,6,9,2,2
83452386899,3,8,2,1,-2,7,-8,-7
83452386899,-15,-11,-5,-12,-6,-11,0,-3
83452399709,-9,-2,-10,-17,-10,-6,-1,3
83452399709,18,9,1,5,5,11,7,4
83452406401,-9,-12,-10,-10,-5,-6,-7,5
83452406401,4,3,3,-3,3,-3,-7,3
83452422782,19,5,3,4,-6,-9,-7,-7
83452422782,1,-13,-7,-6,-6,-2,-2,-8
83452424432,-52,-2,4,2,8,11,4,-16
83452424432,32,17,0,-2,0,-15,-2,27
83452445341,-5,-32,0,5,-1,1,8,-7
83452445341,-20,4,1,-5,4,3,-7,-18
83452446918,24,-1,0,-1,-1,4,-1,20
83452446918,-54,-11,-9,-7,-7,-2,-7,-14
83452458906,39,12,-4,-3,5,3,4,11
83452458906,20,3,-1,-3,-2,-4,-1,10
83452467952,-23,-49,-6,-5,-8,-13,-12,-21
83452467952,44,5,6,5,1,4,8,6
83452482787,-3,11,-3,-2,-4,4,1,-8
83452482787,9,-1,-1,5,10,-1,-19,0
83452484411,-53,33,-1,0,0,-10,30,17
83452484411,101,-2,-2,-7,9,-1,-11,9
83452505231,-37,-25,5,10,-7,0,-7,-23
83452505231,67,7,-2,0,-3,3,-2,7
83452506892,14,9,-5,-4,-11,-34,-15,-31
83452506892,-96,-13,-3,-7,-17,5,17,7
83452518958,2,21,-2,-2,21,30,17,-51
83452518958,21,12,4,6,6,17,-1,42
83452527961,16,6,5,4,7,14,-13,7
83452527961,-46,-28,-10,-8,-5,-38,11,-22
83452542774,18,12,2,-6,-25,12,-7,15
83452542774,-50,-42,-6,-8,-8,-54,-11,-31
83452544436,25,3,4,6,2,25,-4,-60
83452544436,39,4,-10,-1,20,32,-6,41
83452565268,-11,23,4,4,5,-14,12,22
83452565268,13,0,-2,-3,-2,8,-5,0
83452566877,11,3,3,0,-14,-5,7,9
83452566877,-9,2,3,1,6,-14,-7,-13
83452578920,-15,-21,5,2,3,-8,-15,-39
83452578920,-7,11,-2,5,-8,5,6,2
83452595423,-33,-15,-7,-17,-8,12,8,9
83452595423,46,1,-1,6,1,-8,-7,-4
83452602814,15,2,-1,4,18,-48,-41,24
83452602814,-8,-16,-2,-7,-25,9,26,0
83452604478,20,-6,0,7,15,35,8,16
83452604478,14,9,-4,-9,-22,-4,11,3
83452625340,-32,-11,-1,-3,-1,-13,1,-16
83452625340,-23,-5,0,4,2,1,-22,-11
83452626981,13,10,-6,9,18,-7,4,25
83452626981,-33,-37,-3,-2,10,24,3,-16
83452638931,12,0,-4,0,8,12,-5,13
83452638931,3,11,10,5,-14,-6,3,-4
83452647906,-27,-7,-6,-23,-25,-44,-11,10
83452647906,9,33,11,2,3,1,17,-27
83452662765,-15,-12,-2,2,18,25,9,30
83452662765,-1,-3,-3,14,6,-8,-8,-2
83452664377,10,-2,-5,-11,-4,2,-8,7
83452664377,4,3,2,-20,-11,1,-9,-6
83452685765,3,6,2,1,-21,-38,-15,-9
83452685765,-13,6,-9,-21,8,49,25,0
83452687435,41,2,6,17,11,-25,-9,6
83452687435,-33,2,-3,-1,6,10,0,-2
83452698961,14,-5,-5,-5,-5,8,-2,-2
83452698961,-6,0,0,0,0,-23,-2,-3
83452707931,-5,-7,-4,2,-14,-10,-13,-16
83452707931,26,8,1,6,1,23,27,20
83452722772,2,3,-3,-2,-6,-4,-1,-13
83452722772,-9,0,-8,0,3,-8,-11,-15
83452724380,-1,-1,3,5,-2,-15,8,4
83452724380,5,-19,-11,-15,-13,-7,-26,4
83452745318,16,7,-5,-5,9,20,9,-9
83452745318,5,-22,-1,2,2,-3,3,-5
83452746925,13,-4,4,-3,-25,13,-3,-7
83452746925,6,7,-2,-4,-14,-27,-12,8
83452758907,-46,-1,0,-7,-13,-3,-7,1
83452758907,2,1,-1,4,9,-10,8,-3
83452767985,1,6,4,-1,1,14,-1,8
83452767985,-15,-4,-3,5,4,1,-8,27
83452782794,20,2,2,2,-6,1,11,6
83452782794,2,10,4,1,8,-4,-6,-4
83452784398,-9,-1,-1,-7,4,-2,1,7
83452784398,1,14,-2,0,-3,1,-1,-20
83452805251,10,-14,-2,12,15,0,5,-4
83452805251,-14,2,4,4,-12,3,-2,10
83452806889,6,-2,-12,-23,-6,1,-7,-14
83452806889,16,-7,-2,1,5,0,2,-13
83452818940,-2,12,6,11,1,-3,3,10
83452818940,-2,-3,-5,2,1,-2,4,2
83452827937,-3,12,7,13,18,9,-6,-13
83452827937,-21,-7,3,6,-13,-8,-7,-12
83452842815,-24,-3,-14,-15,-9,-3,0,8
83452842815,1,-12,6,-9,-9,2,3,2
83452844404,-1,3,-2,-5,3,4,4,9
83452844404,-15,-10,4,13,20,-5,-4,5
83452865265,11,-4,-4,-4,-18,-1,-2,-50
83452865265,-7,7,-10,-5,8,-6,-6,-4
83452866881,0,-8,-1,2,-15,-1,6,3
83452866881,1,5,6,6,7,4,0,-15
83452878942,17,2,-2,-18,-5,-5,3,27
83452878942,21,0,2,8,9,-2,-4,5
83452887990,-56,8,-7,-12,5,-5,-7,27
83452887990,33,5,-7,-6,-25,-1,0,-6
83452904119,42,17,14,-9,1,2,3,10
83452904119,-23,10,21,24,6,2,1,-4
83452905793,23,-16,1,10,7,2,6,4
83452905793,-9,4,-11,-14,-3,-8,-13,-9
83452925279,-21,-7,-1,12,-3,-5,-4,-13
83452925279,7,15,23,-1,-18,-1,0,-7
83452926851,44,-17,-17,-6,18,3,-3,-11
83452926851,-29,24,31,12,-16,-3,-7,-27
83452938957,-4,-37,-34,-43,20,10,11,-24
83452938957,36,1,-31,-18,-14,-1,-11,27
83452947914,-12,16,25,21,35,-2,1,-21
83452947914,14,-16,-8,10,-33,5,8,-14
83452962724,-12,16,14,9,-5,-9,-2,-60
83452962724,29,26,-6,-4,-7,-12,4,111
83452964373,-96,-24,-2,-2,19,18,-1,-49
83452964373,73,-13,-19,-1,-9,-5,-8,27
83452985307,-38,17,8,17,27,1,10,-19
83452985307,29,5,-7,-26,-76,-1,10,9
83452986925,35,6,-12,0,-13,-10,-33,-32
83452986925,-103,-13,-1,-32,7,9,27,105
83452998934,-23,-49,-17,-11,-50,-34,3,-49
83452998934,-26,-5,5,15,41,3,-59,-59
83453007926,-12,11,1,-11,-34,-14,10,26
83453007926,88,28,14,14,14,1,12,-72
83453022135,11,10,-5,7,40,19,-11,87
83453022135,-39,-24,4,11,5,12,31,7
83453028937,-18,-6,-8,4,-19,2,-45,-67
83453028937,17,-9,5,11,30,-13,-19,-28
83453045341,-40,-10,1,-19,-40,-14,-45,19
83453045341,-20,5,6,19,36,62,33,-101
83453046904,27,8,-11,-2,-5,-54,24,79
83453046904,-26,-3,-6,-11,19,-9,1,0
83453058958,52,10,17,25,-7,7,2,7
83453058958,-45,-13,-1,-15,15,-2,-14,-25
83453067934,22,-7,-2,0,1,25,17,-2
83453067934,-30,-11,-9,-3,-18,-19,3,19
83453082129,5,6,0,2,-23,3,-3,-13
83453082129,-25,-14,-21,-31,-9,-3,-7,-20
83453088894,10,-3,-2,14,-1,-1,8,7
83453088894,4,1,-1,-9,-1,-2,-19,-14
83453105271,8,7,0,3,8,8,9,19
83453105271,-1,-7,2,2,-1,-15,9,2
83453106885,21,5,6,5,-5,-7,3,-1
83453106885,-13,-9,-7,-7,-11,16,-5,-9
83453118933,13,-5,-3,-9,1,5,11,11
83453118933,16,-17,-5,-1,2,-16,0,18
83453127950,8,14,4,2,-2,-3,-5,-1
83453127950,22,6,4,7,11,17,1,-5
83453142145,-23,9,-3,3,4,1,11,0
83453142145,-13,9,-6,2,2,-6,-3,6
83453148927,28,-11,5,13,10,8,-5,-23
83453148927,-3,-3,-9,-19,-5,8,8,-1
83453165283,21,3,8,6,2,-1,9,10
83453165283,23,11,2,6,11,-6,-3,5
83453166944,-1,9,16,4,-6,8,13,2
83453166944,-9,-4,-2,12,9,-3,-4,-13
83453178918,-4,-1,-4,3,13,-16,-10,-5
83453178918,21,-12,-9,-8,0,4,5,9
83453187934,-14,5,1,-11,-6,-8,-4,4
83453187934,14,0,5,10,2,0,-12,-16
83453202114,-21,26,-4,-13,-9,6,5,-3
83453202114,9,-2,-6,-3,-14,-11,-1,6
83453208898,-10,-7,5,-3,5,10,-3,0
83453208898,-5,4,-2,-6,-7,-4,-2,8
83453225272,-17,-10,-9,2,-7,-3,-3,-8
83453225272,-15,-4,0,-11,-1,-20,-8,-15
83453226873,6,6,-6,-10,-1,8,5,30
83453226873,5,17,2,6,0,0,0,-32
83453247811,0,-6,12,3,18,8,4,14
83453247811,2,-1,-1,-13,-35,-8,-2,1
83453249412,-12,-19,-7,-1,-6,-1,-7,-6
83453249412,-17,8,0,-5,-4,-5,9,23
83453262111,21,-3,3,6,7,2,-4,-3
83453262111,2,-1,-3,1,5,0,-4,-3
83453268909,-6,-2,-4,-9,12,1,2,-5
83453268909,-12,-3,3,7,-10,-2,-6,0
83453285319,-14,-3,-8,-8,-2,-3,-4,-4
83453285319,-8,-5,4,9,7,3,0,12
83453286877,14,3,-3,-12,-8,-6,-4,-18
83453286877,-22,-34,-11,-7,5,0,-5,-20
83453307747,18,-4,-2,2,-6,-3,-1,10
83453307747,16,3,-2,10,3,1,3,1
83453309431,16,-3,1,1,-5,1,-1,-29
83453309431,-21,-18,2,4,13,0,-2,-19
83453322719,4,-4,-4,-8,-17,-4,-6,-8
83453322719,-10,6,5,0,12,1,2,7
83453330414,-1,1,-1,14,-9,1,3,10
83453330414,16,12,-6,-23,-10,-4,-4,7
83453345221,-1,-18,-1,7,18,2,2,4
83453345221,-15,-4,-1,-8,-8,-5,-2,-15
83453346875,-9,3,1,2,-16,-6,-3,1
83453346875,2,17,2,-1,-2,-3,-2,11
83453367842,23,-3,12,21,-2,-8,0,13
83453367842,19,0,-14,-34,4,9,-1,-1
83453369402,-37,-12,3,15,14,8,9,26
83453369402,-9,-6,-8,-9,-15,-6,-16,-52
83453381405,3,6,-5,-6,-14,-9,-7,9
83453381405,-4,-9,-4,17,8,-3,3,-6
83453390431,25,-4,-7,-23,-5,-5,1,14
83453390431,-6,3,-5,1,13,3,3,4
83453405238,19,-8,0,2,1,2,7,31
83453405238,-14,14,16,23,5,-4,-9,-33
83453406856,6,-6,-26,-29,-7,5,1,-17
83453406856,19,1,-1,18,8,-3,-11,19
83453427823,9,5,-3,-14,-6,5,23,62
83453427823,5,-4,3,5,4,0,8,33
83453429396,-30,-8,-7,-7,-7,-4,-10,-37
83453429396,13,-8,7,-3,-3,1,7,-29
83453441373,9,14,-3,-11,3,1,-6,55
83453441373,15,-5,-1,-1,-10,-7,2,17
83453450441,-57,-4,-8,-1,10,8,4,38
83453450441,-22,-10,3,10,16,-18,-26,20
83453465252,-4,-15,-14,-25,-22,-22,-65,-99
83453465252,-13,0,2,-7,15,19,58,90
83453466921,-3,-1,2,-2,-38,-16,7,38
83453466921,-33,9,-2,-17,-55,19,-46,-30
83453487755,15,-1,16,25,52,9,80,67
83453487755,-21,-3,1,6,19,6,-25,-113
83453489368,-1,1,4,-7,-5,-6,-8,83
83453489368,7,2,-2,8,16,-4,-6,10
83453510261,-42,-10,-13,-18,-43,23,6,-14
83453510261,5,-20,-4,-4,-18,-55,-24,-48
83453511895,27,19,14,27,41,22,30,41
83453511895,-26,0,5,8,26,20,26,-40
83453525285,1,2,2,8,15,5,-12,-16
83453525285,12,3,0,-4,-7,15,6,25
83453526859,-14,-12,0,-2,-9,-13,-42,-86
83453526859,9,1,-5,0,11,-20,9,12
83453547806,-9,-6,0,-8,-54,-5,-20,-31
83453547806,-19,2,-6,-18,-14,-4,-5,-1
83453549428,13,0,0,13,3,-14,-17,-34
83453549428,8,3,0,-5,0,8,20,11
83453561397,-5,10,-2,4,12,-1,17,-2
83453561397,7,1,0,3,-10,-4,-19,0
83453570484,15,-2,-2,-7,0,1,9,-11
83453570484,12,-3,0,-2,1,7,18,27
83453585317,-21,-1,0,2,3,-3,-15,-23
83453585317,0,-1,0,4,-6,-7,-10,0
83453586872,10,2,-3,-5,5,9,6,-8
83453586872,-5,-5,2,7,-7,0,7,-1
83453607745,-7,-2,-4,-10,-3,-10,-14,-20
83453607745,12,4,-3,1,3,9,0,-1
83453609377,0,3,0,-2,0,1,10,-2
83453609377,5,5,0,2,-2,-6,-4,11
83453621441,1,-10,-3,-3,10,-1,-2,-8
83453621441,2,-20,-8,-7,-3,3,1,3
83453630382,-11,-10,2,-5,-3,-5,-6,-11
83453630382,-16,-3,-8,-2,-8,-6,4,1
83453645322,0,0,-5,3,6,6,-7,-8
83453645322,-29,5,1,2,4,5,0,-2
83453646922,30,4,4,3,-1,0,-2,0
83453646922,4,-3,-4,-9,-7,-9,0,3
83453667744,2,22,0,-1,2,-3,2,-14
83453667744,1,-4,3,10,-4,-15,-4,35
83453669347,4,-4,-7,-12,-2,-1,-8,-8
83453669347,3,-4,5,6,8,17,14,8
83453681435,-5,3,1,-1,1,10,2,-9
83453681435,-18,11,-1,2,4,4,-15,-7
83453690446,1,-3,0,4,0,9,11,4
83453690446,13,-1,0,2,-3,-27,-1,7
83453712780,-5,-3,-2,-3,-4,16,2,-9
83453712780,-1,4,-2,4,3,-11,-1,-15
83453714400,-6,-3,-2,-3,-9,-11,0,-6
83453714400,-7,-1,-3,-8,-4,-6,-24,-11
83453727807,-4,-10,3,29,16,14,9,5
83453727807,9,1,-2,-16,-3,-1,-1,-2
83453729396,-5,3,-8,-17,-5,5,2,-3
83453729396,5,-2,4,10,0,5,4,6
83453741447,-3,-18,-10,0,-8,-19,-13,-9
83453741447,1,-4,1,15,12,17,12,4
83453750430,20,9,15,73,16,11,10,3
83453750430,-2,-2,-5,-31,-8,-20,-2,2
83453765266,-12,-2,-4,68,-7,-3,-9,-2
83453765266,0,7,1,27,-3,-2,-4,-14
83453766852,-10,20,-6,-58,-7,-6,-1,-1
83453766852,6,4,9,42,12,6,2,1
83453787761,12,7,4,-4,5,-1,4,21
83453787761,-9,-2,1,15,-6,-4,-6,-19
83453789414,-12,0,-5,-12,-3,0,-7,-46
83453789414,12,-1,0,51,15,8,-1,7
83453801410,-13,1,-11,-41,-33,-18,-6,-9
83453801410,13,-3,-8,-24,-11,7,4,4
83453810435,-6,-8,1,37,6,-16,-6,4
83453810435,-4,1,0,-35,-5,7,1,-3
83453825280,2,-4,4,27,17,-1,-2,-7
83453825280,-8,-8,-13,-105,-21,-2,0,4
83453826874,-5,-6,-7,8,-5,2,-2,-5
83453826874,-7,-4,-6,-8,-4,-5,-2,-4
83453847775,-2,5,11,32,17,9,5,6
83453847775,-8,-16,0,34,11,-3,-7,0
83453849374,7,-1,-2,-3,-13,-19,-6,4
83453849374,-4,1,0,7,-5,-2,-3,-2
83453861442,3,-18,-8,-84,-16,-10,7,-3
83453861442,-3,4,3,62,11,12,-2,-3
83453870405,-1,-5,-1,-68,-9,9,6,3
83453870405,-17,-6,-5,6,3,6,5,-14
83453885256,3,4,-5,-2,-5,-20,-9,6
83453885256,4,-1,-5,-12,-10,-4,3,1
83453886912,-4,-4,5,56,11,12,-8,5
83453886912,-2,2,-3,-28,-15,-17,-3,-4
83453907749,-3,4,2,-9,9,9,4,6
83453907749,5,1,-2,-11,-4,-10,-8,-2
83453909361,-4,-3,-1,0,1,10,-4,-2
83453909361,1,-4,1,5,-1,-11,-5,2
83453921412,-11,1,-5,-46,0,8,2,-11
83453921412,8,4,3,18,1,3,5,5
83453930395,-8,-6,-3,-17,-7,-10,-2,3
83453930395,12,0,-3,4,1,9,7,9
83453945320,-15,11,-5,-21,-12,-14,-11,-2
83453945320,13,1,-2,-41,-5,0,0,-6
83453946920,0,0,5,11,4,2,4,-2
83453946920,-6,-2,-1,16,-2,8,-7,-8
83453967787,5,3,0,85,9,-18,-5,-4
83453967787,-3,-1,-3,-39,-12,-2,2,6
83453969400,6,-9,-2,32,15,7,0,-1
83453969400,-4,-5,-8,-73,-25,6,-1,8
83453981438,7,3,2,-10,0,-13,-7,0
83453981438,-4,0,-1,50,7,3,7,-5
83453990409,1,2,-1,-59,-2,8,2,8
83453990409,-1,-4,-5,-5,3,6,-1,-5
83454004599,7,-4,3,-2,-9,0,0,-4
83454004599,-5,-3,7,31,9,-13,-7,-1
83454018933,-2,4,1,31,5,-12,-3,-1
83454018933,3,-5,-13,-67,-28,3,-1,0
83454027756,-7,-2,4,8,8,-5,-3,-6
83454027756,9,-12,-4,-72,-16,6,-1,4
83454029396,-3,-2,-3,23,-1,-1,7,1
83454029396,0,5,10,49,23,2,-4,0
83454041454,0,-3,-8,-32,-1,7,5,1
83454041454,-15,2,-1,37,4,-1,-3,-12
83454050379,1,-2,0,47,-3,-2,0,5
83454050379,-14,-4,-1,-11,-3,-9,-1,-3
83454064551,10,-6,4,30,4,4,-1,-2
83454064551,0,2,1,-16,4,3,-2,7
83454071420,7,1,-4,-5,-8,-6,2,-4
83454071420,-3,5,2,46,8,-6,1,0
83454087802,-22,17,7,55,6,9,-1,-2
83454087802,-6,-1,-14,-91,-20,-9,-1,-3
83454089409,7,2,-1,-23,-7,-2,-4,-3
83454089409,15,8,1,8,9,2,0,3
83454101400,-5,-1,3,23,-1,2,2,-2
83454101400,-15,-15,-6,-19,1,-3,-1,0
83454110411,-5,4,3,11,0,-1,-1,2
83454110411,4,-3,-1,14,1,-1,-1,0
83454124580,1,-5,-4,-6,-7,-2,-3,-3
83454124580,4,5,2,35,10,-2,-3,3
83454131389,-3,-6,-5,-31,-10,0,-2,-4
83454131389,-7,-9,4,25,4,-7,-1,2
83454148410,4,-6,-13,-38,-7,6,0,-2
83454148410,-1,1,4,34,-1,-2,-4,-6
83454150043,-14,7,-1,-12,1,0,0,-3
83454150043,18,4,0,-32,-9,-2,5,1
83454161451,-8,-2,0,-14,0,0,-3,0
83454161451,5,2,-1,13,4,0,-1,-6
83454170456,-8,2,-3,-9,-3,-5,-3,3
83454170456,-3,-7,-5,-10,-7,-2,-4,-2
83454184760,-6,-6,-3,-11,-6,-4,-3,-3
83454184760,16,18,3,4,1,0,2,1
83454191433,-3,-9,0,19,1,0,-4,-14
83454191433,-6,1,0,13,5,1,0,-5
83454207860,-3,-11,-4,2,5,1,0,2
83454207860,16,22,9,5,-10,-3,1,3
83454209539,-14,-31,-9,15,4,-1,-2,0
83454209539,-1,1,-3,-1,-3,-2,-1,-3
83454230390,12,-5,-2,-9,1,1,2,-3
83454230390,-6,2,2,31,5,-2,-1,6
83454231898,-2,6,3,15,4,0,0,-1
83454231898,-3,-1,-5,-49,-11,-2,-1,-5
83454244792,9,-4,6,30,4,-2,-2,3
83454244792,-14,-16,-5,-17,-2,-1,1,-1
83454251444,6,4,-1,8,2,-2,-3,0
83454251444,-4,-4,3,24,7,1,1,-9
83454267999,0,7,3,-33,-2,0,2,3
83454267999,-1,-5,-2,-7,-3,-2,-3,-2
83454269418,-1,-14,-3,-11,-6,-1,-2,0
83454269418,12,8,5,-7,3,3,2,0
83454290518,0,1,-5,-23,-7,-3,-2,3
83454290518,14,18,-6,-10,4,-2,-1,-1
83454291964,10,-27,0,-13,-5,0,0,2
83454291964,9,4,0,38,5,0,1,3
83454304197,-15,-9,-5,-23,-1,-1,-2,-5
83454304197,5,9,3,29,5,1,2,2
83454313002,4,2,4,11,0,-2,-1,3
83454313002,-7,-3,-9,-11,-8,-2,-1,-1
83454328073,-4,2,3,-10,0,0,1,-3
83454328073,-16,-12,-3,-12,-4,-3,-2,-4
83454329460,-6,11,-3,-50,-6,-3,-1,-4
83454329460,-7,0,2,56,7,-1,-3,0
83454350566,12,5,-8,-62,-14,-2,-1,-1
83454350566,-8,-11,4,25,1,-1,-2,-3
83454351967,-1,5,-4,-8,10,0,-2,0
83454351967,-23,0,-7,-67,-21,-4,-3,-1
83454364160,-11,-3,1,23,1,-2,-3,-2
83454364160,-9,-13,-4,-6,-6,-1,-1,-2
83454372976,-14,-9,-1,-8,-1,-1,-2,-3
83454372976,16,7,7,49,16,2,0,1
83454387985,-5,-6,-8,-47,-20,-1,-3,-3
83454387985,-2,-9,-5,-8,-2,-3,-1,1
83454389463,-2,6,1,23,2,-1,0,-2
83454389463,-15,-18,-5,0,0,-3,-2,-1
83454410310,-10,-24,4,49,10,2,2,-1
83454410310,16,5,-1,-45,-4,-1,0,-5
83454411965,-32,12,-2,7,-5,-4,-3,13
83454411965,17,-17,-2,-1,-2,0,0,-2
83454424162,3,20,8,3,1,0,-5,-5
83454424162,15,5,1,16,1,-1,3,6
83454432950,17,14,1,-2,-1,0,-2,-9
83454432950,-8,8,-2,-29,-8,-2,-2,4
83454448058,-15,-5,-3,15,2,-3,-3,4
83454448058,-16,-13,-4,11,-3,-2,-1,-3
83454449474,13,3,-7,-17,-6,-3,-2,0
83454449474,4,1,2,14,8,-1,-1,-1
83454470513,9,6,-4,-4,-6,-3,1,-4
83454470513,-7,6,5,14,3,1,-4,-1
83454471961,18,-21,-3,-3,-5,0,-1,-8
83454471961,15,-2,-1,0,1,0,-2,4
83454483946,5,4,5,34,9,0,2,31
83454483946,-10,6,-1,-41,-8,0,-2,-21
83454493008,-2,6,1,8,0,-1,0,7
83454493008,-18,-5,-1,7,-1,-1,-2,-10
83454507954,21,-1,3,7,2,0,1,0
83454507954,-10,-4,-5,-12,-4,-1,-1,6
83454509367,0,-3,6,17,6,0,1,-4
83454509367,-4,-2,-2,-6,-9,-2,-2,-1
83454529660,-4,2,-9,-28,-3,-1,-4,-8
83454529660,-12,-10,-3,19,2,-2,-4,1
83454537928,2,22,3,33,10,0,1,-7
83454537928,-9,16,1,-52,-15,-2,0,2
83454544158,-4,5,1,-1,2,1,1,-6
83454544158,9,-8,-4,-3,-3,-2,-3,4
83454553012,8,34,2,-15,-4,-1,-2,-4
83454553012,-5,1,-1,15,2,-2,1,4
83454566912,-12,-4,0,6,0,0,-2,-9
83454566912,-4,-8,3,7,0,-1,0,1
83454575458,16,5,2,-9,-3,0,0,-4
83454575458,-2,18,1,-6,2,2,-2,-4
83454590311,3,-6,-6,-16,-6,-2,-3,-4
83454590311,-9,-8,2,24,4,1,0,3
83454591895,-4,-14,-4,-8,-3,-1,-2,2
83454591895,8,-7,-1,-3,1,-2,-1,-4
83454603911,-12,-8,3,20,3,-1,0,-6
83454603911,8,7,0,6,2,0,-2,2
83454612930,-1,-3,-3,-9,1,1,-1,-1
83454612930,-6,-14,-3,0,-6,-2,1,-1
83454628343,0,3,2,15,3,-1,-1,0
83454628343,4,3,-1,-19,-7,-2,-2,-5
83454629870,-20,-33,-8,-3,-5,-2,-2,7
83454629870,-9,-7,2,25,8,-1,-1,2
83454650452,0,-2,0,0,-1,-1,1,-2
83454650452,12,11,-8,3,0,-1,-1,-5
83454651947,-12,-8,-4,-2,-4,-1,-2,4
83454651947,-4,3,-4,6,0,0,-1,-13
83454664124,19,4,-2,1,1,-1,-1,2
83454664124,-9,-18,-6,-1,-1,-2,-2,-4
83454672975,-14,-3,2,-4,-2,-1,1,5
83454672975,19,4,1,-8,0,0,0,3
83454687970,1,2,-1,-7,-2,-1,-1,-5
83454687970,3,0,2,6,3,-1,-1,-4
83454689403,-17,11,-2,-3,1,-1,-1,-5
83454689403,14,0,0,-5,-5,0,1,2
83454710566,-3,17,2,2,-2,0,-1,-4
83454710566,6,1,-2,4,-2,1,0,7
83454711965,-1,-4,-1,-4,-2,-1,-1,-8
83454711965,-12,-15,-1,5,3,-1,-3,-2
83454723926,0,0,-1,0,-1,-2,0,10
83454723926,1,5,0,-9,-1,-1,0,-2
83454732955,10,12,-3,-18,-4,-1,-3,-5
83454732955,-33,5,-5,-3,0,-3,-3,-18
83454747805,6,6,5,0,-1,0,0,-2
83454747805,-9,-27,-1,3,-2,-1,-2,-1
83454749382,1,-8,-1,8,0,-1,0,-7
83454749382,7,-6,-3,-2,-1,-1,0,8
83454770274,4,-9,-4,-5,-2,-1,-1,2
83454770274,2,7,-2,-9,-2,-2,0,-4
83454771884,1,0,0,5,-1,-2,-1,0
83454771884,-12,-12,-5,-15,-3,-2,-4,1
83454783948,-7,-7,-3,1,0,-2,-2,-5
83454783948,-1,3,2,7,0,-1,1,0
83454792925,2,-7,-7,-12,-2,-1,-2,1
83454792925,-2,1,0,0,-2,-1,-1,0
83454807768,-1,-5,-1,-4,0,0,0,-7
83454807768,-7,4,1,1,-1,-1,-2,7
83454809381,-17,-12,-3,-3,0,-3,-1,-1
83454809381,-15,-10,-2,3,-1,-3,-1,-3
83454830270,1,8,-1,-8,-3,0,0,7
83454830270,3,-14,-4,26,2,-1,0,-16
83454831883,-2,-10,-5,-30,-6,-1,-1,12
83454831883,0,10,0,-2,-1,-1,-1,2
83454843929,-2,-4,-1,3,-2,-2,0,-1
83454843929,5,6,-4,-2,1,-2,-2,1
83454852933,1,1,2,8,-2,0,0,-5
83454852933,5,1,-4,-3,-3,-3,-2,-6
83454867826,1,-7,-5,-4,-1,0,-3,1
83454867826,-21,-4,-2,-10,-2,1,-2,1
83454869406,4,6,2,11,-1,0,-1,-4
83454869406,4,35,1,-3,-1,-2,-1,0
83454890253,1,-14,0,5,1,-1,-1,-13
83454890253,4,1,-5,-2,1,-1,1,12
83454891874,5,-3,1,-3,-7,-2,-1,-2
83454891874,1,-4,1,2,2,1,-1,2
83454903871,-11,-4,-3,-1,-2,-2,-3,-2
83454903871,0,0,2,-4,-2,-1,-1,-2
83454912933,-12,-14,-5,2,1,-1,-1,-2
83454912933,9,-14,1,2,1,0,0,15
83454935290,-5,2,-5,-6,-2,-1,0,-17
83454935290,0,-3,2,-3,0,-1,2,0
83454937372,13,15,6,9,3,1,-2,-1
83454937372,18,-23,0,-3,1,1,1,6
83454950312,-4,-30,-2,-2,-2,-1,-2,1
83454950312,23,26,3,1,-2,-3,-2,-1
83454951972,-18,8,1,1,0,-1,-1,-2
83454951972,-4,2,-2,0,0,0,-2,-6
83454963930,4,12,4,0,0,-1,-1,1
83454963930,0,-3,-1,-4,-1,-1,-1,4
83454972899,-1,-10,-4,-4,-2,-3,-2,2
83454972899,-5,-5,1,2,2,-2,0,-2
83454987993,-5,5,-4,-8,-3,-1,0,3
83454987993,-10,-1,1,16,1,0,0,-2
83454989416,1,-2,0,-8,-2,-3,-1,-4
83454989416,3,-1,-2,0,-1,1,0,-4
83455010264,2,8,3,2,0,-1,0,1
83455010264,-3,9,1,2,-1,0,-2,-2
83455011886,9,3,-3,-3,-1,-1,-2,-22
83455011886,-7,-9,-2,-7,-1,0,0,1
83455023990,-7,-5,-2,8,-3,-2,-1,-1
83455023990,4,-1,0,-10,0,-2,-2,2
83455032896,4,14,0,0,-1,-2,-2,5
83455032896,-9,-2,-6,-3,1,0,1,3
83455047854,-2,9,3,1,0,0,-1,-3
83455047854,-11,-25,-3,-11,-6,-2,-1,-3
83455049435,26,0,1,3,0,0,0,7
83455049435,-10,-2,-4,0,-3,0,-1,-5
83455070298,-6,-7,3,-2,-2,-2,1,5
83455070298,33,41,1,9,-2,-1,-2,-4
83455071930,-13,-11,0,-10,-2,1,-1,0
83455071930,-15,-1,-3,-4,-2,-4,-3,-4
83455083986,1,-1,-4,-1,-1,-1,1,-1
83455083986,-27,-3,-1,-6,-1,-2,-1,-1
83455092958,-9,-4,-5,-2,-3,-3,-1,2
83455092958,10,2,2,5,-1,-1,-3,-1
83455107116,2,6,-1,1,0,-1,-1,-3
83455107116,0,-12,-3,-5,-2,0,0,-1
83455113975,-10,-29,-3,3,-1,-1,-3,-7
83455113975,10,-6,3,-4,-2,-2,0,-3
83455130275,10,-2,-6,-3,-3,-3,-3,2
83455130275,-11,-6,1,-3,1,-1,-2,-1
83455131928,-14,-10,-3,-1,-3,-2,-1,-4
83455131928,3,3,1,-3,-1,0,0,2
83455152892,-4,1,-3,-4,-2,-3,-4,-5
83455152892,2,-6,-2,-1,-2,-1,-2,-6
83455154481,15,12,1,2,0,0,0,-4
83455154481,-3,-2,-1,4,-3,-1,0,2
83455168033,10,-7,0,1,-2,-1,-3,1
83455168033,-2,22,-2,-7,-2,0,0,4
83455169480,-9,3,-2,0,-1,-1,-1,0
83455169480,-2,-3,0,0,-1,0,-4,-2
83455190292,-8,-6,0,-2,-1,-1,-1,-2
83455190292,12,-4,-2,3,0,-2,-4,-2
83455191953,1,3,-1,-2,0,-1,-2,9
83455191953,0,-6,-3,-13,-5,-2,-2,-4
83455212963,-17,15,-3,-3,-1,-1,-1,-9
83455212963,-8,-12,1,3,-1,0,3,9
83455214600,-2,0,0,0,-2,-2,-1,-1
83455214600,-4,1,-3,5,-2,-1,-3,-5
83455227765,2,-1,-2,-7,0,-1,-3,10
83455227765,-5,4,-2,-5,-2,-2,-2,-14
83455229467,-21,-18,-3,1,0,-1,-3,10
83455229467,1,22,3,0,-1,-1,3,-1
83455257770,-11,-12,-1,-2,-3,0,-1,-1
83455257770,-3,-3,-3,0,-1,0,-3,3
83455259367,16,3,-1,1,-1,-1,-1,-1
83455259367,5,23,0,3,-1,-1,-1,-7
83455272979,-9,3,0,4,2,-1,1,11
83455272979,10,-3,0,-2,-1,-2,-1,1
83455274352,-3,8,0,0,0,-1,1,-7
83455274352,-10,-22,-5,-5,-2,-1,-2,2
83455287991,5,1,0,-2,0,-1,2,-5
83455287991,-4,-9,0,3,-1,-2,-1,-2
83455289351,8,1,-1,-4,-1,-1,1,2
83455289351,-15,-10,-5,3,1,-1,-5,-18
83455310530,6,17,-1,-5,-1,-1,0,-1
83455310530,-3,-7,-1,-1,-3,-1,-4,0
83455311866,2,0,3,4,1,-1,-1,-16
83455311866,-21,-5,-1,6,0,-1,0,2
83455332681,-5,0,-6,-5,-2,-2,-3,-5
83455332681,-18,-5,-2,-5,-2,-1,1,3
83455338999,6,5,0,0,-1,-1,1,0
83455338999,-2,-8,-6,-1,0,0,-1,0
83455347140,8,-7,-2,-2,-3,-2,-3,-1
83455347140,1,-3,-3,0,0,-2,-2,-3
83455353911,5,-7,-6,-5,-2,-1,-2,2
83455353911,5,-8,1,-2,-2,-3,0,1
83455370268,2,-3,0,3,-2,-1,-1,-4
83455370268,2,-5,-2,-3,-1,-1,-3,-2
83455371865,5,10,-1,-1,0,0,0,20
83455371865,11,1,3,-4,-2,-1,2,-6
83455393034,-11,-6,-2,1,-1,-2,-1,-2
83455393034,0,2,1,-1,-1,0,1,-2
83455394427,-6,-5,-3,-4,-2,-1,-1,-1
83455394427,20,4,0,0,0,0,-1,0
83455406436,-10,-6,4,3,-1,-1,-1,13
83455406436,17,14,-1,-1,0,-2,-1,-1
83455415468,2,-6,-2,-2,0,-3,1,4
83455415468,1,-1,1,-1,1,0,0,1
83455430543,13,9,2,-3,-1,0,1,-3
83455430543,2,-16,-3,-2,-1,-1,-1,2
83455431946,-2,3,-1,0,-1,0,1,-8
83455431946,-1,0,0,-1,-1,-1,-1,1
83455452831,4,-1,-2,-2,-2,-3,-3,-4
83455452831,-11,-5,0,0,-3,-2,-1,-5
83455454449,-8,-4,-2,0,-1,-1,-2,-2
83455454449,-6,-5,-4,-6,-5,-2,0,-9
83455467182,-6,-7,-1,2,0,0,0,-4
83455467182,12,-1,-4,-4,-1,1,0,2
83455473952,1,23,2,0,-1,-2,-3,-3
83455473952,-2,17,0,1,-1,-2,-2,1
83455497734,4,2,-1,0,-1,0,-1,2
83455497734,-8,-4,-3,-1,-1,-2,-2,-6
83455499381,-31,-7,-1,0,2,-1,-2,-6
83455499381,-5,-19,-4,-3,-4,-1,-2,8
83455512698,-4,-10,-5,1,-2,0,-2,-7
83455512698,3,1,3,-3,-2,-3,-1,5
83455516768,-10,-8,-5,-2,-2,-2,-1,-8
83455516768,-2,-3,2,3,0,-1,-1,-1
83455527203,0,-6,-3,-3,-1,-1,-1,7
83455527203,11,-5,1,0,-1,0,1,-2
83455533923,12,-3,-2,-1,-3,0,-1,2
83455533923,-9,23,-6,-5,-3,-2,-2,-5
83455550279,0,-7,1,1,1,-1,2,1
83455550279,1,0,-3,-2,-3,-2,-1,-11
83455551910,-2,1,2,2,-1,-2,1,19
83455551910,-1,-25,0,2,3,0,0,5
83455572988,2,-6,-1,-7,-3,-1,-1,-4
83455572988,-7,3,-3,-1,0,-1,-1,0
83455574422,-7,-3,-6,-4,-2,-4,-1,-7
83455574422,2,4,5,2,1,1,0,-1
83455587108,5,-6,-2,0,-1,-1,-1,-2
83455587108,-10,-6,1,-3,1,1,-2,-1
83455594114,-4,-5,-1,1,-1,-1,-1,-2
83455594114,-3,10,3,-1,0,-2,-2,0
83455610585,-8,-1,-1,-1,0,-2,-2,-7
83455610585,-3,6,-2,-1,-2,-3,0,5
83455611943,1,-6,-2,-3,-1,-1,0,-6
83455611943,-8,-4,-1,-1,-2,-3,-2,-16
83455632963,5,4,2,0,-1,-1,0,-4
83455632963,-5,-5,-3,1,-1,0,-1,2
83455634412,3,1,6,-1,0,2,1,-3
83455634412,0,14,-1,-2,-1,-1,-1,2
83455646687,-6,-15,-5,2,1,0,-2,-2
83455646687,-18,-8,-6,-4,-2,-2,-1,6
83455655452,11,6,2,1,-1,-1,-2,-11
83455655452,8,4,-1,2,0,0,0,15
83455670485,-2,1,-2,-2,-3,-1,0,2
83455670485,2,-2,-1,-1,0,-1,0,-2
83455671931,20,7,4,2,0,0,0,-2
83455671931,-4,-10,-3,-4,-2,-2,-1,-3
83455692836,1,7,0,3,0,-2,1,3
83455692836,-4,-2,-1,0,-1,-1,0,-12
83455694509,-4,-12,-4,-5,-3,-3,-1,2
83455694509,13,-3,0,3,-1,-2,1,-1
83455715540,-3,0,2,0,-1,0,-2,2
83455715540,1,4,-2,-4,-2,0,-2,2
83455716916,-3,3,-1,0,-1,0,-2,1
83455716916,2,-4,-3,-5,-1,0,-1,-2
83455730340,1,-4,-2,-3,0,-2,0,-3
83455730340,1,5,0,0,0,-2,-1,0
83455731845,-6,-4,-3,-5,-2,-1,-1,-2
83455731845,-5,-5,0,-1,-1,-1,0,-1
83455753051,4,5,-2,6,1,-1,0,-1
83455753051,-6,-2,-6,-2,-5,-2,-2,-2
83455754417,0,-4,-3,-2,-1,-1,-1,1
83455754417,-2,-1,-2,-26,-3,-1,-2,-2
83455766638,-1,1,-4,20,3,-2,-2,-3
83455766638,2,-2,-3,-21,-10,-2,-1,-1
83455775481,-2,-9,-1,12,-1,-1,-2,0
83455775481,2,0,-5,-26,-10,-2,-2,-1
83455790411,-4,10,-2,-6,-1,-1,-2,-2
83455790411,18,2,0,5,5,0,0,1
83455791915,-7,10,-1,-4,-1,-1,-1,-2
83455791915,-12,-31,-1,15,2,0,-1,-1
83455812805,0,-4,-3,-7,-3,-2,-1,-3
83455812805,-3,3,3,2,-1,1,-1,-7
83455814468,-9,-2,-1,-3,1,-1,-1,8
83455814468,16,18,2,12,3,-1,0,-12
83455826449,3,-4,-4,-10,-3,-2,-3,18
83455826449,7,6,-3,0,-1,1,-1,-9
83455835485,-4,-6,-2,-3,-1,0,-1,-1
83455835485,-3,-3,0,2,0,-1,0,-5
83455850508,-7,-23,-2,-4,-3,-1,-3,-4
83455850508,-2,6,0,-1,2,-2,-1,2
83455851921,9,-17,-2,3,-2,0,-1,-1
83455851921,-4,-4,-2,3,-2,-1,-2,7
83455872974,-19,-12,1,-2,1,-1,-2,-6
83455872974,-5,-1,-3,-6,-2,-1,0,4
83455874419,5,5,0,1,-1,-3,0,-6
83455874419,-7,2,-5,-8,-1,-3,1,1
83455886505,11,11,4,9,7,1,3,-2
83455886505,-12,1,2,9,-8,-1,-1,1
83455895478,24,12,-4,-25,-4,-2,-2,2
83455895478,-7,-1,3,9,0,-1,-1,-3
83455910339,1,6,-2,-1,0,-1,-1,-3
83455910339,-2,-8,0,6,2,-1,-1,2
83455911985,-5,7,0,1,0,-1,0,-3
83455911985,-15,-14,-6,3,-2,-2,-3,0
83455933043,3,8,-1,-8,-3,0,-1,-12
83455933043,1,0,2,5,2,-1,0,7
83455934455,-24,-10,-2,-12,-4,0,-2,-2
83455934455,-2,7,0,-7,-1,-1,-2,-1
83455946613,-1,-32,-6,-3,-3,-1,-1,-1
83455946613,-4,-12,-2,-5,0,0,0,-5
83455970219,2,-9,-1,12,1,-1,-2,0
83455970219,4,-14,0,6,2,2,-1,1
83455970836,-3,7,-1,-4,-5,-1,-2,4
83455970836,10,-2,-1,-1,0,0,0,-15
83455977911,-3,-2,-1,-2,-1,0,-1,4
83455977911,8,5,-4,-4,-3,-2,-2,0
83455992851,-26,3,0,-2,-4,-4,-2,-2
83455992851,1,-3,-3,-1,1,-1,-2,2
83455994423,-2,0,-5,1,-2,-2,-2,-4
83455994423,5,16,-1,-1,-1,-1,-2,-8
83456006375,10,-4,-3,-3,-1,-1,-2,9
83456006375,15,12,1,6,0,-2,-1,5
83456015419,-12,-2,-4,-10,-3,-1,-3,-3
83456015419,9,-4,0,3,0,-1,-1,3
83456030368,5,-22,-3,-4,-4,0,-1,-3
83456030368,-11,-5,2,1,3,0,-1,0
83456031998,4,5,1,-12,-6,-1,1,3
83456031998,1,3,0,12,0,1,-1,0
83456053011,-1,13,3,10,-1,-2,0,-2
83456053011,-10,-9,-3,-8,-1,0,-2,0
83456054371,-3,-7,-2,4,1,-2,-1,-4
83456054371,2,2,0,0,0,-3,0,2
83456066446,4,8,3,2,1,-1,-1,2
83456066446,-6,2,-2,3,-2,-1,2,10
83456075423,-2,-12,-3,5,1,-1,0,-4
83456075423,-11,-8,-4,-6,-4,-2,-2,1
