timestamp,emg1,emg2,emg3,emg4,emg5,emg6,emg7,emg8
82176881995,7,-3,-4,2,-2,-2,-2,4
82176881995,-2,4,-3,-5,-2,-1,-4,6
82176883758,13,-2,-2,0,-1,0,-2,-18
82176883758,-1,2,1,0,0,-1,0,2
82176904536,-1,-11,-2,-3,-2,1,-1,1
82176904536,0,9,1,-5,-1,-1,-1,1
82176906172,-8,6,-2,2,-2,-1,-2,2
82176906172,-3,-8,-3,1,1,0,-2,-4
82176918913,0,0,1,-2,-2,-1,1,-3
82176918913,-6,-7,-1,-1,-2,-2,-1,-5
82176925742,-1,-5,-1,-7,-2,-3,-2,6
82176925742,0,2,0,0,-2,-1,0,-3
82176942012,1,1,-3,1,1,-2,-3,2
82176942012,-1,-8,-6,2,-2,-3,-2,-4
82176943714,-1,-9,1,9,2,0,0,2
82176943714,0,-1,-3,-12,-3,-3,0,0
82176964577,-4,-5,0,0,-1,-2,-1,-2
82176964577,-17,-11,-8,-18,-4,-3,-2,-4
82176966177,1,-3,1,8,-1,1,0,2
82176966177,-4,-1,-1,-1,-2,0,-2,-2
82176978893,6,4,-1,0,-2,-1,-1,-3
82176978893,-8,-34,-3,0,-3,0,-1,-2
82176985762,-4,-6,-1,-3,0,-1,0,2
82176985762,1,2,-2,-7,-2,0,-2,-1
82177009536,-5,-5,-1,-2,-2,-2,-1,-1
82177009536,1,9,2,3,0,-1,0,-1
82177011144,1,-4,-3,-1,0,-1,-1,0
82177011144,-4,-8,0,4,-1,0,-3,-2
82177024718,1,-6,-6,-3,-1,-2,-3,-2
82177024718,6,10,5,4,1,0,0,0
82177026345,2,-3,-2,-7,-1,-4,1,0
82177026345,-4,2,-4,4,-1,-1,-1,-1
82177038816,-2,-2,-1,-5,-3,-1,0,0
82177038816,-2,-2,0,2,-1,0,-1,1
82177045694,-5,-4,-3,-2,-4,-2,-3,-3
82177045694,1,-25,-5,2,1,0,-2,-1
82177062075,-3,0,1,-2,0,0,-2,-1
82177062075,0,2,-1,-2,0,-1,1,-1
82177063721,-3,-1,0,1,-1,-2,0,-1
82177063721,-1,4,0,-1,0,-1,0,-1
82177084473,1,4,-1,-2,-2,-1,-1,1
82177084473,-6,-16,-3,2,-1,-1,-1,-4
82177086131,-4,-5,-7,-8,-4,-3,1,0
82177086131,0,6,2,-2,-2,-2,-1,0
82177099063,-1,0,-3,7,-1,-1,0,-3
82177099063,3,10,0,-2,-1,-1,-1,1
82177105824,-1,-3,-1,1,0,0,-2,-3
82177105824,-3,-2,-2,-8,-2,-1,-2,0
82177122091,11,6,2,-1,-2,0,-1,1
82177122091,-25,-14,-7,-1,-1,-3,-4,-4
82177123760,-3,-5,0,-2,0,0,-1,0
82177123760,5,11,2,5,1,-2,-1,-2
82177144523,0,3,2,0,-1,-1,-2,-1
82177144523,6,6,-5,-3,-4,-1,-1,-2
82177146119,1,0,1,-2,-1,-1,-1,0
82177146119,-5,-4,-4,-7,-2,-2,0,0
82177158870,-5,-6,-2,-2,-1,-1,0,0
82177158870,12,18,4,5,-1,-1,1,1
82177165721,-3,-1,-1,-1,-3,-1,-3,0
82177165721,9,3,0,1,-1,-1,-2,-1
82177182006,-2,-5,-2,-2,-2,-2,-1,0
82177182006,3,4,0,-2,0,-1,0,1
82177183682,4,16,0,0,-1,0,0,-1
82177183682,-5,-9,1,-1,-1,-1,-1,-4
82177204552,-2,0,-2,0,0,1,-2,0
82177204552,-3,0,-1,-3,-2,1,-2,1
82177206161,-4,-1,-2,-2,-1,-1,0,-2
82177206161,-4,-3,-2,-1,0,-3,-1,1
82177218881,-4,-3,-1,-2,-1,-3,-1,-3
82177218881,3,-2,1,0,0,-1,-1,-1
82177225620,0,-6,-1,0,-1,-4,0,2
82177225620,1,2,-3,-2,-1,-1,0,-2
82177242044,1,-4,-2,-2,-1,-1,-1,-2
82177242044,2,-1,0,1,-1,1,-2,-2
82177243586,0,-4,1,-4,-1,0,-1,-3
82177243586,-2,1,-1,0,-2,-1,-1,-1
82177264566,-4,2,-2,-2,-1,-2,-2,-1
82177264566,-1,-3,-1,-3,-2,0,0,1
82177266218,-2,-5,-2,1,-1,0,-2,-3
82177266218,-2,1,0,2,-1,0,-1,-1
82177279137,-1,-1,1,-11,1,-1,0,-2
82177279137,1,-1,-4,-8,-2,-1,-2,0
82177285919,0,-2,-1,8,0,0,0,1
82177285919,-3,-25,-3,-10,-5,-3,0,-1
82177302120,-2,-2,-2,5,-1,-2,-1,0
82177302120,-1,0,-1,1,-1,-1,0,-1
82177303771,1,0,-1,16,7,0,-2,-2
82177303771,-2,2,-5,-40,-20,-3,-3,-4
82177324840,-1,0,1,6,4,-2,0,0
82177324840,-2,-3,2,6,4,1,2,-1
82177326254,-1,-5,-6,-66,-11,-1,-2,-1
82177326254,-3,4,1,28,4,-3,-2,-2
82177338188,1,-1,3,13,6,0,-1,1
82177338188,0,5,-1,-19,-2,-2,-1,0
82177347232,-1,-1,3,37,-4,-3,0,1
82177347232,-1,3,0,22,9,0,0,1
82177362112,-3,-1,-5,-20,-12,4,-2,-3
82177362112,-27,-4,-5,2,4,-3,-4,-3
82177363819,-4,-3,-2,-4,2,0,1,-2
82177363819,3,3,-2,31,-3,-2,-3,0
82177384754,-4,2,-3,-29,-4,-2,-3,-2
82177384754,3,-4,0,5,0,-8,0,-3
82177386203,-4,-12,-8,-21,-8,5,-3,-2
82177386203,-5,5,3,28,6,-8,-5,-8
82177398319,4,1,7,32,16,5,7,9
82177398319,1,-11,-16,-89,-38,-7,-7,-4
82177407318,1,3,1,19,4,-4,0,2
82177407318,3,0,-4,-17,1,3,-3,-2
82177422135,-4,-4,-2,4,1,-3,-1,-5
82177422135,5,4,5,22,8,5,7,6
82177423730,0,2,0,-1,-5,-2,-2,0
82177423730,-5,-3,-1,-16,2,6,-2,-3
82177444758,5,4,-1,-13,-2,-1,3,2
82177444758,1,-1,1,46,-3,-9,-7,0
82177446209,-3,-3,-4,-1,2,4,6,4
82177446209,3,2,0,-5,1,5,-5,-7
82177458425,-3,-7,-4,-9,-11,-16,2,13
82177458425,4,-21,-1,16,3,-4,-8,-4
82177467234,2,4,2,-2,6,-6,-2,-2
82177467234,-9,-1,-3,-23,-6,-4,-4,-4
82177482271,-2,-2,-1,5,2,21,-1,-8
82177482271,3,3,0,16,13,10,4,-8
82177483698,2,3,0,13,-10,-16,-8,8
82177483698,-5,-7,-7,-41,-16,-9,11,5
82177504714,2,0,-1,29,9,0,-8,1
82177504714,-1,4,6,19,12,5,2,-2
82177506218,-1,-4,-5,-1,2,18,2,-1
82177506218,3,3,4,26,4,-17,-3,1
82177518474,-6,-6,-10,-33,-19,-10,-6,-5
82177518474,-2,4,-4,-32,-12,-9,-14,-23
82177527217,-6,-4,0,10,7,-2,-4,9
82177527217,3,0,-4,-16,0,11,6,11
82177542291,0,0,1,7,-2,-13,15,-7
82177542291,-2,5,0,3,6,25,0,4
82177543694,3,5,2,1,-4,-20,-3,-4
82177543694,2,0,2,14,2,8,-10,-9
82177564681,-3,-3,0,5,4,-6,-10,12
82177564681,-27,-1,-5,-44,-25,-13,-8,-7
82177566236,-5,-6,-2,10,7,0,10,-3
82177566236,1,-1,-1,-4,0,11,7,22
82177578182,-2,5,3,10,10,12,-3,-13
82177578182,6,1,0,0,3,-3,-2,1
82177587236,-6,-6,-2,20,4,20,7,-6
82177587236,1,7,-7,-52,-25,-35,-13,-15
82177601389,-2,-1,3,25,1,-16,2,-10
82177601389,6,12,-1,1,9,2,-3,14
82177608196,1,-4,1,10,1,0,-6,-11
82177608196,-1,3,-2,8,-3,-4,11,1
82177624547,0,-3,-1,-1,7,9,-6,5
82177624547,5,1,2,0,3,9,4,6
82177626133,-4,6,-3,-34,-3,10,4,-18
82177626133,-3,-7,0,14,7,3,0,6
82177638196,2,4,4,0,-20,-17,-18,-12
82177638196,-2,-7,-8,14,-3,-12,16,20
82177647193,3,-1,-1,-19,-5,3,-6,-6
82177647193,-2,-6,-4,13,3,8,-1,-3
82177661412,0,-4,-4,-10,5,9,7,9
82177661412,3,-1,3,4,-3,-11,-11,-5
82177668190,1,-1,-1,3,-1,-8,4,-7
82177668190,-2,2,-2,-10,-7,-9,-2,-9
82177684564,-30,-20,-5,-8,-2,-6,-1,3
82177684564,0,-3,-2,9,4,4,0,-10
82177686187,0,2,-1,-12,1,-5,-5,15
82177686187,-2,3,9,7,2,10,5,-9
82177698176,4,4,-2,-7,0,18,-8,-2
82177698176,-3,-7,-1,12,-3,-6,9,2
82177707189,-3,-5,-3,9,-3,-19,-9,-1
82177707189,-2,-3,-2,-3,2,-3,-4,1
82177721515,3,-2,-6,-13,-10,-7,-2,-5
82177721515,4,2,11,13,13,-1,5,15
82177728234,-2,3,-7,-8,-2,37,10,-22
82177728234,5,0,4,35,12,8,-5,3
82177744737,1,2,-8,-8,-10,-51,-14,-2
82177744737,1,2,-1,-8,-3,5,6,-9
82177746240,-1,1,2,4,4,4,-11,1
82177746240,-6,-23,1,-2,1,3,-2,-11
82177758275,2,-2,-3,-20,-18,10,8,3
82177758275,2,2,-2,18,10,0,8,-3
82177767261,0,-5,-1,6,-9,1,-1,21
82177767261,-3,1,-7,-10,-2,0,0,-6
82177781611,-1,2,5,3,8,-16,-26,-17
82177781611,-2,-5,0,3,-11,-4,-3,33
82177788459,1,-1,-2,-1,-3,7,13,-2
82177788459,1,5,7,9,6,3,-3,-2
82177804830,0,0,1,18,-5,13,14,6
82177804830,-1,-2,-7,-7,0,-2,-13,-11
82177806189,0,3,16,4,19,-33,-18,29
82177806189,1,2,1,-25,-37,-3,5,1
82177827159,-2,-2,-3,7,17,10,14,16
82177827159,-3,-2,-6,-26,-13,-2,-16,-25
82177828768,3,1,0,21,8,18,19,28
82177828768,0,-16,6,21,19,6,3,-8
82177841496,1,2,-5,-20,-7,14,7,-6
82177841496,3,0,1,5,3,-2,13,27
82177848386,-8,-4,3,-19,-11,-25,-22,-33
82177848386,-1,9,-5,-12,-2,-14,6,19
82177864536,-1,-3,-4,5,-2,8,-16,-20
82177864536,-6,-5,-8,-10,-4,14,3,-17
82177866220,1,0,1,-2,6,-38,13,-10
82177866220,4,5,-6,-33,-12,22,-9,25
82177887181,-5,-4,5,31,1,-16,-27,-26
82177887181,12,3,-5,-58,5,4,29,78
82177888762,-9,-8,-17,23,-14,10,-15,-31
82177888762,-2,-1,-6,-22,3,11,13,7
82177901516,6,6,12,27,11,-4,20,23
82177901516,-4,-2,-12,-16,-20,-13,-38,-52
82177908423,-2,-2,3,24,4,-10,-8,25
82177908423,-8,-3,-9,5,-5,-18,14,-11
82177924818,19,11,-4,-20,-5,13,-28,-21
82177924818,7,-5,10,28,24,25,36,31
82177926233,-2,1,0,-24,-13,10,0,-40
82177926233,2,-5,-5,14,-11,-26,-37,-48
82177947141,1,7,-4,-27,-17,-40,-45,33
82177947141,-6,-13,-6,22,18,8,30,31
82177948773,-20,-1,-9,-24,-17,32,-23,-122
82177948773,-17,6,5,2,7,-41,-44,-4
82177960964,6,-50,-13,-7,-3,40,118,114
82177960964,7,-1,0,-4,1,-17,-112,53
82177969775,-67,-6,9,-2,19,43,47,-5
82177969775,-1,9,6,12,-2,-14,-4,68
82177984809,10,-20,-3,-5,-6,-11,-59,-12
82177984809,-37,-9,4,8,-13,-14,-25,-64
82177986214,58,7,1,-8,-8,13,8,6
82177986214,22,13,0,6,5,-1,-81,31
82178007054,-62,3,7,5,11,-5,68,-100
82178007054,45,-4,0,2,0,-7,-3,25
82178008714,-19,-23,-2,-9,-17,-26,-83,-85
82178008714,104,5,-6,-4,-5,2,1,74
82178020689,-20,14,0,1,-1,-4,-96,-128
82178020689,-28,-14,10,10,15,61,118,-120
82178029764,31,2,-4,-13,-8,-13,22,85
82178029764,-6,-5,2,13,8,-59,5,31
82178045010,-3,11,9,6,14,40,37,73
82178045010,-27,10,-6,-12,-35,-24,-40,-44
82178048564,61,27,13,14,26,-20,-17,80
82178048564,-55,-24,-14,-13,-17,45,67,-42
82178067229,24,14,-2,-4,8,10,3,14
82178067229,-85,4,3,9,33,13,-68,-124
82178068690,92,3,-5,-7,2,-12,67,83
82178068690,11,-3,7,11,1,-18,-11,-51
82178080737,-14,0,-5,-12,-13,-8,-62,-17
82178080737,3,5,-4,-3,-21,-3,5,-29
82178089774,-10,8,8,2,-4,-9,-46,-6
82178089774,-8,0,1,0,-1,10,52,-16
82178104612,4,-8,-7,-2,-6,-1,-35,45
82178104612,24,6,8,6,3,-2,55,54
82178106231,-23,-2,-4,-4,-5,-28,-29,17
82178106231,-11,9,5,4,2,28,-4,-20
82178128546,-7,-3,1,0,-5,-2,-56,-9
82178128546,27,-4,-6,-3,-3,-35,-4,12
82178130125,-18,0,-3,-3,-4,20,59,15
82178130125,-5,0,-1,-1,8,4,-7,-14
82178140880,1,1,2,4,13,25,36,0
82178140880,9,6,-1,-2,-12,-24,2,4
82178149789,-19,-9,-7,-3,-2,39,15,-15
82178149789,1,0,0,-1,-8,-23,-27,-25
82178164722,4,-2,0,-2,0,-11,27,-7
82178164722,-7,-9,2,-5,-11,-9,-12,7
82178166192,-12,-4,-1,1,-4,-12,-29,-28
82178166192,-10,-14,-4,-3,11,21,-2,-4
82178187317,0,-2,-2,-3,-12,-27,-4,-25
82178187317,0,8,1,-2,-8,-1,-10,17
82178188728,15,0,-6,5,13,9,38,42
82178188728,-5,8,3,-2,11,25,10,-4
82178200690,7,-3,-3,-7,-14,-27,26,3
82178200690,8,-6,-10,2,1,0,-31,11
82178209750,-17,-3,1,2,-1,-3,-11,-45
82178209750,-6,-2,-3,1,-7,-2,4,-7
82178224746,14,1,-12,-4,0,7,10,57
82178224746,4,3,-3,-3,-5,-1,-12,2
82178226189,-6,0,-1,-3,-2,-7,-15,-6
82178226189,-5,-3,-4,4,1,0,4,-4
82178247184,-5,0,-3,-11,-1,9,-15,-12
82178247184,9,2,-5,17,-1,-14,7,16
82178248790,-3,-3,-2,8,6,9,6,16
82178248790,-8,-1,-5,-1,-3,-3,-9,-17
82178261448,-16,-2,4,10,-1,9,3,-19
82178261448,5,0,0,-28,-3,-5,8,3
82178268399,-14,-1,2,34,0,-7,-24,-14
82178268399,-6,-3,-5,-53,-16,-3,6,-7
82178284787,-3,-2,2,23,9,-13,-12,-11
82178284787,7,0,3,12,5,18,6,19
82178286170,-8,-3,-4,-10,-9,-19,-18,-10
82178286170,-5,1,3,21,4,4,-4,-7
82178314680,7,-2,-5,-16,-6,0,10,9
82178314680,1,-2,1,5,-2,-14,-10,-5
82178316205,-6,-3,1,-15,-8,-10,-9,-2
82178316205,2,2,4,9,14,16,-6,3
82178329765,1,2,0,-5,-2,1,19,-9
82178329765,4,0,0,-6,1,11,-1,14
82178331179,-2,0,-1,-1,-3,-13,-3,-1
82178331179,0,-1,5,8,-5,-4,2,1
82178352144,3,0,-4,-2,-2,16,0,-13
82178352144,-1,-2,-1,10,-3,-16,-1,12
82178353666,-2,-1,-4,-11,-3,7,1,0
82178353666,-1,-1,-3,1,2,1,-2,-2
82178367199,1,1,6,22,-6,-29,-9,-3
82178367199,-4,-2,-6,-40,-4,20,0,-9
82178368745,-3,-1,-4,-12,1,-5,2,-6
82178368745,-1,-2,-2,10,3,6,-4,10
82178380963,3,2,5,11,4,-4,2,3
82178380963,-2,-1,3,6,0,-3,-7,-5
82178389747,-1,-1,0,-1,-4,-6,3,4
82178389747,2,-2,-2,-21,-7,-2,-3,-3
82178404811,1,0,-5,-10,-1,-4,3,-1
82178404811,1,-2,-6,2,1,-5,3,1
82178406216,-1,-2,-4,-8,4,13,-3,-7
82178406216,-5,-4,-6,-2,-4,-10,-7,-8
82178427275,0,0,4,21,1,-3,4,4
82178427275,0,-1,0,-5,-1,22,2,-4
82178428658,-3,-1,-5,-8,-3,-18,0,-2
82178428658,4,-16,-1,11,0,-1,-6,-4
82178440829,-1,-2,-1,-12,1,7,5,-1
82178440829,-3,0,1,23,5,9,-4,1
82178449735,-2,-3,-3,-73,-13,-13,-1,-3
82178449735,-4,5,-3,17,-5,-16,-1,-4
82178464725,2,0,-2,-10,8,12,4,-6
82178464725,0,-4,-4,9,-6,-10,-4,5
82178466180,-2,0,2,-4,0,8,-4,-3
82178466180,-5,0,0,27,-1,1,-5,-8
82178487254,1,0,-1,-14,-2,7,4,0
82178487254,1,2,0,6,3,-22,-7,1
82178488675,-8,-3,-2,6,-4,5,-1,-12
82178488675,-1,2,-3,-16,-3,-22,-3,-12
82178500955,-6,-3,-5,0,3,28,-2,-15
82178500955,-2,-2,-2,-5,0,-2,0,7
82178509794,1,-3,-3,13,-1,-7,-1,5
82178509794,-2,0,-1,-10,-2,12,1,-6
82178524770,4,-1,0,1,-5,-10,2,15
82178524770,-1,1,-2,-12,-1,3,1,-12
82178526175,-3,-2,-3,12,0,9,-11,-14
82178526175,-3,11,-1,0,-5,-26,3,9
82178547289,-4,-2,2,-2,-5,1,-7,-2
82178547289,1,1,2,-4,4,12,6,2
82178548816,3,-3,-7,7,3,-9,2,6
82178548816,-1,1,0,14,3,12,1,13
82178561001,-4,-2,-3,-39,-6,-16,-7,-13
82178561001,1,0,1,-5,-6,3,5,12
82178569760,-3,3,1,12,-3,6,-3,-10
82178569760,-1,-4,-2,7,-1,-2,-2,-4
82178584060,0,-2,-7,-1,3,-3,0,1
82178584060,-1,-3,0,7,-7,-2,-2,-8
82178590887,2,-1,2,0,0,1,1,-2
82178590887,-1,-3,1,-17,0,4,-2,-25
82178607064,8,1,-1,7,-2,-4,-3,26
82178607064,0,-1,0,30,-1,-12,3,4
82178608639,-2,-1,4,-14,-1,12,1,-1
82178608639,1,-2,2,-8,6,18,4,-3
82178629568,-2,2,1,12,2,-8,0,-5
82178629568,-4,2,-2,-4,-2,-14,-5,-9
82178631161,-2,-15,2,21,0,-5,-4,1
82178631161,-2,-2,0,-14,-4,13,3,3
82178644176,-2,1,-1,4,-5,-4,0,4
82178644176,0,0,0,-14,0,-5,-7,3
82178650702,-2,1,1,8,-1,-11,-5,3
82178650702,0,0,-1,-16,1,11,6,7
82178667044,-3,-4,1,11,3,-15,3,-9
82178667044,1,-1,0,-11,2,12,3,-11
82178668623,8,1,-1,-1,-7,-12,-4,-3
82178668623,-1,-4,-4,4,4,1,1,7
82178680929,-1,3,0,-16,-4,5,-3,-2
82178680929,-1,-2,-3,-12,1,-1,-1,-6
82178689771,-7,1,0,-4,1,8,1,17
82178689771,-7,-2,-1,7,-7,-21,-10,-19
82178703976,-3,-2,0,15,4,7,0,-6
82178703976,-3,-2,-3,-9,-2,2,-1,0
82178710789,-5,0,-3,8,3,8,2,1
82178710789,1,-3,-2,-28,-5,-26,-9,24
82178727177,-3,-2,-2,-8,-3,0,3,4
82178727177,-3,-2,-2,-4,1,0,-5,-9
82178728787,0,1,-6,-27,-7,5,-3,-10
82178728787,-3,-3,-1,37,4,11,0,12
82178749614,-1,-3,-1,6,-5,-27,-5,-1
82178749614,3,-1,-3,-27,-3,15,8,7
82178751165,0,4,4,4,4,-6,-1,-6
82178751165,1,0,-2,-30,-9,9,2,-2
82178763915,-2,-3,-3,16,1,-1,-5,-3
82178763915,-3,-2,-1,14,-8,-10,-4,2
82178770811,2,-1,-2,4,-3,-11,-2,-10
82178770811,-1,0,-2,-7,-2,5,-7,-8
82178787207,-1,0,-1,13,6,5,6,-3
82178787207,2,-1,2,24,9,3,-4,2
82178788700,-2,-2,-3,-69,-9,0,1,3
82178788700,0,-2,-3,2,-2,-2,1,0
82178809526,-3,-3,-3,-10,-7,-5,-2,-7
82178809526,-1,-1,-3,17,4,-6,-4,-4
82178811192,-2,-2,-4,22,1,0,-1,5
82178811192,-2,-1,-3,-13,-3,-2,1,-3
82178824085,1,0,-2,-19,-5,5,4,1
82178824085,0,-2,-2,9,7,-4,-2,-6
82178838449,-1,-3,-5,-1,-11,-2,-2,-1
82178838449,0,-2,-2,-7,0,-6,-2,-3
82178847105,-1,-3,-1,15,-2,2,1,-1
82178847105,-2,-3,-6,-64,-8,-2,0,0
82178848671,-2,1,2,57,4,-3,-2,-2
82178848671,0,1,-1,-7,3,2,1,0
82178870976,2,0,0,-12,1,1,-4,0
82178870976,-1,-1,-2,5,-8,-6,-1,-4
82178872571,-2,-2,2,4,6,2,3,3
82178872571,2,1,-2,-23,-3,3,0,-3
82178883382,-4,-4,-2,27,3,-2,-2,-2
82178883382,-2,-1,-3,-22,-16,-4,-2,0
82178892246,-1,-1,-3,-4,-5,-3,0,-2
82178892246,-1,-2,4,32,12,2,0,1
82178907110,-2,0,0,-25,-3,0,0,-2
82178907110,-3,-1,-1,13,6,0,1,-3
82178908746,1,-3,0,15,0,0,-1,0
82178908746,-1,-2,-2,-19,-5,-2,0,-2
82178930194,-1,-1,-4,-18,-5,1,-2,1
82178930194,0,-3,-1,4,-4,-5,-2,-2
82178931654,0,1,0,8,7,3,-1,-2
82178931654,-2,-21,-3,7,-4,-3,-1,-1
82178943328,0,0,2,-10,-3,-1,-2,-1
82178943328,-1,2,3,11,3,1,2,-1
82178952237,-1,-3,-4,-41,-4,0,0,-2
82178952237,-1,3,1,24,6,-3,-3,0
82178967111,-1,-4,1,-19,-2,1,-1,-1
82178967111,2,-2,-1,-14,-2,1,-1,-2
82178968749,0,2,3,19,8,0,-3,2
82178968749,0,4,-1,-22,-10,-3,-1,-3
82178989641,14,-4,-4,17,-1,-2,-2,-2
82178989641,3,7,5,13,4,1,0,-1
82178991156,1,5,1,0,0,-1,-1,-2
82178991156,-9,-13,-3,8,-2,0,-1,-1
82179003697,-1,-2,-3,-15,-3,0,-2,-2
82179003697,-2,-4,-2,17,6,-3,-2,-1
82179012179,0,1,0,-20,-10,-2,-2,-1
82179012179,3,3,-1,14,1,0,0,-1
82179027402,-4,2,1,21,2,-1,0,0
82179027402,-4,-6,-3,1,1,0,-2,-1
82179030040,-5,-3,-2,-2,0,-1,0,-1
82179030040,0,7,3,6,-1,0,0,0
82179050047,-19,-1,-5,1,0,-3,-5,-5
82179050047,-3,2,-1,-10,-2,1,0,-1
82179053616,3,1,-4,-5,-5,-4,-1,0
82179053616,0,-2,-1,15,1,0,-1,-1
82179063224,-1,2,2,-1,2,0,1,-2
82179063224,-1,-2,-1,20,-1,-1,-1,0
82179072134,-2,-3,1,-45,-7,-2,0,-1
82179072134,-2,4,1,14,8,2,-1,-1
82179086990,0,-1,-2,-67,-15,0,-1,-1
82179086990,-2,-2,-1,18,-1,-3,-1,0
82179088711,-10,-10,-3,22,1,-2,-2,-3
82179088711,1,3,1,5,2,-1,-2,-1
82179109691,0,-2,-4,15,3,-1,-1,-1
82179109691,4,14,-1,-16,-5,0,-2,0
82179111210,-5,-8,-2,4,-2,-2,-1,-3
82179111210,-6,-19,-2,-10,-3,-2,-1,-1
82179123136,9,6,2,2,0,1,1,-1
82179123136,-1,-2,-4,4,-4,-5,-4,-2
82179139781,0,-2,0,15,4,0,-2,-1
82179139781,-2,4,-1,-14,-7,-1,0,-3
82179147079,0,-3,0,8,0,-1,0,1
82179147079,-4,-7,-1,-22,-3,0,-2,-1
82179148715,3,6,-1,0,-3,0,-1,0
82179148715,-1,0,-1,-5,2,-2,0,-2
82179169623,-3,-4,-3,-4,-4,-3,-3,0
82179169623,1,-2,-1,-6,-1,0,-1,-1
82179171300,-2,-2,-1,-1,-1,-2,-1,-1
82179171300,4,4,0,-2,1,-1,1,1
82179183197,-2,-5,-2,23,2,-4,-1,-3
82179183197,-5,-5,-4,-19,-6,-1,0,-2
82179192179,3,1,2,13,1,-1,-2,-1
82179192179,0,2,-2,-10,-2,-1,-2,-1
82179207289,0,2,0,0,0,0,-1,1
82179207289,-3,-4,-1,6,0,-1,-1,-1
82179208819,0,0,-2,7,5,0,-1,0
82179208819,5,5,-3,-13,-14,-3,0,-1
82179229590,-3,-3,1,13,3,-3,-1,-1
82179229590,0,-1,0,-2,0,-1,1,-1
82179231215,-3,-9,-2,1,-2,-1,-1,-2
82179231215,-3,-1,-1,0,1,-1,-3,0
82179243291,0,0,0,-2,-1,-1,0,-1
82179243291,-1,-4,-2,-2,-2,-1,-1,-1
82179252188,16,-2,-2,-6,0,-1,1,2
82179252188,0,6,3,6,1,-1,-1,0
82179267181,-3,-2,-1,-7,-3,-2,-4,-3
82179267181,-2,2,1,2,-1,-2,0,-2
82179268772,-1,-2,-1,-5,-3,0,-2,-2
82179268772,0,-3,-1,1,-1,-1,-2,-3
82179289597,-1,-1,-3,2,0,0,-1,-1
82179289597,1,-1,0,-2,1,0,-2,-2
82179291169,-5,1,-1,0,-1,-1,1,0
82179291169,-3,-4,-4,-1,-3,-1,-1,-2
82179303272,-3,0,-1,-5,-1,-2,-1,-1
82179303272,-3,-5,0,1,-1,-1,-2,-2
82179312166,-3,0,0,-6,-1,-1,-1,-2
82179312166,-1,-1,1,3,1,-1,0,-1
82179326568,1,-3,0,4,-2,0,-2,-1
82179326568,0,0,-1,-5,-2,-2,0,1
82179333208,-3,2,-1,1,-1,0,-2,0
82179333208,-1,-3,-1,1,1,-2,1,0
82179349556,0,-3,0,-2,-1,-2,2,0
82179349556,-1,-2,-1,-4,-3,-3,-1,-3
82179351143,-1,1,-2,-5,1,2,0,1
82179351143,-3,-3,-3,10,0,-2,-3,-3
82179363149,0,-2,-1,-5,-3,1,0,1
82179363149,-2,0,-1,-9,-2,1,-1,-2
82179372168,6,3,0,1,-2,-1,-2,-1
82179372168,9,11,6,-4,2,-1,-1,0
82179387033,0,1,4,12,-3,1,-2,-1
82179387033,3,6,-7,-5,-3,-2,-1,-1
82179388676,-6,-10,-2,-1,-2,-2,-2,-4
82179388676,-5,-7,-5,-4,-4,-2,-2,-3
82179409539,-2,-3,-1,-6,0,0,-2,-1
82179409539,0,5,4,4,3,0,-2,-1
82179411177,-3,-1,-1,0,-1,-2,-1,0
82179411177,-6,-3,-1,6,-2,-1,-1,-1
82179423236,-2,-2,0,-7,-1,-2,0,-4
82179423236,-2,-2,-2,4,-1,-1,-1,2
82179439663,-5,-22,-2,-4,-2,-1,-1,-2
82179439663,-2,-3,-3,2,1,-1,-2,0
82179446432,-1,2,-4,-7,0,-2,-1,-1
82179446432,9,1,2,9,2,-1,-1,-1
82179453185,0,6,1,-1,0,-2,0,-1
82179453185,1,3,-2,-6,-3,-1,-2,-1
82179469531,1,-4,0,5,0,-2,2,0
82179469531,-6,-6,-2,7,-2,0,0,-2
82179471193,-3,3,-1,-11,-1,-1,0,-2
82179471193,-25,-5,-3,4,-2,-3,-3,-5
82179483156,-10,-18,-7,-9,-2,-2,-3,-5
82179483156,-3,-5,-1,-1,-2,-2,0,1
82179492198,-3,4,1,6,0,0,-1,-2
82179492198,1,6,-1,-14,-1,1,0,0
82179506346,4,0,0,7,-1,-1,-2,0
82179506346,-3,0,-1,1,-1,0,0,-1
82179513165,1,-2,-2,-2,-1,-2,-2,-1
82179513165,3,2,-2,-3,-1,0,1,-2
82179529716,-1,1,-2,-3,0,-2,-1,3
82179529716,9,-2,1,-3,-1,-2,-1,-1
82179531209,-2,5,-3,-6,-2,-1,0,-1
82179531209,1,-4,0,7,-2,-1,-2,1
82179543539,-5,-1,-3,-15,-1,-1,-1,-3
82179543539,-2,-4,-3,14,2,-1,-2,-3
82179552246,-3,-3,-3,-3,-3,-1,-1,0
82179552246,2,-3,0,-3,-3,-2,-1,0
82179566499,-1,3,-1,0,-1,1,-1,0
82179566499,-7,0,-2,-6,-1,-2,-1,-2
82179573218,5,1,0,4,-1,-1,-1,0
82179573218,16,-8,-2,-6,0,-2,0,0
82179589640,2,8,2,10,-3,-1,1,1
82179589640,-1,9,1,-7,-1,-1,-1,-1
82179591221,-2,-10,-2,-1,-1,1,0,-2
82179591221,0,-5,-1,0,-1,-3,-1,0
82179603373,0,1,-1,-3,-1,-1,-1,-1
82179603373,-3,1,-1,-10,-4,-1,0,-1
82179612183,-2,1,1,2,0,-2,-1,0
82179612183,-2,1,0,3,0,0,-2,0
82179627129,-1,-4,-1,0,0,-1,0,-2
82179627129,-5,-6,-1,5,0,-1,-1,2
82179628708,-2,3,0,-4,-1,-2,-3,-4
82179628708,-5,-4,-2,-6,-3,-2,0,-2
82179649586,-8,-1,-4,1,1,-2,-3,-2
82179649586,-2,-6,-2,-4,-1,-1,-1,-3
82179651184,-1,-2,-1,2,-2,-1,0,-2
82179651184,-2,3,-1,-1,0,-3,0,-1
82179663125,0,-1,-3,-2,-2,-1,0,-2
82179663125,-3,-4,-1,-1,1,-1,-1,-2
82179672155,2,2,0,-1,-1,0,-1,0
82179672155,-5,-2,-2,1,-2,0,-1,-1
82179687244,0,-1,-1,0,-3,-1,-2,-1
82179687244,-1,-2,-2,-7,-2,2,0,0
82179688744,-2,1,-2,6,-1,0,-1,0
82179688744,-1,-1,-2,-2,-1,-2,-1,-2
82179709494,4,12,2,-2,0,-1,-1,-1
82179709494,-2,-18,-2,-1,0,-2,-1,0
82179711182,-3,-2,0,-4,-2,-2,-3,-1
82179711182,-1,0,-1,0,-1,-2,-3,-2
82179731810,-21,2,-1,-10,-2,0,-1,1
82179731810,-2,2,0,3,-2,0,-2,-1
82179738148,-3,-2,-4,5,-1,-1,-2,-2
82179738148,15,3,2,-1,1,0,-1,1
82179747176,3,-6,-1,1,-1,-1,1,-1
82179747176,2,3,1,-7,-2,0,0,-2
82179748803,-4,0,1,-4,-3,-1,0,-1
82179748803,-4,0,-2,0,-1,0,-1,0
82179769497,1,-6,-2,6,-1,-1,-2,-3
82179769497,0,3,0,2,-1,-1,-1,1
82179771113,0,1,0,-3,-2,0,-1,-2
82179771113,-5,7,-1,-2,-1,-2,0,-2
82179792353,4,-12,-1,-2,-1,-1,0,-2
82179792353,-2,-1,-1,6,-1,-2,-4,-2
82179793775,-2,1,-2,-2,0,-2,-3,-2
82179793775,-4,0,0,-1,-3,-1,-2,-1
82179807027,2,3,-1,-9,0,-3,-2,0
82179807027,-4,-1,0,2,0,-1,-2,-3
82179808683,1,-3,-1,-1,0,0,-1,2
82179808683,-2,-7,-2,0,-1,-2,-1,0
82179829589,2,0,-2,-1,-2,-1,-1,-1
82179829589,-1,-3,-1,-2,-1,-1,-1,-2
82179831156,-2,3,-1,-4,0,-3,0,-4
82179831156,-2,-3,-1,-3,-2,0,-1,-1
82179852046,0,-3,-1,4,0,1,-2,0
82179852046,1,3,-2,-13,-3,-1,0,0
82179853728,-2,-3,0,3,-1,0,-2,-3
82179853728,10,-7,-3,-6,-3,-1,-2,-1
82179866391,3,5,3,15,-1,-3,0,2
82179866391,-2,-17,-4,-10,-1,-1,0,-1
82179873135,1,1,0,-3,-1,-3,0,-2
82179873135,-1,-4,0,-1,0,0,-2,-1
82179889557,-4,-5,-3,-11,-2,0,-1,-3
82179889557,4,6,0,5,-1,-1,-1,0
82179891115,-3,-2,0,3,-1,-1,1,1
82179891115,-4,-2,-1,-4,-3,-2,0,-2
82179912040,5,16,-1,4,-1,-2,-1,2
82179912040,-3,-1,0,5,0,-2,-1,-2
82179913644,0,-2,-1,-9,-1,-1,-1,-1
82179913644,-5,1,0,7,2,0,-1,-1
82179926395,1,0,-3,-13,-4,-1,-1,-2
82179926395,2,0,-3,-1,0,-1,-2,-3
82179933150,1,-1,1,-1,-1,1,-2,4
82179933150,-4,-2,-2,4,-2,-1,-2,0
82179949542,-6,-6,-1,-7,-2,0,-1,-2
82179949542,-1,3,0,0,-1,-1,-1,-3
82179951109,-3,-1,-2,0,0,-2,-2,-2
82179951109,-2,1,-1,-5,0,-1,0,-1
82179972055,-2,-4,-2,0,0,0,-2,-1
82179972055,0,2,0,1,-1,0,0,0
82179973640,0,1,-3,-5,-1,-2,0,-1
82179973640,-2,-3,-2,-3,-1,-1,-1,-2
82179986365,-2,-5,-1,4,-1,-1,-4,-3
82179986365,-3,0,-3,-13,-5,-2,1,-1
82179993152,-1,0,-1,5,-4,-1,-1,-1
82179993152,-2,-1,0,1,0,0,-1,-1
82180009537,-2,-3,-2,-1,-2,-2,1,-2
82180009537,-1,0,-2,-1,-2,-1,-1,0
82180011198,0,1,5,-2,1,-2,-1,-1
82180011198,-2,0,-4,3,-1,-1,-1,1
82180032021,-1,-3,-5,-6,-1,-2,-2,0
82180032021,-1,-3,-1,-8,-1,0,1,-1
82180033686,0,-2,-5,0,-2,-1,-1,-1
82180033686,-2,-2,0,-1,-2,-2,-1,1
82180046345,-1,-3,3,8,0,-1,1,1
82180046345,0,1,2,2,0,0,-1,0
82180061452,-4,-3,-6,-5,-4,-2,-3,-4
82180061452,-2,0,-2,-6,-1,2,-2,-2
82180069509,0,-2,-3,-2,-3,-1,-2,-1
82180069509,0,0,0,1,-2,-3,0,1
82180071152,3,1,1,2,0,-1,-2,-3
82180071152,0,-2,-1,-3,-1,-3,0,-2
82180092294,-1,-3,-1,0,-1,-2,-1,1
82180092294,-1,2,1,6,1,-2,0,-1
82180093745,-3,-4,-1,-2,-1,-1,0,0
82180093745,-5,-19,-2,-4,-2,-3,-2,-1
82180106426,-2,1,-1,4,0,-1,-2,-3
82180106426,-8,-3,-4,-11,-2,-1,-3,-1
82180113257,4,2,-1,3,1,0,1,0
82180113257,-1,4,2,5,1,-1,-2,-3
82180129540,-1,0,-1,0,0,-1,0,-1
82180129540,-5,-5,-6,-19,-6,-4,-3,-1
82180131256,-3,1,-1,-11,-3,-3,1,-1
82180131256,0,1,2,11,0,0,1,2
82180152125,2,0,-1,18,2,-1,-2,-1
82180152125,3,2,0,5,1,0,-1,-2
82180153748,-1,-2,-1,-4,-1,0,-1,0
82180153748,0,2,-1,-11,-4,-1,-2,-2
82180166487,-2,-3,-1,-8,-1,-2,0,-2
82180166487,0,0,-1,4,-1,-1,0,0
82180173185,-2,-2,-1,-2,-1,0,-2,-1
82180173185,-3,-1,-2,-2,0,-1,0,1
82180189631,-1,0,0,-4,-1,-1,0,-3
82180189631,1,1,1,-2,-1,-1,-2,-1
82180191194,-2,-1,-1,6,-1,-1,0,-4
82180191194,0,2,-2,1,-2,-1,-2,0
82180212267,-3,-5,-1,-5,-2,0,-3,-1
82180212267,2,1,0,2,-1,-1,-1,-1
82180213808,-4,-3,-2,-1,-1,-1,-2,-2
82180213808,-2,-1,-2,-3,0,-1,0,-3
82180225710,-3,-4,-1,-5,-1,0,-2,0
82180225710,0,-1,0,4,-1,1,-2,-1
82180234731,-2,-3,-1,-1,-2,-2,-3,0
82180234731,-1,0,-3,-3,-1,-1,-1,-1
82180256982,1,0,-1,-7,-2,-2,0,0
82180256982,-1,-1,-2,0,-1,-1,0,0
82180258582,0,0,-2,1,1,0,-1,0
82180258582,0,-1,-2,-1,0,-2,0,-1
82180272075,-1,-2,-1,2,1,1,0,-2
82180272075,-1,-2,-1,1,-1,-1,-2,-2
82180273644,2,0,-1,1,-1,-1,0,0
82180273644,-3,-1,-1,-2,-3,-4,-2,0
82180285894,3,17,2,2,0,-2,-1,0
82180285894,-1,-5,-2,-3,0,-1,-1,-1
82180294754,-3,-4,0,-2,-2,0,1,-3
82180294754,1,1,-1,-3,0,-1,0,0
82180309835,-2,0,-2,-2,-3,0,-2,-1
82180309835,-1,0,0,0,1,0,-2,-4
82180311185,-16,-6,-5,0,-2,-2,-1,-1
82180311185,0,1,0,0,0,-1,0,-2
82180331997,-3,-4,-1,-7,-1,-3,-1,0
82180331997,-2,-3,0,1,0,0,1,-1
82180333621,0,-3,-2,-4,-1,-1,-3,-2
82180333621,-1,-2,0,-1,-1,-1,-2,-2
82180345731,-1,-3,-1,-2,-2,-2,-1,1
82180345731,-2,-3,-2,-1,1,-1,-2,1
82180354716,4,3,-1,0,0,-2,-1,-1
82180354716,0,-1,0,-2,-4,-1,-1,-1
82180369582,0,-3,-1,0,-1,0,-1,-2
82180369582,0,1,0,-1,-1,-1,-1,-1
82180371122,1,1,0,5,-1,-1,1,-1
82180371122,-1,-2,-3,-6,-2,-2,-1,-1
82180392045,-3,-6,-2,-5,-1,0,-1,-2
82180392045,2,1,0,1,-3,-2,-1,0
82180393714,1,-1,-1,-2,-1,0,-2,0
82180393714,-2,2,-1,1,-1,-2,-3,-3
82180405992,-1,1,-3,-1,-1,0,1,1
82180405992,-3,-1,-2,1,-2,-1,-1,1
82180414783,2,1,-1,-3,-2,-1,-2,-2
82180414783,0,5,0,0,1,1,1,-1
82180429495,-5,-25,-2,2,-1,-2,-2,-5
82180429495,0,0,-1,-1,-1,0,-1,-1
82180431122,-2,-1,-2,-4,-1,-2,-1,-1
82180431122,1,-1,-1,-2,0,-2,-1,-1
82180452121,-1,6,-1,-2,-2,0,-1,-4
82180452121,-3,-3,-1,1,0,-1,-1,-2
82180453691,-3,-4,-3,-4,-2,-1,0,0
82180453691,-1,-3,2,4,-1,-1,0,-1
82180465781,3,3,-1,-14,-3,-1,-1,1
82180465781,-3,-2,0,20,2,0,-2,-2
82180474776,-1,3,0,-3,-1,-1,-2,-1
82180474776,-1,-4,-2,-1,0,-1,-3,0
82180489760,-1,-1,-1,-4,0,-2,-2,2
82180489760,0,0,-1,-9,-3,-2,0,-1
82180491200,0,-2,0,-1,-3,-2,-1,-1
82180491200,-2,-4,1,-1,-2,-1,1,0
82180512174,1,1,-4,1,0,-2,0,1
82180512174,-2,0,-3,-6,0,-1,-2,-1
82180513731,-1,-2,0,-1,0,-1,-1,-1
82180513731,-3,-3,-1,-3,-2,-1,-2,2
82180525705,0,2,0,0,-3,-3,-1,-1
82180525705,-1,-2,0,1,-1,-2,0,0
82180534737,-2,-1,-2,0,-1,2,-2,0
82180534737,-1,-1,-1,-2,-1,0,-1,-2
82180549532,-3,-2,0,0,-1,-1,-1,1
82180549532,0,-1,-1,-2,0,-1,0,-1
82180551166,-1,-2,-3,-4,-2,-1,-1,-1
82180551166,-2,-1,0,0,-1,-1,0,-2
82180572048,-1,-2,-1,5,-1,1,-1,-2
82180572048,1,13,1,-5,-3,-2,-1,-1
82180573612,-1,-8,0,2,-1,-2,-1,0
82180573612,-1,0,-4,-9,-1,0,-2,-1
82180585706,-1,1,-1,4,-1,-1,-1,-2
82180585706,-2,4,-3,-2,-4,-2,-2,-1
82180594697,2,3,-2,3,-1,-2,-1,-1
82180594697,-2,-3,-2,-5,-2,-2,1,-3
82180609555,-1,-4,0,1,-1,-1,-1,-2
82180609555,0,-6,-3,0,-3,-1,-1,-1
82180611138,-2,1,-2,-2,-2,-2,0,0
82180611138,-1,-3,-1,0,0,-2,-1,-4
82180632123,-2,-2,-1,-3,-1,0,0,4
82180632123,-4,-8,-2,-2,0,0,-2,-1
82180633640,1,1,0,-1,0,-1,-1,-2
82180633640,0,1,0,0,-1,0,-1,0
82180654534,-2,0,-1,0,-1,-2,-1,0
82180654534,-2,-4,-1,-7,-2,-2,0,-1
82180656111,-2,-1,-1,-1,-1,1,-1,0
82180656111,0,0,-1,2,1,0,0,1
82180669536,-2,-2,-4,-1,-1,-1,-1,-3
82180669536,-1,-2,-1,0,-1,-1,-1,0
82180671182,-1,1,0,-9,0,-1,-2,-4
82180671182,1,-2,-1,7,-3,-1,-1,0
82180692229,-1,-2,0,9,0,0,-2,-4
82180692229,0,0,1,-5,-1,0,-2,-1
82180693610,-2,-2,-2,-2,0,0,-1,-1
82180693610,-1,0,-1,-6,-2,0,-2,0
82180714554,-2,-3,-1,-5,-2,-1,0,-1
82180714554,-1,-1,-2,0,1,-1,-1,0
82180716137,-2,-2,0,6,-2,-1,-1,-2
82180716137,-2,-1,-2,-7,0,-3,-1,-3
82180729514,-1,-1,-2,6,0,-1,-2,-3
82180729514,-3,-1,1,-2,-1,0,0,1
82180731190,-1,-1,-1,3,0,0,-2,0
82180731190,-2,-1,0,2,-1,-1,0,1
82180752014,0,1,1,-1,-2,0,0,-2
82180752014,-3,-3,-2,-5,-1,-1,-1,-2
82180753564,1,-1,0,0,-1,-3,-1,-1
82180753564,-1,-2,-1,1,-1,0,-2,-1
82180781998,-2,-1,-1,-8,0,-1,-2,-3
82180781998,0,-2,-2,8,-1,-1,0,-2
82180783703,-3,-2,-1,-4,-2,-2,-1,0
82180783703,-1,0,-2,0,-1,0,-2,-2
82180789085,1,0,-1,-2,-1,-2,1,1
82180789085,2,16,1,-1,-3,-2,-1,-1
82180795765,-1,-3,-3,-1,-1,-1,0,-2
82180795765,0,-1,0,3,-1,-3,0,-3
82180812183,-2,0,-1,-4,0,-1,-1,-1
82180812183,0,0,1,-1,-3,-1,-1,-1
82180813649,-2,0,-2,-3,-1,-2,1,0
82180813649,-2,-2,-1,-1,-1,-2,-2,0
82180834891,1,0,-1,1,0,-1,0,-2
82180834891,-3,-7,-3,-9,-1,0,-2,-3
82180836228,0,-1,-2,-3,-4,-1,-2,0
82180836228,-1,-5,-3,9,-1,-1,-2,-1
82180848913,4,5,-1,-7,-4,-3,-1,1
82180848913,-2,-7,-2,-4,-2,-1,-1,-2
82180855902,-1,-1,-2,-5,-1,0,-1,-2
82180855902,-1,2,-1,-7,-1,-1,-4,0
82180872053,-2,-2,1,11,1,-1,0,-1
82180872053,0,-4,-4,-8,-3,-2,-1,-1
82180873711,-2,1,-1,-3,0,-1,0,0
82180873711,-1,-1,-2,-6,-3,0,0,-2
82180894535,-1,-2,-1,-3,-1,0,-2,-1
82180894535,-1,-3,0,3,0,-3,0,-2
82180896127,-2,-2,1,2,0,-2,-1,-1
82180896127,-3,-2,-3,-2,0,-1,-1,0
82180909075,0,-2,-1,-1,-1,-2,-2,-2
82180909075,0,-1,-2,0,-1,0,-2,-1
82180915828,-1,-1,-1,3,0,-1,-2,-2
82180915828,-1,0,0,3,-1,-2,-2,2
82180932018,-1,0,-2,-5,-1,-1,-1,-1
82180932018,0,-3,-1,2,-1,-1,0,-1
82180933690,0,-2,1,2,0,-2,0,0
82180933690,-1,0,-1,4,-1,0,0,-2
82180954579,-2,-3,-1,-7,-2,0,-1,0
82180954579,-2,-4,-1,6,0,-2,-2,0
82180956174,-1,0,-2,-3,-3,-1,-2,-5
82180956174,1,0,-2,1,-1,-1,-1,-1
82180968894,-1,-1,0,1,0,-1,0,-1
82180968894,-2,-1,-1,3,0,-1,0,0
82180975729,-2,-2,-1,-10,-3,-2,-1,0
82180975729,-3,-2,-1,0,-1,-2,-3,-2
82180992065,1,-1,-1,-3,-2,1,-1,1
82180992065,0,-1,-1,-4,-1,0,-3,2
82180993691,-1,-2,-2,1,0,0,0,0
82180993691,-2,-3,-1,-9,0,-3,1,-3
82181015125,-1,-2,-2,8,-1,-3,0,-1
82181015125,0,-2,0,-12,-1,-2,-1,0
82181016834,-1,-1,-2,14,-1,-2,-1,-4
82181016834,-2,-1,-1,-9,-2,0,0,2
82181028831,-2,-2,-1,7,-2,-1,-1,-2
82181028831,1,-2,0,-2,1,-1,-1,-1
82181035705,0,-1,-3,-5,0,-1,-1,1
82181035705,1,-1,-1,-4,-2,-1,-2,-2
82181051939,-2,0,0,-4,-1,0,0,-3
82181051939,-3,-3,-1,2,-1,-1,1,1
82181053607,-2,1,-1,-6,-3,-2,-2,-3
82181053607,1,1,0,2,-1,0,-1,2
82181081986,0,-1,-1,-1,-1,-1,-2,-1
82181081986,-2,0,-2,2,1,-1,-1,-2
82181083633,-2,-2,-1,0,-1,0,-1,-1
82181083633,0,-1,-1,6,0,-1,1,-1
82181088813,-1,-2,-2,-10,-2,-1,-1,0
82181088813,0,1,-2,1,-1,-1,-2,0
82181095689,0,-1,0,-3,2,-1,-1,1
82181095689,-2,-1,-2,1,-1,-1,-2,-2
82181112008,-2,-3,1,1,0,0,0,0
82181112008,-1,0,-1,-8,-1,0,-1,-2
82181113598,-1,-2,-3,2,0,-2,-2,4
82181113598,1,-1,-1,-1,-1,-2,-2,-2
82181134763,-1,-2,-2,-4,-1,0,0,-2
82181134763,-2,-1,0,2,-2,-2,-1,0
82181136211,0,0,0,-5,-2,-2,-1,-2
82181136211,-2,-2,-1,2,-2,-1,0,-1
82181148181,0,0,-1,6,0,-2,-1,-1
82181148181,1,-1,0,2,-3,-1,-1,-2
82181157219,-1,-1,-2,3,0,-1,-1,-2
82181157219,0,-1,-1,-3,-1,-1,0,-1
82181172153,-1,-2,-2,-6,0,1,0,0
82181172153,2,1,-1,5,-1,-2,-1,-1
82181173674,-1,-2,0,0,-1,0,-1,-2
82181173674,-1,-2,0,-3,-1,0,-1,-3
82181194591,-1,-2,-1,-4,-1,-2,0,1
82181194591,-2,-2,1,2,1,0,-1,-1
82181196122,1,-1,-4,-10,-3,-1,1,-1
82181196122,-1,0,0,-4,-1,-1,-2,-1
82181208404,-2,0,-3,1,-1,-2,-3,-1
82181208404,-1,-1,-1,3,-2,0,-1,-1
