timestamp,emg1,emg2,emg3,emg4,emg5,emg6,emg7,emg8
86059443620,10,2,0,0,0,0,-2,-8
86059443620,-11,1,0,-3,0,-2,0,0
86059444384,5,0,0,0,-1,-1,-1,-1
86059444384,-13,-1,-2,-1,-2,-2,-1,-8
86059458621,6,-7,-2,-2,-3,-1,-1,0
86059458621,13,-2,-3,-1,-1,-1,0,2
86059459335,-8,-2,-1,-1,0,0,-2,-9
86059459335,-2,-5,-1,0,1,-1,-1,23
86059481096,1,-2,-3,0,-1,-1,2,-8
86059481096,5,1,1,-3,0,-1,1,1
86059481894,1,-2,-1,-2,-1,-2,-2,0
86059481894,24,14,-1,-1,-2,-1,-1,2
86059503631,-22,-15,-1,1,-1,0,-4,-10
86059503631,-4,-1,0,0,-3,0,2,2
86059504390,2,-2,-1,-2,-1,0,0,0
86059504390,-5,-2,0,0,-2,-1,-1,-10
86059518554,-14,-2,-3,-3,-1,-2,-2,2
86059518554,5,4,0,-2,-1,-1,-1,-7
86059519334,-1,-6,-2,0,-2,-2,0,-2
86059519334,10,0,0,-2,0,0,1,-4
86059541102,-17,1,0,-3,-1,-1,-2,-3
86059541102,-10,-4,-2,-2,-1,-1,-2,1
86059541929,2,-1,-1,-1,-2,1,-2,1
86059541929,0,-3,-2,0,-1,-1,-1,-7
86059563600,2,0,-1,0,-2,-1,0,0
86059563600,5,2,-1,-2,-2,0,-4,0
86059564416,-2,0,0,-2,-2,0,-2,-1
86059564416,-13,-6,-1,-2,0,-2,1,-15
86059578168,-7,-2,-2,-1,0,0,-3,0
86059578168,1,0,0,0,-2,-1,0,0
86059586139,2,-2,-3,0,-1,-1,2,1
86059586139,-13,-22,-3,-3,-1,-2,-5,5
86059601333,11,4,0,0,2,-1,1,1
86059601333,0,0,-1,0,1,-1,-2,-7
86059601954,-5,-3,1,0,0,0,-2,-1
86059601954,-1,7,-1,-1,-2,-3,-1,-4
86059623572,19,1,-1,0,-1,-1,-1,5
86059623572,-12,-4,-2,1,-1,-2,-3,-1
86059624419,2,2,1,-2,0,0,-1,-3
86059624419,-7,2,0,1,-2,-1,-2,-3
86059637937,-13,-5,-2,-3,-3,-2,-1,-3
86059637937,7,3,1,0,-1,-1,-1,0
86059646080,-4,-5,-5,-2,-2,-2,-2,-3
86059646080,2,1,2,0,-1,0,-1,0
86059661160,-1,-1,-1,-2,1,0,-1,-4
86059661160,-9,-5,-1,2,1,0,1,0
86059662031,-1,-2,-3,0,-1,0,0,-2
86059662031,-3,-3,-2,-3,0,-1,0,0
86059683585,0,2,0,-2,-1,1,0,0
86059683585,1,0,1,-2,-3,-10,-3,-1
86059684371,1,-1,-2,0,-1,-8,-2,0
86059684371,-2,1,-2,2,4,6,-1,3
86059698183,1,1,11,1,5,3,0,1
86059698183,2,-6,-2,27,2,5,0,0
86059706119,-4,-3,-3,-21,-7,-3,-1,-2
86059706119,0,-3,2,-11,-3,-5,0,-3
86059721113,-3,0,-12,9,-7,-7,-1,5
86059721113,1,2,9,26,11,3,4,-18
86059721884,0,2,6,-7,7,11,1,-1
86059721884,-3,-2,17,0,-3,0,-4,-1
86059743540,-2,-4,7,-24,-7,-13,-5,-3
86059743540,-1,0,-3,-8,-7,0,-4,6
86059744432,-1,0,1,40,5,0,4,0
86059744432,2,3,-5,21,13,10,4,-6
86059757954,-2,-3,-5,-59,-18,-10,-2,3
86059757954,-4,-3,-10,1,-4,-2,-7,-3
86059766144,4,0,4,3,-5,-22,-4,8
86059766144,-7,-3,-7,4,5,21,-2,-10
86059781089,-5,-2,-12,-35,-2,-17,-8,-2
86059781089,9,-3,-5,-12,-7,6,8,2
86059781849,-7,-2,-6,-18,1,27,0,7
86059781849,17,14,2,24,-5,-29,7,17
86059803583,-2,-3,1,27,6,19,-9,-3
86059803583,-37,-5,-5,-30,-8,-22,4,-36
86059804407,5,-9,-2,16,3,6,-2,-18
86059804407,-9,-6,-7,-23,-6,-21,-9,13
86059819431,26,2,0,11,6,17,11,-5
86059819431,-5,8,3,3,7,19,-8,21
86059826136,-4,1,-1,-4,-4,-14,-4,-35
86059826136,-14,-11,-8,-7,-8,10,-3,-22
86059841341,7,2,-2,4,-1,-23,5,49
86059841341,11,2,2,7,-3,0,-4,-15
86059841942,-16,-2,-3,-7,3,35,-7,15
86059841942,11,-2,-2,-9,1,-67,3,21
86059863823,-8,3,0,23,5,26,-5,-40
86059863823,17,-1,2,-4,-4,-5,-7,-3
86059864471,20,10,4,-3,15,36,32,83
86059864471,-5,3,-2,0,-3,-16,-16,-26
86059887006,-2,-2,-1,9,-7,8,-21,-6
86059887006,-6,-8,-9,-10,-9,-50,21,-97
86059887582,4,3,-3,-3,-3,43,6,8
86059887582,-9,-3,0,1,12,-5,2,-3
86059901188,-14,-13,-6,3,-13,-8,-18,-16
86059901188,7,9,-2,-10,-3,21,-6,-2
86059901934,-10,-9,-6,-1,-19,-52,-13,-30
86059901934,-7,0,3,-2,22,48,5,-6
86059923790,-3,-2,-3,4,8,-9,11,16
86059923790,6,-1,11,1,-1,22,-9,9
86059924459,-6,-3,-19,-12,-27,-55,-12,-16
86059924459,4,-1,1,2,0,13,6,-7
86059947067,2,4,0,2,5,24,-6,50
86059947067,1,3,-1,-1,-5,-20,24,61
86059947624,4,-20,7,2,-1,2,-2,-9
86059947624,-5,-8,-24,-17,-23,-29,-20,8
86059961229,-3,-2,0,14,19,36,6,-3
86059961229,-3,1,2,-8,-12,-19,-20,-24
86059961932,20,9,-5,-3,13,5,37,44
86059961932,-2,-4,12,5,-3,50,1,33
86059983839,-5,-5,2,3,13,-40,-14,-31
86059983839,-9,-2,-9,-14,3,-9,-20,-13
86059984472,-1,-3,-1,-9,-26,-39,-15,-21
86059984472,28,8,8,6,-2,10,-12,-5
86060006731,6,-4,0,5,8,5,38,10
86060006731,2,-3,-1,4,6,22,-12,-23
86060007548,-25,2,-1,-6,1,8,-22,-31
86060007548,-5,4,-1,4,4,3,38,14
86060021119,3,-5,2,0,-23,-6,-8,39
86060021119,-3,-6,-13,-5,3,-47,5,27
86060021921,-1,-5,-4,1,5,-21,-14,8
86060021921,-33,-10,-3,-5,-15,22,10,-22
86060043663,6,8,7,10,20,16,0,30
86060043663,-1,-3,1,-2,-4,0,-9,1
86060044420,-1,9,2,10,15,-10,20,3
86060044420,16,0,0,-10,-1,-9,-6,-9
86060067019,-3,4,1,-12,-13,-11,-3,-28
86060067019,-11,-2,-3,-6,-18,29,-2,-9
86060067665,-2,-1,4,2,11,7,5,-14
86060067665,-5,-2,0,-4,-7,-21,-35,-7
86060081341,-12,-8,-12,-8,-4,5,28,-8
86060081341,1,4,7,26,25,-15,0,13
86060081954,-3,-2,0,-23,-25,-5,-36,-3
86060081954,-4,-3,-2,-2,8,-3,21,20
86060103623,-8,0,-3,3,-1,3,-16,-19
86060103623,-5,-2,-2,-1,4,30,9,15
86060104458,-5,-3,-9,-45,7,0,-13,-15
86060104458,-15,-3,-8,19,-22,-40,-9,0
86060126789,4,-2,5,5,2,-13,13,-15
86060126789,10,-3,-4,9,2,-2,-7,-12
86060127591,10,-4,-23,-2,9,33,23,-4
86060127591,12,0,3,31,0,-15,-19,-17
86060141096,-5,2,-4,-84,-30,-26,-17,-34
86060141096,5,1,1,9,27,37,15,37
86060141860,-6,0,13,12,-5,-20,1,-18
86060141860,-4,-1,-6,-4,3,15,4,-21
86060163586,-7,-1,-4,-36,-6,-1,-2,-12
86060163586,3,3,10,-44,3,11,-1,10
86060164356,-4,-3,3,43,-14,-10,-9,-5
86060164356,-8,-1,10,-12,2,33,1,-43
86060186788,-2,2,2,-5,-22,-42,-15,-9
86060186788,1,-5,-5,-6,17,37,14,8
86060187604,-2,1,4,8,4,-22,9,-4
86060187604,2,-1,15,9,-12,-20,-24,-8
86060201119,-3,-5,8,2,6,60,25,-11
86060201119,-1,1,22,8,-24,-50,-6,-9
86060201912,2,0,19,24,12,-1,-6,0
86060201912,4,-2,-19,-32,23,31,25,17
86060223558,0,-1,6,7,3,19,31,1
86060223558,-2,-4,-8,-17,-21,-26,-18,5
86060224417,2,2,7,9,6,-1,3,13
86060224417,-1,-2,3,-3,-7,-2,3,-1
86060246758,14,-3,3,16,10,-6,-6,24
86060246758,-6,-1,-4,15,-11,17,-1,-4
86060247542,-1,-2,-17,-1,-4,-19,-7,-7
86060247542,-7,-7,-20,-32,-12,-15,-14,-44
86060261113,-4,3,-15,16,-1,-23,2,-3
86060261113,-14,-1,-24,17,4,-3,-15,-34
86060261877,-11,-6,-15,-16,-3,19,-12,-33
86060261877,3,12,14,-1,-10,9,20,28
86060283624,4,6,-7,29,5,-38,-5,6
86060283624,-18,-6,-14,-2,10,20,18,-23
86060284376,33,-3,2,-18,4,4,-10,41
86060284376,4,-3,-30,1,2,6,5,2
86060306827,18,5,-6,2,-5,3,0,66
86060306827,0,0,20,2,5,-5,-9,23
86060307555,0,6,14,-6,-1,17,25,-19
86060307555,5,-3,15,4,5,5,-19,-19
86060321104,2,-6,6,6,-9,-16,-25,-86
86060321104,27,4,-9,-3,-5,8,37,18
86060321906,-16,3,-25,-5,-20,1,1,1
86060321906,3,0,2,4,22,7,5,-3
86060343595,-7,-9,-6,6,16,14,-10,-47
86060343595,-43,-11,-17,-3,-2,-28,-12,-71
86060344454,-7,4,-4,2,5,3,7,59
86060344454,29,-19,-2,-2,-16,-10,16,32
86060366770,-47,17,7,-2,-2,9,-10,36
86060366770,59,5,-25,5,10,0,18,22
86060367552,36,-9,23,-1,2,3,-24,-26
86060367552,5,9,24,-3,1,15,79,70
86060381100,-37,1,-23,10,5,-8,-58,-87
86060381100,2,-9,-2,-2,-4,-13,15,11
86060381885,-109,-5,-9,-4,-6,8,-37,-107
86060381885,18,12,-21,6,24,26,21,7
86060403587,-18,-16,-66,-4,-2,-10,3,10
86060403587,-16,12,57,-6,-12,-4,-12,55
86060404376,1,-12,-18,-8,-15,-34,4,-13
86060404376,-99,-12,-23,9,11,-15,-39,-128
86060426787,57,5,43,6,9,62,77,127
86060426787,27,14,-17,-2,-5,-58,-19,-98
86060427581,-51,5,-35,5,9,7,-36,30
86060427581,28,9,33,-13,-18,3,-31,26
86060441140,31,11,24,11,4,-15,-12,46
86060441140,-5,-30,-11,-6,-2,19,13,-6
86060441903,-26,-26,50,-11,-6,-6,-14,44
86060441903,4,8,-28,-1,-3,-6,18,-61
86060463599,16,-2,35,-3,1,-5,12,9
86060463599,-12,11,15,-1,-13,5,-5,-12
86060464431,-15,-5,-30,-2,10,-5,-26,-49
86060464431,50,-5,2,2,-1,-9,10,49
86060486781,-11,-11,2,-4,-8,-2,-1,-73
86060486781,-47,-20,4,-6,-3,22,38,85
86060487582,79,17,20,3,-20,-24,12,46
86060487582,-9,13,11,6,8,-27,9,-95
86060500416,51,16,61,7,3,0,43,53
86060500416,62,-7,7,-2,20,16,-14,90
86060508573,-6,15,59,2,1,19,0,-84
86060508573,15,-20,27,-8,-12,8,48,-49
86060523567,38,-13,10,-4,-11,-29,-23,-39
86060523567,-111,-10,17,7,1,8,-14,-128
86060524383,-2,-1,-38,-3,3,29,127,16
86060524383,-17,-3,-30,0,-10,-26,-104,-121
86060546804,-94,-15,-34,-12,-11,-17,-17,-65
86060546804,-28,16,-63,0,-4,12,-78,-122
86060547577,-60,-10,-117,-7,-5,-27,-118,-128
86060547577,2,1,-103,-1,-4,-8,15,61
86060569272,23,8,-85,-1,-8,0,8,-103
86060569272,76,1,0,-3,-3,0,-23,23
86060570059,40,-11,-26,-1,-7,-34,1,-88
86060570059,-35,10,8,7,14,-3,53,7
86060583588,-34,-6,-16,0,12,28,-58,-68
86060583588,-55,-2,-43,-3,1,-17,-64,-72
86060584392,95,-8,-9,1,-2,0,64,103
86060584392,-11,-13,-3,-1,13,17,-35,-53
86060606838,-35,-14,-11,-10,10,4,28,-35
86060606838,-58,-2,57,2,-10,-23,-34,-99
86060607631,32,2,44,3,6,19,-3,29
86060607631,-1,-6,38,-6,-18,-47,-102,63
86060620412,-34,4,19,7,4,13,62,22
86060620412,-13,10,57,1,7,25,-36,-37
86060628603,1,-8,94,-6,-8,5,68,18
86060628603,36,7,26,11,5,-22,-33,18
86060645029,-7,-10,-18,-4,5,30,-21,-24
86060645029,39,3,11,0,2,-3,94,53
86060645837,-2,13,-34,33,16,26,-31,-37
86060645837,-37,-4,-2,-55,-28,8,-52,-83
86060666912,16,11,-43,-15,7,-14,19,5
86060666912,14,-6,-57,3,-1,7,48,83
86060667630,3,3,-69,21,1,-23,-12,-3
86060667630,-6,-2,-15,17,-3,12,-5,30
86060680481,-8,-5,16,4,-20,-9,-44,-104
86060680481,26,1,-8,-6,-6,53,26,17
86060688569,-14,3,11,-5,-12,-73,-30,-19
86060688569,-1,-1,-2,14,18,17,51,-35
86060703818,17,-6,-11,-7,2,18,-19,-6
86060703818,8,10,-29,4,-1,-16,14,20
86060704425,-29,1,0,-8,-6,12,-21,-45
86060704425,18,-6,-19,-9,-9,8,25,32
86060727035,33,10,-18,8,-3,-38,-9,35
86060727035,7,1,4,-1,-2,-11,-11,-33
86060727623,37,-2,32,-13,8,33,10,79
86060727623,-15,-8,28,-7,-3,-9,9,-17
86060740588,-15,-1,25,2,-8,2,-18,-33
86060740588,-3,-6,14,-2,-5,-9,-11,-22
86060748893,40,5,12,-6,15,-3,83,77
86060748893,-9,-3,-2,5,2,21,11,-39
86060763822,5,1,23,4,-3,-2,-2,0
86060763822,6,0,15,-10,-17,-13,-5,-17
86060764388,-27,-8,18,4,2,20,-8,-21
86060764388,-2,3,2,3,13,26,-15,4
86060786983,-5,-4,12,2,3,-26,29,21
86060786983,1,-4,-2,2,7,11,-6,19
86060787670,-19,-1,-4,-13,-10,17,-29,-33
86060787670,3,1,10,-1,-22,-54,3,20
86060800511,-6,9,3,8,4,9,-25,-6
86060800511,-4,-9,-10,-2,-3,-20,18,-14
86060808588,-4,3,13,3,13,18,-6,11
86060808588,0,-6,-14,1,-3,16,13,16
86060823590,-4,0,-1,-4,-6,-13,-9,11
86060823590,7,1,3,-2,-5,-16,-3,15
86060824383,-14,4,9,0,-1,10,8,-26
86060824383,-6,-3,-1,7,11,4,-16,13
86060846867,8,-1,-2,-4,-11,-4,16,7
86060846867,3,1,-5,-5,-7,7,3,-5
86060847621,-8,-2,-2,-1,1,-7,-21,-29
86060847621,-4,5,1,2,2,-20,-10,11
86060869523,-9,-7,-2,-2,0,5,-10,-72
86060869523,10,1,1,-6,-6,-3,28,71
86060870197,-6,1,-1,1,3,9,-9,-16
86060870197,7,-2,0,-2,-7,-6,-2,-12
86060883774,2,-4,1,-2,-3,19,13,44
86060883774,0,2,0,3,7,-30,-8,-12
86060884436,-5,-4,-6,-6,-4,-4,-19,-14
86060884436,-10,-8,-4,-1,-3,9,5,-52
86060906992,2,0,-1,-1,-3,-7,-17,-31
86060906992,-2,-1,-5,-2,3,14,9,-28
86060907601,-1,-5,-7,-4,-14,30,-16,17
86060907601,-24,8,4,3,-2,-65,-10,-29
86060929513,27,5,2,-1,7,-1,-12,22
86060929513,0,-3,1,14,6,13,5,-1
86060930169,-14,-2,-8,-14,-11,-8,-6,-43
86060930169,-1,5,-1,-6,-1,23,3,22
86060942944,13,3,1,7,2,1,12,61
86060942944,13,2,-3,12,-1,-19,4,1
86060959465,-4,4,6,20,10,4,2,-8
86060959465,1,-6,-8,-29,-25,2,-11,2
86060966832,-6,-3,5,7,5,-22,14,-1
86060966832,4,0,-4,-13,6,6,-23,-12
86060968525,2,-1,0,19,2,-1,18,10
86060968525,-1,-5,-2,3,-9,-7,-8,-45
86060989499,-12,0,4,2,4,6,2,1
86060989499,-16,-1,-1,25,11,9,-4,-2
86060990910,-6,-7,-11,-53,-5,-22,-19,-34
86060990910,20,5,14,38,10,-3,10,20
86061002952,-10,-11,-6,-21,-16,4,-7,-12
86061002952,4,-1,-1,3,-15,-18,6,13
86061011974,-4,0,-5,-48,3,11,3,10
86061011974,7,-2,-4,11,8,17,12,43
86061026883,-5,1,7,12,4,2,-6,-1
86061026883,6,0,2,-12,3,-7,-5,-5
86061028485,0,1,4,1,-10,-17,1,-1
86061028485,-2,-7,0,3,-5,-5,2,18
86061049542,-6,-5,-9,-24,-8,-3,8,-11
86061049542,-10,1,-3,-3,13,35,-6,-13
86061050992,5,-5,-3,47,6,-8,6,5
86061050992,-10,4,1,-71,-4,10,7,1
86061063005,36,-3,0,5,1,-4,0,5
86061063005,-5,-1,-4,-22,-14,-3,-8,-11
86061072077,1,-1,-1,45,-1,-12,-1,-17
86061072077,2,4,5,0,7,22,16,61
86061086853,-12,-7,-23,-34,-13,-7,-9,-16
86061086853,5,1,10,59,8,13,3,-9
86061088441,-2,-5,-19,-78,-14,-18,-8,-10
86061088441,2,-2,8,87,4,4,-9,-9
86061109492,-16,6,5,-94,-14,0,-9,-10
86061109492,17,-5,-13,6,-13,-13,-7,16
86061110940,-15,4,-3,39,6,-1,4,11
86061110940,-2,-4,-9,-16,-3,3,-3,1
86061122985,-3,2,8,44,15,7,7,8
86061122985,-20,-2,8,-8,-6,-11,-7,-8
86061131929,6,2,13,-40,4,-2,2,-2
86061131929,6,-11,-7,-39,-9,2,-4,-20
86061146820,4,0,-6,64,13,-4,-4,-22
86061146820,-6,12,11,-28,-11,-7,-7,-23
86061148438,-4,-12,-19,-45,-6,-9,-10,-13
86061148438,4,6,-3,-1,3,4,-1,12
86061169298,-9,-6,-10,33,-5,-6,0,24
86061169298,-7,-3,-5,-51,-7,-1,1,27
86061170839,-1,-7,1,16,1,-15,-2,24
86061170839,0,1,3,17,9,-9,2,1
86061182964,-5,-4,-9,-45,-2,7,0,-2
86061182964,-2,-5,-5,19,12,1,7,-8
86061191927,-4,2,7,9,-10,5,1,-10
86061191927,16,-1,4,4,4,4,6,-16
86061206786,-5,2,2,48,16,11,1,-2
86061206786,-3,-9,-12,-32,-11,0,-3,-12
86061208366,4,9,12,-1,0,16,10,-2
86061208366,12,5,11,9,-1,-24,-6,-18
86061229257,-7,-1,-1,4,3,16,0,56
86061229257,20,6,-6,-16,-11,-5,3,-10
86061230905,-11,-3,4,18,5,12,-14,4
86061230905,-5,1,-4,-5,0,6,9,-2
86061242966,-8,2,7,-9,-9,-11,-8,-26
86061242966,-10,4,-8,-1,-4,5,-5,-29
86061257895,19,2,-7,16,0,-18,6,78
86061257895,-26,-11,-6,-4,-3,7,-20,-15
86061274265,5,-3,1,-7,-6,-23,-2,10
86061274265,-57,-12,0,9,-1,-3,1,-28
86061275883,24,10,8,15,10,21,5,12
86061275883,3,-4,-13,-19,-10,-16,-24,2
86061289293,-7,-5,-6,-3,-6,-7,0,0
86061289293,18,-6,9,6,-9,-23,-10,-41
86061290886,-19,-3,3,8,18,10,-3,-70
86061290886,19,-5,-7,-4,-1,21,33,72
86061302903,6,-8,1,-5,-8,-29,-1,-78
86061302903,16,16,9,3,-6,-4,-22,80
86061311954,57,-15,0,-1,12,24,32,-28
86061311954,20,11,-5,11,12,-3,-2,-8
86061326809,4,14,15,-1,-3,5,19,43
86061326809,21,-7,3,-7,-9,-4,-12,46
86061328402,-4,-24,-17,-2,-5,14,1,38
86061328402,-25,-6,0,0,1,-24,-16,-31
86061349278,41,3,0,4,19,26,3,10
86061349278,16,-2,-1,-3,4,7,-6,41
86061350877,-64,5,7,6,-9,-2,-14,-87
86061350877,34,-7,-1,-3,-3,10,25,102
86061364355,-5,-9,-6,-7,-16,-15,-26,-111
86061364355,23,6,-2,9,10,-38,-9,59
86061372046,53,9,1,11,16,17,72,92
86061372046,-33,9,-1,-5,-18,16,17,-74
86061386763,25,8,2,3,20,-3,-4,20
86061386763,-65,-44,-20,-6,-4,19,-19,-73
86061388414,-37,-5,-14,-10,-25,-35,-32,-76
86061388414,-25,-11,3,-4,-2,8,62,65
86061409289,-23,-10,-9,-4,-7,9,-1,42
86061409289,-36,5,-3,6,22,-17,11,-85
86061410918,-9,-4,-15,-10,-9,-14,-36,12
86061410918,-19,9,-2,0,1,0,-43,-112
86061422953,-30,6,6,-5,-11,-40,-14,-33
86061422953,-35,5,4,5,7,33,27,-102
86061431939,43,5,-1,0,3,-45,-9,18
86061431939,-47,0,4,-13,-20,81,-48,-91
86061446733,57,2,-3,11,27,-46,-15,27
86061446733,12,25,9,-9,-20,-8,54,70
86061448350,4,2,-6,12,40,54,11,-17
86061448350,26,-20,-3,-4,4,29,13,-31
86061469312,24,2,-10,-18,-53,84,22,-128
86061469312,113,5,16,22,66,19,-24,127
86061470956,-52,-8,-6,1,-12,-34,-21,-63
86061470956,-3,-2,-16,1,-9,-19,57,37
86061482899,-45,-4,-1,6,-13,28,-19,-52
86061482899,42,1,-2,-29,-51,-32,-6,5
86061491952,25,13,53,13,-4,51,64,92
86061491952,8,-7,-6,3,59,-11,8,57
86061506785,11,19,25,-11,-39,-85,-8,-24
86061506785,-67,-16,8,5,3,5,-15,48
86061508428,-48,-1,-38,-18,-38,-1,-52,-73
86061508428,91,22,49,7,5,22,47,59
86061529304,-36,-12,38,2,0,-31,-67,74
86061529304,3,-2,75,0,-2,16,79,-39
86061530927,24,20,-26,5,6,-60,-34,20
86061530927,-68,-9,22,20,-9,-13,-49,-102
86061542939,-9,-8,-80,-34,-1,-17,-52,-39
86061542939,-58,-24,-76,-22,-85,-63,-49,-93
86061551929,-15,-26,-23,21,85,110,-17,13
86061551929,-12,-3,-47,-4,22,-18,-74,-93
86061566158,75,-3,25,15,39,52,100,-18
86061566158,-38,-19,-30,-4,-34,-50,-30,-42
86061572919,-32,-11,-29,-24,-53,-26,-14,-27
86061572919,-72,4,16,-12,-86,-84,-29,-6
86061589283,40,3,-4,21,54,49,10,14
86061589283,82,18,-18,8,46,58,26,54
86061590964,13,4,14,16,-14,-31,-32,-44
86061590964,-34,5,-32,5,26,-25,31,-23
86061602982,-57,-24,27,-26,-61,-55,-40,-83
86061602982,29,-2,-43,19,25,101,81,29
86061611909,3,5,28,12,10,-21,-22,0
86061611909,57,-10,24,-15,3,-20,17,55
86061626103,-27,8,2,4,2,12,-24,3
86061626103,-10,4,26,-9,-2,-60,-44,-1
86061632953,-23,2,37,-7,-2,20,15,-6
86061632953,-22,2,-24,-7,-19,-4,-23,-30
86061649312,-33,-16,-41,13,22,5,12,30
86061649312,-34,1,22,-6,13,-6,-3,-45
86061650948,-10,0,28,-8,-20,-9,-29,-30
86061650948,40,3,48,2,37,26,-4,33
86061673189,-44,-1,18,-6,-35,-28,49,66
86061673189,-15,-1,31,-4,21,20,-38,-32
86061674919,41,-2,-45,-8,-12,6,42,-13
86061674919,5,-2,0,-13,-21,6,-62,8
86061686104,-1,-11,-8,6,11,-20,3,-1
86061686104,23,10,8,-7,-18,-13,-11,56
86061692904,-17,1,-36,0,17,-25,25,-4
86061692904,-9,2,-7,6,-3,32,3,-18
86061709248,17,5,-1,3,7,23,-4,-4
86061709248,-42,-6,-39,-1,-4,-26,-4,-33
86061710846,11,0,17,-11,1,5,-2,12
86061710846,26,0,-8,7,1,-13,-7,8
86061722949,-12,6,9,0,2,-29,19,21
86061722949,-10,1,23,4,-1,24,-6,-49
86061731906,48,4,11,1,11,-10,10,75
86061731906,-11,3,-3,-3,-17,-11,0,-33
86061746158,3,-7,13,-1,16,23,-10,17
86061746158,-1,-1,-12,-1,-26,-17,-14,-26
86061752932,-2,-9,9,-4,7,-2,30,-16
86061752932,-6,-1,-3,-2,11,-26,-21,8
86061769337,-1,7,-13,3,-3,21,-9,-1
86061769337,4,1,12,-3,-1,-13,0,-12
86061770945,-23,-5,-6,-3,-13,-12,-7,11
86061770945,-6,7,-4,0,5,-10,6,18
86061791777,-16,7,-1,-2,1,26,5,-13
86061791777,2,-5,-5,5,9,-1,-2,-7
86061793388,-26,2,1,-6,-9,-4,-14,-52
86061793388,-3,-4,-8,-4,-9,0,3,-2
86061806127,0,-1,-10,2,5,3,12,-2
86061806127,2,-4,-13,0,13,5,-12,-8
86061812928,-3,-2,-11,-7,-16,5,-14,-4
86061812928,-12,-3,-11,-2,-12,-27,-8,-11
86061829311,24,7,31,2,8,9,5,81
86061829311,8,-1,-16,5,15,12,3,-13
86061830928,-13,-4,-3,-5,-7,2,16,0
86061830928,11,-6,-4,-7,-14,-1,-4,9
86061851803,-13,2,24,0,8,-24,-1,-27
86061851803,-3,-6,4,3,9,29,4,-5
86061853388,8,6,6,-5,-14,-10,3,17
86061853388,2,-6,17,-1,-10,-12,-24,-47
86061866096,-20,-3,-1,-5,-5,-4,18,33
86061866096,-3,-1,2,-6,-10,-6,-23,-15
86061872911,-14,-3,16,-1,0,-5,19,-22
86061872911,6,-1,2,-1,18,5,2,9
86061889306,3,-5,-7,-3,-11,-7,-22,-42
86061889306,33,-3,21,-3,-7,13,30,92
86061890878,-1,2,0,7,14,-17,-15,-2
86061890878,-19,-3,-5,-2,-3,8,8,-60
86061919280,4,-4,-26,-1,-3,-7,4,4
86061919280,-19,-1,-38,-3,2,21,-4,-60
86061920899,4,6,-28,-9,-20,-28,-24,-17
86061920899,-2,3,-17,2,-1,-23,13,12
86061925395,8,-2,-37,-2,6,15,0,-16
86061925395,-10,-9,-37,-4,-14,-17,-13,-23
86061934422,-15,0,-12,2,10,19,1,-7
86061934422,27,-2,-17,3,13,18,15,66
86061949283,-47,-8,-28,-6,-10,3,-25,-22
86061949283,-12,5,-3,2,1,-12,-1,-15
86061950886,-3,-7,7,1,-4,-14,-11,10
86061950886,11,-3,3,-5,-7,32,5,-3
86061971811,8,0,10,-3,-10,-20,-5,-2
86061971811,12,1,23,12,27,-5,5,3
86061973415,-32,-2,21,-2,-6,7,-1,-7
86061973415,8,0,28,2,8,11,9,-3
86061985406,-11,-3,12,-5,-11,3,-6,-43
86061985406,-15,-3,0,-4,-3,-3,-6,-10
86061994439,14,-1,-2,0,-2,9,-2,-7
86061994439,-20,0,-15,1,0,-15,3,21
86062009289,25,2,-13,-1,-1,-9,-7,-2
86062009289,10,0,-11,-3,-10,-10,0,1
86062010882,2,-3,-10,-4,-5,3,-10,1
86062010882,-12,-6,-18,2,9,2,18,-40
86062031809,-2,-2,4,18,-1,9,-9,25
86062031809,-15,-1,3,-3,11,12,-1,-12
86062033375,-2,4,2,6,-8,3,-4,-4
86062033375,-12,-5,-9,-9,-20,-5,-17,-11
86062045403,-10,-3,4,0,-2,-1,6,-43
86062045403,20,6,8,6,14,-24,6,68
86062054455,-5,-2,-1,2,8,20,5,-19
86062054455,3,0,1,2,2,8,3,23
86062069288,-6,-2,-6,-26,-7,-10,-14,-10
86062069288,-12,-3,2,-5,-11,10,0,-22
86062070915,19,0,-1,-3,2,-10,-3,-9
86062070915,1,0,-1,6,6,9,2,11
86062091786,1,-1,5,11,2,-16,-4,13
86062091786,-19,-3,-7,-31,-7,-6,-5,-57
86062093348,2,1,3,-3,2,1,-1,25
86062093348,-6,11,16,26,0,5,2,-12
86062105437,15,-3,-16,-70,-6,9,8,68
86062105437,-2,-1,3,31,-7,-14,-8,-16
86062114455,-6,-3,3,4,-4,-29,5,-13
86062114455,-11,0,1,-8,-2,-2,-22,67
86062129351,-9,-2,3,24,15,28,25,-28
86062129351,8,-1,0,2,8,11,0,27
86062130904,2,-4,-2,-7,-6,2,-3,20
86062130904,-5,-5,-3,-4,-2,-9,-5,-24
86062151758,-11,0,5,13,-3,-9,-20,-82
86062151758,-3,3,4,4,-7,-1,11,47
86062153387,42,1,-10,-7,-2,-2,-1,-14
86062153387,-4,-5,-4,-26,1,-4,-2,-12
86062174309,-1,12,7,30,4,6,-3,-14
86062174309,4,-2,3,-28,-5,-3,0,-5
86062175912,-14,-13,-14,1,-1,1,4,27
86062175912,-1,-13,-9,-57,-5,-6,-3,-16
86062196805,10,1,1,4,-3,-5,4,30
86062196805,6,0,4,37,8,6,0,-4
86062198390,-9,0,1,28,2,0,1,5
86062198390,4,2,-2,1,0,-6,-8,-15
86062211761,-25,-9,-6,12,1,6,1,-2
86062211761,5,0,-4,-44,-6,-3,-4,-20
86062213386,-8,-8,-1,18,-3,3,-11,-20
86062213386,-5,2,0,-19,-1,-1,12,22
86062225429,1,-1,2,-4,-3,-17,-1,-6
86062225429,2,-5,-5,3,-7,-2,-9,-11
86062234443,-3,3,-1,-23,0,-2,-15,-34
86062234443,8,3,-5,-39,-6,-3,6,15
86062249307,6,-2,0,-5,3,10,5,18
86062249307,-1,-3,-10,-31,-8,-4,-3,1
86062250926,-9,4,5,19,2,-4,-3,-11
86062250926,1,-2,-3,6,2,5,-1,-12
86062279374,2,-1,-3,8,-3,1,0,4
86062279374,1,6,3,-3,1,-4,2,-2
86062280977,-4,0,2,34,-1,-2,3,13
86062280977,2,3,0,34,2,3,0,-2
86062285426,2,-2,-2,-3,0,0,0,8
86062285426,4,-2,-4,-26,-5,-5,-5,-16
86062294408,-3,-3,3,3,0,3,4,9
86062294408,-1,-2,-7,-61,-9,-1,-2,-7
86062309305,1,-2,1,11,3,1,-3,4
86062309305,-3,-1,2,33,1,1,-1,-5
86062310943,-1,0,0,3,0,-4,-1,0
86062310943,-1,0,-2,42,3,-2,-3,-4
86062331822,3,0,-5,-38,-3,0,-2,-2
86062331822,-5,-4,-10,-41,-4,-1,-2,6
86062333433,0,1,0,-11,1,-5,3,6
86062333433,-3,-1,4,15,0,-8,-2,-17
86062345453,0,-3,-2,1,-1,3,0,7
86062345453,0,-1,5,42,6,4,1,6
86062354446,-17,1,2,-12,3,4,-1,-9
86062354446,16,5,8,41,9,-9,0,-10
86062369221,1,-4,-5,-20,-13,-7,-1,-2
86062369221,-4,-2,0,2,-2,5,1,1
86062370882,5,0,-2,-14,-1,7,1,-6
86062370882,-4,-3,-2,16,1,6,-1,3
86062391783,-2,0,-2,14,0,0,0,0
86062391783,-1,-1,-5,-6,-6,-7,-1,5
86062393378,-15,-4,-4,-51,-11,-3,-1,-26
86062393378,0,-3,0,38,2,-1,-1,13
86062405408,-1,7,1,8,0,-3,-6,-15
86062405408,15,1,1,0,-1,-2,3,14
86062421918,7,2,-4,6,-1,0,-2,5
86062421918,-18,-11,-9,-9,-7,-4,-2,2
86062428004,-6,13,6,-8,-1,-1,-2,-25
86062428004,15,-5,0,12,0,-2,0,26
86062436935,10,7,-2,-8,-1,-1,-1,9
86062436935,2,2,1,-3,0,1,-2,-24
86062451761,-8,-4,-5,-6,-3,-4,-2,21
86062451761,14,4,3,4,0,0,-3,-16
86062453389,11,-4,-3,1,-2,-1,1,29
86062453389,-3,2,0,-9,-2,1,2,-12
86062474383,2,-5,-1,5,2,0,1,4
86062474383,-15,-4,-4,1,-3,-3,-3,1
86062475999,0,-17,0,-2,0,-3,-3,-2
86062475999,-8,0,-1,0,1,1,-1,0
86062488651,6,-3,-3,-5,0,-2,-1,5
86062488651,-7,0,-3,5,-1,-3,-1,-12
86062495434,-1,4,-1,-2,-1,-2,-1,-3
86062495434,1,9,0,-5,-2,1,-1,56
86062511811,1,-5,0,2,-1,-1,-1,-4
86062511811,-7,0,0,-1,0,0,-3,-7
86062513389,-6,-3,0,1,0,-1,-2,-8
86062513389,-1,5,-1,-4,-1,-2,-2,-17
86062525408,-2,-3,-5,-7,0,1,0,1
86062525408,12,0,-1,4,1,-1,0,3
86062534448,3,4,1,-2,-2,-1,-1,-10
86062534448,-4,-8,-6,-5,-1,-3,-2,-14
86062548656,1,-2,2,2,1,2,1,39
86062548656,-5,-3,-2,-1,-2,-1,-1,-30
86062555407,-3,-4,-1,-2,-1,0,1,4
86062555407,-2,-4,-1,-2,-2,1,-1,-9
86062571834,8,-2,0,0,-2,-1,-1,-8
86062571834,-8,1,0,1,-2,-1,-2,3
86062573400,-7,2,-1,-1,0,-2,-2,-43
86062573400,31,-5,0,-1,-1,0,4,60
86062585425,-14,-15,2,-1,-1,-1,-3,-23
86062585425,-11,1,-1,-1,-2,-2,-2,-5
86062594470,-1,-2,-1,0,-2,0,0,-8
86062594470,0,3,-1,-1,-2,-1,-3,-27
86062608655,1,-7,-2,1,0,-2,1,2
86062608655,4,1,0,1,1,0,1,7
86062615457,4,1,-2,-2,-2,0,1,29
86062615457,-5,2,0,-1,-1,-2,-2,-8
86062631809,3,2,-2,-2,-3,0,1,4
86062631809,-11,-3,0,0,0,-1,-3,-5
86062633421,-9,-3,0,-2,-1,-1,-1,-2
86062633421,-1,0,-2,-1,-1,-2,0,-4
86062645411,-1,3,-4,-1,-1,-1,-1,-9
86062645411,-6,-18,-3,-1,-2,-1,-3,-5
86062654473,-12,-3,-1,-2,-2,-1,-1,8
86062654473,13,9,0,-1,-1,-1,2,-25
86062668665,3,2,1,0,0,-1,-1,0
86062668665,-6,0,-1,0,-4,-1,-2,6
86062675398,2,-1,-2,-2,-1,1,0,10
86062675398,-13,-6,-1,-1,-3,-1,-1,-2
86062691802,-4,2,0,-1,-1,-1,-2,6
86062691802,-3,-3,-4,-3,-4,-4,-3,-9
86062693391,3,-2,0,0,-2,-2,-3,-3
86062693391,-4,-8,-1,-1,-1,-1,-2,7
86062705462,-6,2,0,2,1,-1,0,-5
86062705462,-5,-2,-3,-3,-2,-1,0,3
86062714397,1,1,-5,-3,-2,-1,0,4
86062714397,-6,3,-5,-5,-2,0,-2,-5
86062729273,1,-4,2,1,-2,0,-2,-1
86062729273,1,4,1,0,2,1,0,2
86062730906,-10,-3,-1,1,-1,-1,-2,-6
86062730906,0,13,2,1,0,1,0,-1
86062751774,-2,-2,-3,-3,-1,0,-1,-1
86062751774,0,2,-3,-3,-3,0,-2,-2
86062753411,-2,-3,-2,1,0,0,-1,-2
86062753411,-10,-9,-2,-1,-3,-2,-3,1
86062774260,-3,1,0,-1,0,-1,-1,-1
86062774260,0,0,2,2,1,0,-1,-3
86062775896,-14,-2,-4,-2,0,-1,-2,0
86062775896,-2,-10,-3,0,-1,-2,1,-8
86062789227,4,0,-1,-1,0,-2,0,0
86062789227,-8,9,-2,-2,-1,-1,-1,-2
86062790827,22,4,2,1,-2,0,1,9
86062790827,-1,-2,1,0,-1,-2,-2,-1
86062811747,-6,0,0,-2,0,-1,-1,-4
86062811747,-4,0,-2,-1,-2,-1,-1,-3
86062813385,-8,-3,1,-3,-2,-3,0,-2
86062813385,-5,-2,0,-3,-1,0,-2,1
86062834235,15,-3,-1,-1,0,-2,-2,-2
86062834235,3,-4,2,0,1,-1,-1,0
86062835898,3,-1,-2,0,0,-1,-1,-1
86062835898,1,-2,1,0,-2,0,1,2
86062849334,-8,-2,-5,-2,-4,-2,-4,-2
86062849334,2,-2,-1,0,-1,0,-1,-1
86062850888,-1,-3,-2,-2,-3,-2,0,-1
86062850888,-5,1,-1,-1,-1,-2,-2,-4
86062871791,-16,-8,-3,-2,-1,-2,-3,-6
86062871791,13,3,2,-1,-1,1,0,5
86062873383,-1,6,2,-1,0,0,-2,1
86062873383,2,-1,-2,-3,-1,0,-3,-5
86062894306,-1,1,-1,-2,0,-2,2,5
86062894306,4,0,3,0,-1,-2,-1,-2
86062895910,1,-6,-1,-1,-2,-2,-2,1
86062895910,-2,-3,-2,-1,2,-2,-3,-13
86062908656,0,0,-1,-1,-3,-1,1,-1
86062908656,-6,-4,-2,-3,0,-2,1,3
86062915433,-3,1,0,-1,-2,-3,-3,12
86062915433,-5,-5,0,0,-1,0,1,-16
86062931787,27,10,5,0,0,1,-1,1
86062931787,-7,0,-2,-2,-3,-3,0,3
86062933402,5,-7,-2,-2,0,-1,-1,-2
86062933402,0,2,-2,1,0,-2,-1,11
86062954247,-12,-4,1,0,-2,-1,-2,-2
86062954247,12,2,1,0,0,1,2,-7
86062955876,1,3,-1,0,0,0,0,-3
86062955876,-8,-7,-2,-1,-4,-2,-2,2
86062968682,-2,-5,-2,-1,-1,-1,-1,-5
86062968682,-11,-5,-3,-1,-2,-1,-2,-2
86062975427,-1,-1,-3,-3,-3,-2,0,-4
86062975427,1,0,1,-1,-1,-1,0,6
86062991838,-2,1,-1,-2,-4,-1,0,-2
86062991838,-10,-1,-4,-3,-2,-2,-2,-2
86062993398,16,17,0,0,0,-1,-3,-6
86062993398,0,-3,-8,-2,-3,-1,-2,15
86063014211,9,0,0,-2,-1,1,0,-2
86063014211,-15,7,-2,0,1,-2,-2,-8
86063015863,-5,-12,-1,-2,-2,1,0,-2
86063015863,1,2,1,-1,-1,-3,-1,-9
86063036773,2,1,-2,2,0,-2,-1,7
86063036773,-1,-1,-3,-2,-4,-2,0,0
86063038327,-2,-3,-2,-3,-2,-2,-2,-8
86063038327,5,-2,-1,0,0,0,-1,1
86063051750,-14,-10,-2,-1,-1,-2,-1,11
86063051750,2,-7,-1,0,-1,0,1,-8
86063053373,4,-2,1,-2,-1,-2,0,4
86063053373,-3,-2,-1,-3,-2,-1,-1,3
86063074302,5,3,2,-1,-1,-1,-1,6
86063074302,1,-2,1,-2,-2,-2,-3,2
86063075932,-3,-14,-3,1,-1,-2,-1,-2
86063075932,-1,2,1,1,-1,0,-3,-1
86063088620,-11,0,-2,0,2,1,-1,-6
86063088620,9,-7,1,0,0,0,-3,-9
86063095423,-1,1,0,-1,-1,1,2,6
86063095423,-2,-2,-1,0,1,-1,0,-4
86063111749,-8,-5,-4,-2,-1,-1,0,-8
86063111749,4,-2,1,1,-1,-2,-2,1
86063113402,-17,0,-6,-5,-1,-2,-2,2
86063113402,-1,-2,-1,1,0,-1,1,-1
86063134268,0,2,-2,-4,-2,-1,-2,-7
86063134268,-4,9,-1,-2,0,-2,1,10
86063135855,2,3,1,1,0,1,0,-3
86063135855,2,2,0,-2,-1,-3,0,4
86063148651,-4,-1,-2,-3,-2,-2,-5,-28
86063148651,4,-2,-3,-1,-2,-1,-1,-1
86063155428,-8,-18,-3,0,-2,-2,-2,-3
86063155428,-7,-6,-3,-4,-2,-2,-3,-6
86063171806,19,7,2,1,0,0,1,8
86063171806,-14,-4,-2,-1,-1,0,-2,-3
86063173400,1,5,0,1,1,1,-1,-1
86063173400,-1,11,-1,0,0,-2,-2,3
86063194244,-2,-9,-2,-1,-1,-1,0,1
86063194244,2,-2,-2,-2,-1,-1,-3,-2
86063195887,9,2,0,-1,0,-1,0,1
86063195887,-23,-2,-1,0,-2,-1,-4,-13
86063208578,-5,-18,0,-4,-2,-2,2,15
86063208578,0,-1,0,1,1,0,1,-3
86063215456,-3,15,2,-2,-2,-1,-2,-7
86063215456,9,-6,-1,-2,-2,-2,-1,-1
86063231827,0,3,-2,0,-2,-4,-1,-2
86063231827,-24,-17,-4,-2,-2,-2,-2,0
86063233319,2,1,-3,0,1,-3,-1,1
86063233319,3,8,0,2,0,-3,-1,-2
86063254252,-8,-2,0,0,1,1,-2,-3
86063254252,9,7,4,1,-1,0,1,4
86063255869,-6,-6,-7,0,-2,0,-4,-3
86063255869,0,-5,-1,-2,-2,1,0,0
86063267919,-5,-5,-1,1,-3,-2,-4,-33
86063267919,5,1,0,-2,-1,-2,0,2
86063284454,15,-2,2,0,-1,0,-2,3
86063284454,-3,-3,0,0,0,-2,-1,-11
86063291753,1,3,-2,-1,0,0,0,5
86063291753,-13,-12,-4,-2,-2,-2,-4,2
86063293380,-4,0,-1,-2,-3,0,0,-5
86063293380,10,-10,-1,-2,-2,-1,-1,6
86063314303,-3,1,-2,-2,-3,-1,1,0
86063314303,5,2,-1,0,0,-1,1,-2
86063315905,-3,10,1,-1,-2,-1,1,3
86063315905,2,-7,-3,1,-2,0,-1,3
86063327909,8,-8,-1,0,1,-1,-2,7
86063327909,-1,-4,-5,-4,-1,-1,-3,-2
86063336911,11,-1,0,-2,-1,-1,-3,1
86063336911,-5,-3,-2,-1,0,0,0,2
86063351755,-13,-6,0,-1,0,-2,0,0
86063351755,18,5,0,0,-2,0,0,0
86063353331,1,1,1,1,0,-2,-1,-2
86063353331,-2,-1,-3,-2,-2,-2,-2,0
86063374311,3,3,-1,-1,-1,-3,-2,-1
86063374311,1,2,1,0,-1,-1,-1,2
86063375911,-13,-5,0,-2,-1,-1,-1,-4
86063375911,-2,-1,1,-2,-3,-2,-2,19
86063387906,2,9,-2,0,-2,0,0,-13
86063387906,-3,0,-2,-1,-2,-1,0,11
86063396963,-3,-8,-2,-1,-1,0,-1,-4
86063396963,0,1,0,0,-1,0,-2,-1
86063411816,19,4,-1,0,0,-2,-1,7
86063411816,3,3,1,1,1,0,-1,-9
86063413455,-17,-6,-3,-3,-3,-2,1,8
86063413455,15,9,0,1,1,-2,1,-2
86063434276,-19,-10,-3,-4,-2,0,-4,-4
86063434276,8,2,2,-1,0,-2,1,-3
86063435853,14,-3,-1,-4,-4,-2,-2,2
86063435853,-8,0,-4,-1,0,0,1,-12
86063447966,-3,4,0,0,0,0,2,17
86063447966,1,3,-1,0,-2,-1,-3,-3
86063456930,-14,-17,-4,-1,-2,-2,-2,-2
86063456930,4,2,2,-1,-1,-1,1,-4
86063471775,4,3,-3,-1,-2,-1,-2,0
86063471775,-7,-3,-2,-3,-2,0,-2,-1
86063473407,7,8,1,2,0,-2,-1,-1
86063473407,-1,-6,-2,-2,-3,-2,-2,0
86063494257,1,0,0,-1,-1,0,-1,0
86063494257,-1,-3,-2,-3,-3,-2,0,-2
86063495880,-4,0,-1,1,-1,1,-3,32
86063495880,11,3,1,1,0,2,1,-13
86063508424,-1,-4,-2,-1,-1,-2,0,1
86063508424,-6,-5,-4,-2,0,-1,-3,0
86063516914,3,0,-1,-1,1,1,0,-1
86063516914,-5,-2,0,0,-1,-1,-2,-2
86063531833,0,0,-5,-4,-2,-2,0,9
86063531833,3,1,0,0,1,0,0,-5
86063533429,-11,2,0,0,-1,-3,-1,-8
86063533429,7,3,0,0,-2,-1,-2,1
86063554288,1,1,0,1,0,-2,0,-11
86063554288,-4,-1,-2,-1,-2,-1,-1,1
86063555885,-3,-2,-2,0,-1,-2,1,-12
86063555885,-7,-20,-4,-2,-4,0,-1,5
86063567969,0,5,0,0,-2,-1,-2,1
86063567969,-5,-3,-1,0,0,-2,-2,-3
86063576906,-1,2,2,1,1,-2,-2,-11
86063576906,-19,-2,-4,-3,-4,-2,0,4
86063591760,-1,0,3,1,-1,0,-1,-1
86063591760,-13,-5,-5,-3,-3,-1,-2,-4
86063593382,4,2,-2,-2,1,-1,-1,-8
86063593382,-2,0,0,1,-1,-1,-2,-2
86063614287,-14,-8,-1,-1,-2,1,-2,-14
86063614287,0,5,1,0,-3,-1,2,-8
86063615908,1,-2,-2,-1,-2,-1,-2,-2
86063615908,0,2,-1,-4,-2,-2,-1,-1
86063627869,-3,-19,-3,-3,-1,-4,-1,-2
86063627869,-1,-2,1,0,0,-1,-3,1
86063636920,-10,-5,-3,-3,-2,-2,-2,0
86063636920,3,1,0,0,3,0,-1,-2
86063651752,-3,7,-3,0,-1,-1,-3,-2
86063651752,4,-13,0,-2,-3,-1,1,1
86063653372,-8,-6,0,-1,0,0,-1,-1
86063653372,2,6,0,0,-2,-1,-2,-2
86063674309,0,1,1,-1,-1,-3,0,3
86063674309,6,3,0,-1,-2,-1,-2,1
86063675916,5,5,-4,0,-1,-1,-2,-3
86063675916,-2,-6,-2,0,1,-1,-1,0
86063704275,2,0,0,-3,-1,0,0,1
86063704275,-5,-2,-1,-4,1,-1,0,-2
86063705851,4,1,1,0,-1,1,-2,-4
86063705851,-3,1,-2,-1,0,-1,-1,-9
86063711096,0,0,-1,2,-1,-2,0,7
86063711096,0,2,-2,-1,-1,-2,-3,19
86063717904,4,0,0,-1,0,0,4,-12
86063717904,1,-1,1,-2,-2,-2,-3,-6
86063734255,-1,2,-4,-1,-3,-1,-2,3
86063734255,-5,-3,-1,1,1,2,0,0
86063735871,-9,-2,-2,-3,-3,-2,-1,3
86063735871,-4,-5,-3,-1,0,-2,-2,1
86063756744,7,4,0,-2,0,0,-1,-4
86063756744,-16,-35,-5,-3,-1,-3,-3,-6
86063758424,21,12,2,0,-1,0,-1,-1
86063758424,-6,-9,-4,0,-2,-1,0,2
86063771753,-6,1,1,-2,-2,0,-2,-2
86063771753,-2,7,-2,-1,-1,-2,-3,-7
86063773390,3,0,-2,-2,0,0,-2,-4
86063773390,3,-5,-1,-2,-1,0,1,10
86063794270,-8,-3,-1,0,-1,1,-1,-5
86063794270,17,8,1,2,0,-1,1,-1
86063795904,-7,-8,-2,-1,-2,-2,-2,-1
86063795904,2,8,-1,0,0,-2,-2,-2
86063816803,-3,0,-1,-2,-2,-2,-2,-4
86063816803,2,7,0,-1,-1,-2,-1,-5
86063818391,-2,-2,-5,-2,-1,-2,0,2
86063818391,-1,1,-1,-2,-2,-1,0,-2
86063831135,-2,-2,-1,-2,0,-1,-2,6
86063831135,-15,-5,-1,-2,-1,-1,-2,-2
86063837870,-6,-1,-2,-2,0,-3,-3,-32
86063837870,-12,-1,-3,-1,-2,-2,-2,-4
86063854272,0,-11,-3,-1,0,0,-1,7
86063854272,2,4,1,-1,-2,0,0,-7
86063855872,-7,7,0,-2,-2,0,0,14
86063855872,23,7,0,-3,0,1,-1,-4
86063876762,-13,-12,-1,-2,-1,-2,-1,-8
86063876762,11,12,0,-1,0,-1,-1,1
86063878373,-14,2,4,2,-1,0,-3,4
86063878373,1,0,-4,-2,-2,0,1,3
86063891079,10,4,1,0,-1,0,2,3
86063891079,1,1,-2,-1,-2,-3,-1,5
86063897905,1,0,-1,-1,-1,0,0,2
86063897905,-11,-1,1,1,-1,-2,-2,-2
86063914282,2,0,-1,-1,0,-1,-2,-1
86063914282,-17,-1,-3,-4,-3,-3,-2,-8
86063915891,-7,-10,-3,0,0,-1,-1,8
86063915891,2,-6,-3,0,-1,-1,2,-11
86063936888,-5,6,1,0,-1,-1,-2,-3
86063936888,11,0,0,0,1,-1,-1,5
86063938428,-1,-4,-2,-1,0,-3,0,5
86063938428,-17,0,-1,-1,-4,-2,-2,4
86063951140,3,1,-2,-1,-1,-1,0,-4
86063951140,-1,-7,-4,-1,-3,-2,-3,-10
86063957888,34,13,2,0,1,1,2,4
86063957888,-7,-5,-1,-1,1,-1,-1,1
86063974256,6,7,0,-1,0,-1,0,-3
86063974256,-4,-14,-3,0,-1,0,-2,1
86063975920,4,3,-3,-3,-2,-2,-2,-2
86063975920,4,0,0,-1,-1,-1,-2,2
86063996763,10,-1,-2,-3,-2,-1,-2,-1
86063996763,-10,6,2,0,-1,1,1,0
86063998339,-2,-11,-3,-1,-3,-2,-2,-2
86063998339,-1,3,1,0,-1,1,0,-2
86064011160,1,0,-1,1,-2,-1,-3,-12
86064011160,6,3,-2,-3,-1,-2,2,10
86064017867,-2,-5,-3,-1,-1,-2,-2,-1
86064017867,-1,2,-2,-2,0,-3,-2,3
86064034294,2,3,-1,-1,0,-1,-1,-3
86064034294,2,0,-2,-1,0,-2,-2,-31
86064035882,-18,-1,2,-2,-1,0,-2,-2
86064035882,7,1,-1,-2,0,-1,-1,3
86064056729,-13,-10,-1,-2,-3,-1,0,-4
86064056729,4,0,-2,-1,-2,-1,-2,7
86064058360,-10,-8,0,-1,-2,-2,-1,-1
86064058360,-2,0,0,0,0,0,-1,-1
86064071096,7,8,-4,-2,-2,-2,0,4
86064071096,-2,-6,4,3,1,0,-1,-1
86064077904,12,-2,-3,-4,-2,1,-1,3
86064077904,-9,-1,1,-1,-4,-2,-1,7
86064094266,-3,2,-1,-1,-1,-1,-2,-1
86064094266,-2,0,-2,-1,-1,-1,-1,2
86064095857,-4,-4,-1,-2,0,-2,-3,-7
86064095857,-7,-16,-2,0,1,0,-1,-3
86064116784,-5,-5,0,-1,-2,-3,-2,3
86064116784,-1,1,-4,0,-2,-1,-2,-1
86064118414,-5,-4,1,0,0,0,-1,-3
86064118414,2,1,0,-1,-1,1,0,-3
86064131089,-3,-2,-2,-2,-1,-2,-1,18
86064131089,12,4,0,-1,-1,0,0,-7
86064137903,-3,5,-2,1,-3,-1,-1,1
86064137903,0,0,-2,-1,-2,-3,-2,-4
86064154261,-11,-5,0,0,-2,0,0,-1
86064154261,-2,2,2,-2,-1,-3,-2,3
86064155884,5,-2,-3,-1,0,0,-2,-9
86064155884,5,-1,-2,-2,-1,-2,1,7
86064176752,-10,-2,-2,0,-1,0,-2,-5
86064176752,0,14,-1,-4,-3,-1,-1,2
86064178350,-18,7,-2,-2,-1,-3,-3,-19
86064178350,0,-1,2,1,1,-1,0,8
86064190406,12,3,0,-1,0,-1,0,-3
86064190406,-8,-1,-1,0,-2,-2,-1,-2
86064199482,11,6,1,0,-2,-1,-1,2
86064199482,-7,-7,-2,1,-2,-2,-2,-7
86064214309,-2,1,-5,-4,-1,0,-2,-1
86064214309,1,-4,-2,-1,0,0,0,3
86064215874,-2,-5,-1,-3,-2,-3,0,2
86064215874,-11,-1,-1,-3,-3,-2,-3,-5
86064236760,-1,-5,-1,-1,0,-1,-2,-4
86064236760,-7,-5,0,-2,-2,2,-1,-2
86064238363,-3,-2,-2,-1,-1,-2,-3,-24
86064238363,-1,-1,-3,0,-1,-2,-1,-10
86064250404,-3,0,1,-1,-2,0,-2,1
86064250404,8,-5,-4,-1,-3,-3,0,-3
86064259448,0,-1,1,0,-2,-1,2,13
86064259448,5,4,-1,-1,-1,-2,-1,0
86064274343,6,0,-3,0,0,-1,-2,-9
86064274343,-12,-6,-2,-1,-1,-1,-2,-4
86064275906,2,-14,-1,-1,0,-1,1,19
86064275906,2,3,0,-3,-1,-1,-2,-4
86064296737,2,-1,2,2,0,-2,-1,-1
86064296737,-2,-3,-2,-3,-2,0,-1,0
86064298378,-7,-3,-2,-1,-1,-2,-1,-2
86064298378,12,14,-1,-1,-1,1,-2,-6
86064310441,-18,-7,-1,0,-2,-2,-2,13
86064310441,13,6,1,1,0,-1,-1,-5
86064319450,1,7,2,1,-1,1,-1,4
86064319450,6,5,1,0,-1,0,-1,3
