timestamp,emg1,emg2,emg3,emg4,emg5,emg6,emg7,emg8
60138998116,2,2,-1,1,-1,-1,0,-1
60138998116,0,-2,0,-3,-2,-2,-2,1
60138999680,-3,-1,0,0,-1,0,-1,-1
60138999680,3,-8,-3,-2,-1,-2,-2,-1
60139020605,-7,6,-2,-1,0,0,-1,0
60139020605,1,4,-1,-2,0,-1,0,-1
60139023193,3,1,-1,-3,-2,-1,-2,1
60139023193,-4,4,-2,-3,0,-1,-1,-10
60139034335,13,5,-1,0,-2,-1,-1,2
60139034335,-6,-1,-2,0,-2,-1,-2,1
60139043224,-1,-7,-3,0,-1,0,-2,-2
60139043224,3,2,1,0,-1,0,-1,4
60139058103,-3,-3,-1,-2,0,-2,-2,-1
60139058103,3,5,0,1,1,0,0,-3
60139059785,-1,6,1,0,-2,-2,-2,0
60139059785,-2,-2,-1,-1,0,0,-2,0
60139080644,-3,-8,0,-2,-1,0,0,-1
60139080644,-4,-2,0,1,-3,-1,-1,1
60139082242,2,4,-1,-3,-1,-2,0,-2
60139082242,-5,-3,-3,-1,-3,-1,-1,0
60139103128,-2,-5,-2,-1,-1,-1,0,0
60139103128,1,-3,-1,-1,-3,-1,-2,-2
60139104752,-2,-2,-2,0,-2,-2,0,-1
60139104752,-3,-5,-2,0,-3,-1,0,0
60139118161,-3,3,2,1,1,1,-1,-3
60139118161,-6,-20,-2,-2,-3,-1,-2,-1
60139119759,-3,-2,-1,0,-1,0,0,-1
60139119759,1,1,0,-2,-2,-1,-2,-2
60139141451,-9,-6,-2,-2,-3,-2,-2,4
60139141451,4,9,0,0,0,1,0,-4
60139143004,-6,-3,-1,-2,0,0,-1,-1
60139143004,-2,-4,-2,-3,0,-1,0,-1
60139154373,2,-2,-3,-2,-3,-2,-2,0
60139154373,0,-4,-4,-2,-2,-1,-1,-1
60139163320,-8,2,-1,-1,-1,-2,0,-1
60139163320,0,0,-1,-1,2,-2,0,1
60139178391,3,-4,-1,-1,-1,0,-1,-2
60139178391,0,2,0,-2,0,0,0,0
60139179804,4,1,-1,0,-2,-1,-1,-2
60139179804,-4,-4,-2,-1,-2,0,0,1
60139200684,1,0,-3,-2,0,-1,0,0
60139200684,-10,0,-1,-2,-1,-2,0,-1
60139202316,-3,-6,-2,-2,0,0,-1,0
60139202316,0,1,-3,0,-2,-2,-2,-2
60139214289,9,1,-1,-3,-1,-2,-2,1
60139214289,-4,-16,-1,-2,0,-1,0,-1
60139223331,-3,-5,-1,0,-1,0,0,-3
60139223331,-2,0,-2,-1,0,-1,-1,-2
60139238136,0,-3,1,0,-1,0,0,-3
60139238136,0,-3,-3,0,-1,0,-2,2
60139239755,17,13,2,1,2,0,0,7
60139239755,3,-2,-1,-2,0,0,-2,-2
60139260761,-5,2,-2,-2,1,-1,-2,-1
60139260761,2,3,0,-1,-1,-1,-1,-2
60139262383,-5,-6,-4,-3,-2,0,-1,1
60139262383,4,9,-1,-1,-2,-2,0,0
60139274284,-8,-3,0,0,0,-1,1,-2
60139274284,-1,4,-2,-3,0,-2,-1,-2
60139283352,-3,-7,-2,-2,-1,1,-1,-6
60139283352,-7,-3,0,0,-1,0,-2,-2
60139305602,2,-3,0,-2,-1,-2,-2,-3
60139305602,-1,1,-2,-1,1,-1,-1,-1
60139307209,-2,-2,-1,-2,-1,-2,-3,-2
60139307209,6,-5,-1,-1,-1,-2,-2,-1
60139320613,-2,-5,0,0,-1,-3,0,0
60139320613,-2,2,0,1,0,-1,-1,-1
60139322232,-6,-10,-2,-1,-1,-2,-1,-3
60139322232,-7,-4,-1,-2,-1,-2,-1,-2
60139343110,2,3,-2,-1,-1,-1,-1,-1
60139343110,-13,-14,-5,-2,-1,-2,-2,-3
60139344758,1,-2,-1,-2,-2,-1,-1,-2
60139344758,-3,-3,0,1,-1,-2,-1,2
60139358189,-2,-3,-2,0,-1,-1,-1,-7
60139358189,-1,3,-1,-3,0,0,-1,1
60139359786,-1,3,-1,-2,-1,0,0,-1
60139359786,-1,0,0,0,0,0,-3,2
60139380882,6,-1,-2,-1,-1,-1,-2,0
60139380882,5,4,1,-1,-1,-1,-1,-2
60139382405,2,3,4,-1,1,2,3,1
60139382405,1,-2,-1,-1,0,-1,0,-4
60139403343,-3,-3,-2,-2,-1,0,-1,0
60139403343,-4,-2,-2,0,-2,-1,-2,-2
60139404857,0,1,-3,0,0,-2,-1,1
60139404857,-3,-14,-3,-1,0,0,-1,-2
60139418241,-4,2,-1,0,0,2,-1,1
60139418241,2,4,0,0,-2,0,-2,-2
60139419770,-7,-4,-2,-2,-2,-2,-3,-1
60139419770,-1,2,-2,0,-1,-1,0,0
60139440746,2,-1,-1,-2,0,-2,-3,0
60139440746,-2,-6,0,0,-2,-2,-1,-11
60139442405,-1,2,-2,3,0,0,-3,0
60139442405,-1,1,-1,-2,1,-1,-1,-3
60139463191,-2,-4,-1,-3,1,-1,-1,0
60139463191,-1,1,0,0,0,0,0,0
60139464814,-3,-1,-2,-1,-3,-2,-1,0
60139464814,1,3,-2,-1,-3,-2,-1,-3
60139477603,-11,-4,-1,-1,-4,-2,-2,-2
60139477603,2,1,-2,-2,-2,-1,-2,1
60139484338,-4,-4,-2,-1,0,-2,-1,-3
60139484338,2,5,1,-1,-1,-1,0,-1
60139500695,-5,-2,-2,-1,-2,0,0,-2
60139500695,-2,0,0,-1,-1,0,0,0
60139502267,-3,0,0,-1,-2,-2,-1,-3
60139502267,1,1,-3,-1,-1,-1,-2,-1
60139523233,3,0,0,0,-1,-1,-1,-1
60139523233,-1,-1,-3,-1,-1,-2,-1,0
60139524769,3,12,-1,-3,-1,-1,1,-1
60139524769,0,-1,-1,-2,-1,1,-3,-1
60139537687,1,2,-2,-2,-1,-2,-1,0
60139537687,-4,-4,-1,-1,0,-1,0,-10
60139544487,0,1,-1,-1,-2,0,-2,-1
60139544487,-3,-3,1,0,-4,-2,-2,-2
60139560837,-4,-4,-1,0,0,0,-1,-1
60139560837,9,9,0,0,1,0,-2,3
60139562325,5,0,1,0,2,-2,0,1
60139562325,-2,-4,-1,-2,0,-1,0,-3
60139583107,-3,-2,1,1,-2,-1,-1,0
60139583107,-4,-6,-2,-1,-1,-2,-2,0
60139584813,-3,-5,-3,-3,-2,-1,0,-2
60139584813,0,0,0,0,0,-1,0,2
60139597537,1,2,0,1,-3,-1,-1,-2
60139597537,-5,-2,-4,-6,-2,0,-1,2
60139604265,-2,-1,-3,0,0,0,-4,-5
60139604265,-3,-1,0,-1,-3,-2,0,-1
60139620624,0,9,0,-1,-1,-1,-1,-2
60139620624,-7,-15,0,1,0,0,0,0
60139622248,0,-3,-1,-1,-2,-1,-1,0
60139622248,0,1,-4,-1,-1,-1,0,-3
60139643138,3,4,0,-1,0,-2,0,0
60139643138,2,1,0,-2,-1,-2,-1,1
60139644720,-2,-2,-2,-3,-2,-2,-2,-2
60139644720,-5,-1,-2,-3,0,-2,-2,-3
60139657532,2,1,1,0,-4,-3,-1,0
60139657532,-1,2,-2,-1,-2,0,-1,-8
60139664211,-2,-6,0,0,-2,-1,-2,-1
60139664211,2,3,-2,-1,-1,-1,-1,3
60139680658,-11,-14,-5,-3,-1,0,-3,-4
60139680658,4,5,0,0,0,-1,0,4
60139682248,0,-2,-1,-1,-2,-2,-1,-2
60139682248,-5,-3,0,-1,2,0,0,0
60139703134,10,16,0,-3,-1,0,0,-2
60139703134,-4,-8,-1,0,0,-1,-1,2
60139704738,-3,-5,-1,-1,0,-3,0,-2
60139704738,-2,1,-1,1,-2,-1,0,0
60139717675,3,-1,0,-1,0,-1,0,-1
60139717675,0,3,-2,-1,-1,-3,-1,-1
60139724629,0,-2,2,0,0,0,-1,-1
60139724629,5,2,0,-1,-2,0,-3,0
60139740715,-12,-11,-4,-2,0,-1,-1,-2
60139740715,6,4,-1,0,-1,-1,1,0
60139742404,-3,-3,-2,-2,-3,-1,-2,0
60139742404,-4,-6,0,-1,-1,1,1,-1
60139763355,-1,-2,-3,-1,-3,-1,-4,-2
60139763355,0,3,-1,-1,0,0,0,-7
60139764782,-1,0,-2,-1,1,-1,-1,0
60139764782,2,7,-1,-1,-3,-2,0,1
60139777695,0,-1,1,1,-1,-2,-1,-1
60139777695,-4,-5,-1,-1,-2,-3,-5,2
60139784253,3,5,1,-1,-2,3,-1,1
60139784253,-8,-20,-2,-2,-2,0,-1,-5
60139800643,-3,-6,-1,-1,-2,0,-1,1
60139800643,3,3,0,-1,-2,-1,0,0
60139802224,-1,-1,-2,0,0,-3,-2,-1
60139802224,-1,0,0,1,0,-1,-3,-3
60139823381,1,-1,-1,0,0,1,1,-1
60139823381,-4,-5,-3,-2,-1,0,0,0
60139824781,-2,1,-1,-2,-2,-1,-1,-2
60139824781,-1,0,-2,0,0,0,-1,-2
60139836842,-6,-8,-2,0,-1,-3,-1,-2
60139836842,2,4,1,-1,1,0,-2,1
60139845824,-2,-3,-1,-1,0,-2,-1,7
60139845824,2,0,-2,-2,-1,-1,-1,-6
60139860849,-7,-6,-3,-4,-2,-2,-3,0
60139860849,2,-3,-2,0,-3,-1,-2,1
60139862301,2,2,0,0,-2,-2,0,0
60139862301,-15,-1,-1,0,0,-1,0,-9
60139883437,2,1,-2,-2,0,-1,0,1
60139883437,1,0,0,-1,-1,0,0,0
60139884803,1,5,-2,-1,-2,0,0,-3
60139884803,-11,-7,-4,-2,-2,-2,-1,0
60139897100,-2,-1,-1,-1,0,1,0,-3
60139897100,-9,-1,0,0,-2,1,-1,-2
60139922855,5,-4,-2,1,1,1,-3,-2
60139922855,2,2,0,-1,0,-3,-3,2
60139923649,-2,-1,-1,-1,-1,-1,0,-1
60139923649,-6,-4,-3,-3,-1,-2,-1,0
60139926784,-4,-1,-2,-3,-4,-1,0,-4
60139926784,3,1,-1,-1,-1,-1,0,2
60139943274,3,-1,1,-1,-1,-2,0,0
60139943274,1,2,-3,-2,-3,0,-1,-10
60139944752,-3,-3,-1,1,0,-1,0,-2
60139944752,0,-1,-1,-1,-1,-1,0,1
60139957043,-3,-1,1,-1,0,0,-2,-1
60139957043,1,0,-1,0,-1,-2,0,2
60139965879,-3,-6,-2,-2,0,-2,-2,0
60139965879,-2,-3,-1,-1,0,-1,0,0
60139980787,6,6,-1,2,-2,-2,-1,0
60139980787,4,2,-1,-1,-3,-3,-1,0
60139982271,-2,-1,-1,-1,0,-2,-1,-4
60139982271,4,-1,1,0,-2,-1,-2,2
60140003181,3,3,-1,-1,0,-2,-2,-1
60140003181,-6,-21,-1,0,0,1,0,-1
60140004711,-2,-2,-3,-1,-2,0,-1,-1
60140004711,2,3,-1,0,-1,-2,0,0
60140016876,1,2,-2,-1,1,0,-1,-1
60140016876,6,4,0,-1,-2,-1,-3,8
60140025800,-13,-1,-1,-1,-1,-1,0,-21
60140025800,3,-1,-2,-1,-2,-1,-2,1
60140040871,-1,-2,-3,-1,-2,0,-1,1
60140040871,1,11,2,-1,-2,-1,1,0
60140042289,0,-4,-3,-3,-1,-2,-1,3
60140042289,-3,2,1,-1,-3,0,-1,-1
60140063268,0,-2,-2,-1,-1,-3,-1,-5
60140063268,-2,-2,-2,-2,-1,-1,-2,-2
60140064824,1,-1,-1,0,-1,0,-1,3
60140064824,-1,0,-1,-1,0,-1,-1,-3
60140077007,-6,-5,0,-1,-1,-2,0,1
60140077007,-6,-3,-1,0,-2,-2,-2,-2
60140085889,3,5,0,-1,0,-3,-2,1
60140085889,-3,-2,-1,0,-2,0,-2,1
60140100824,-3,-2,0,-1,-1,0,-1,-3
60140100824,-1,0,-2,0,0,-1,-3,-1
60140102318,4,11,-1,0,-1,-1,0,0
60140102318,-2,-7,-1,-1,-1,-3,-1,0
60140123413,-4,1,-1,-3,-1,-2,-1,-2
60140123413,9,5,-1,-2,-2,-2,1,5
60140124877,-5,-6,-1,0,-3,-2,-1,-1
60140124877,0,-3,-2,-1,-2,-2,0,-2
60140137011,-1,-4,-2,1,-1,-1,-1,-1
60140137011,0,-3,-3,0,-3,1,0,1
60140145923,-7,-5,-2,0,-2,-1,-2,0
60140145923,-2,2,-2,-1,-2,-1,-3,-1
60140160684,-2,1,1,0,-1,-1,0,-1
60140160684,-5,-1,-1,-1,-3,-2,-1,-6
60140162284,0,-3,-3,-1,-2,0,0,-1
60140162284,-2,0,-2,-1,-2,-1,-2,-3
60140183383,1,2,-1,-2,-1,0,-1,-1
60140183383,-3,-3,-1,-2,0,-1,-2,-5
60140184767,-3,-3,0,-3,-2,-1,-1,0
60140184767,5,-1,-2,-1,2,0,0,0
60140197051,-1,3,-1,1,1,-1,-1,0
60140197051,-5,-3,-1,-1,1,0,0,-1
60140205852,1,-1,0,1,0,0,-1,-1
60140205852,0,1,0,-2,0,-2,-3,-2
60140220695,-1,-16,-3,-2,-3,-2,-2,-6
60140220695,-15,-2,-2,-1,-1,-1,1,0
60140222288,-1,4,2,1,0,-1,-1,2
60140222288,0,-5,-2,0,-2,1,1,0
60140243378,-2,-1,-1,-1,-2,0,0,0
60140243378,8,-3,-4,-1,-1,-1,-3,0
60140244786,-2,-6,-3,-3,-1,-3,0,-2
60140244786,-3,2,0,0,0,-1,0,0
60140265920,-2,0,-2,-1,0,-1,-3,-2
60140265920,4,3,-1,-1,0,-2,-2,-1
60140267265,-3,-1,-1,-2,-2,-3,-2,-2
60140267265,3,-1,-2,-1,-1,0,-2,0
60140280912,0,2,-1,-2,0,-2,0,0
60140280912,-1,-1,1,-1,0,0,-2,-4
60140282270,-1,-4,-1,0,-1,0,-1,-1
60140282270,-3,-4,-2,-3,-1,-2,0,0
60140303356,0,0,-2,-2,-1,-3,-1,-1
60140303356,-1,-2,-1,0,-1,-1,-1,-1
60140304797,0,-1,0,0,0,1,0,6
60140304797,-3,-1,-3,-2,-1,-1,0,-4
60140325899,6,15,0,1,-2,1,-2,2
60140325899,-2,-2,-2,-1,0,-1,-1,-2
60140327352,5,3,-1,0,0,-1,-3,1
60140327352,3,2,1,1,-2,-2,-1,-2
60140340885,-2,-1,-2,-1,0,0,-2,-2
60140340885,8,1,-2,-2,-2,0,-3,-2
60140342271,-4,-8,-1,-1,0,-1,-1,-4
60140342271,-1,2,-2,-1,-1,-2,0,-2
60140363331,-2,-6,-1,-1,-2,0,0,-2
60140363331,-1,4,-1,-1,0,-1,-2,0
60140364772,1,-1,-2,-2,-1,0,-1,-3
60140364772,0,-4,-2,-1,-1,-2,-2,0
60140385815,-3,-2,-2,0,-2,-1,-1,1
60140385815,-2,-5,-1,-1,0,0,0,-1
60140387319,-2,0,-2,-2,-2,-2,-1,-1
60140387319,-1,-2,-1,-1,-1,0,-1,-1
60140400210,3,-1,0,-2,-1,1,-1,-1
60140400210,-7,-4,0,-2,-1,-3,-1,0
60140406994,2,-1,-2,0,0,-1,-2,-2
60140406994,4,2,-2,-1,-1,-1,-1,0
60140423383,-3,-5,0,0,-1,-2,0,-2
60140423383,3,7,0,-1,-3,0,0,-2
60140424773,-13,-15,-5,-3,-2,-3,-1,-3
60140424773,-6,0,-1,-2,-2,-2,0,0
60140445875,1,0,2,0,-1,-1,0,-3
60140445875,-7,-1,-1,-1,-1,0,-1,0
60140447321,12,12,1,-1,0,1,-1,0
60140447321,-6,-3,-1,0,-1,-1,-1,-3
60140459438,-4,-3,-4,-2,-2,-1,-1,-1
60140459438,0,-5,0,0,-1,-1,0,-1
60140474295,1,0,1,0,-1,-1,0,1
60140474295,1,-2,-1,-3,1,-1,-1,-1
60140483361,-2,1,-3,-2,0,-2,-2,0
60140483361,-1,-3,0,-1,0,-1,-2,0
60140484822,-1,-3,-2,-1,-1,1,-1,-2
60140484822,-2,-1,0,1,-3,0,0,-1
60140505738,-3,-3,-2,-2,-1,-2,0,-3
60140505738,-2,-2,-2,-1,0,-1,-1,-2
60140507246,-6,-2,0,-2,0,0,0,-1
60140507246,2,-1,-1,-1,1,-1,-1,-1
60140528205,-1,-2,-1,-1,0,0,-1,-1
60140528205,1,1,-1,0,-2,-1,1,-2
60140529784,-3,3,1,-1,-2,-1,1,-1
60140529784,0,0,-2,-2,-2,-2,0,0
60140543391,-9,-4,-5,-4,-3,-2,-1,0
60140543391,4,13,0,-2,-1,0,-2,-1
60140544845,-7,-4,-1,-2,-2,-1,-1,0
60140544845,0,-4,-1,-1,-1,-2,-1,2
60140565689,-1,-2,-1,0,1,-2,-1,-2
60140565689,2,-3,-2,-2,-1,-2,-1,0
60140571864,-4,1,-1,-1,-2,-1,-1,-2
60140571864,-1,-5,-2,-1,-1,-2,-1,-3
60140580193,2,3,1,0,0,0,0,-1
60140580193,-6,-8,-2,-1,0,0,-1,-1
60140586769,2,-2,-2,0,-1,-1,-1,0
60140586769,-5,0,-2,-2,0,-1,-2,-3
60140603219,4,1,2,-2,-1,0,0,-2
60140603219,-5,-5,-1,-2,-2,-1,-2,0
60140604767,-1,-1,-1,-1,-1,-2,0,-1
60140604767,-5,1,-1,-1,0,1,-2,-1
60140625701,-1,-4,0,0,-1,-2,-2,-1
60140625701,-5,-3,-1,-1,-1,-2,0,-1
60140627271,4,1,-1,-2,-1,-1,-1,-1
60140627271,3,2,-3,-2,-1,-1,-1,-1
60140640031,-3,-4,0,0,-1,-1,-1,0
60140640031,0,-1,-2,0,-1,-2,-1,-2
60140646840,-1,-3,-2,-2,-2,-2,-2,-6
60140646840,-6,-1,-1,-2,-2,-1,0,-1
60140663115,-3,-1,-2,-1,-1,0,-1,-1
60140663115,-8,0,-2,-4,-3,-2,-1,-3
60140664745,10,8,0,-2,0,-1,0,1
60140664745,-7,-2,-1,0,-1,-2,0,-1
60140685738,9,1,-1,0,-1,0,0,-2
60140685738,-11,-2,0,1,0,-1,-1,-1
60140687286,0,1,-1,-1,2,-1,0,0
60140687286,2,-3,0,0,-2,-2,-2,-2
60140700073,-2,4,0,-1,-1,-1,0,-1
60140700073,2,-1,-1,-1,-1,0,1,-2
60140706811,-5,-6,-2,-2,-2,-2,-1,0
60140706811,2,3,0,0,0,0,-1,0
60140730701,-5,-4,-1,-1,-2,-3,0,-1
60140730701,4,-3,-1,0,-1,-2,-1,0
60140732239,-5,-3,0,-1,-1,-2,-2,-3
60140732239,5,1,-1,0,0,-1,-1,1
60140745706,3,1,-1,0,-1,-1,0,0
60140745706,0,0,-2,0,-2,0,1,-2
60140747274,-2,1,-1,0,-3,-2,-1,-1
60140747274,-1,-2,0,-1,-2,-1,-1,5
60140759340,2,0,-1,-3,-1,-1,-3,-4
60140759340,2,-3,-1,-2,-1,-3,-1,2
60140768400,-7,1,-2,-1,0,0,-1,1
60140768400,-7,-3,0,-1,0,-1,-2,-2
60140783317,-4,-3,-1,-2,0,-1,-3,-1
60140783317,-5,-8,0,-1,-2,-1,-1,-1
60140784771,1,0,-1,1,-1,0,-2,0
60140784771,2,3,0,1,-1,-2,-1,-2
60140805648,-2,-5,-3,-2,-1,-2,-1,-2
60140805648,-1,5,0,-2,-1,0,-1,-2
60140807355,1,-4,-2,-2,-1,-2,1,-1
60140807355,0,-2,-2,-1,-1,-1,-1,-3
60140819394,-2,1,-3,-2,0,1,0,-1
60140819394,-8,-8,-4,-2,0,-3,0,-1
60140828299,-2,2,-1,0,-3,0,1,-1
60140828299,-8,-14,-5,-2,-2,-1,-2,-4
60140843144,2,0,-1,-1,-2,-1,-2,0
60140843144,3,2,-2,-2,-1,-2,-2,0
60140844772,-4,0,-3,-1,-1,0,-1,-1
60140844772,3,5,0,-2,-1,-1,-1,-2
60140865839,-2,0,0,-2,1,-1,-2,0
60140865839,-1,-5,-2,-1,-1,-1,-1,0
60140867392,0,-2,0,2,-1,-2,0,-3
60140867392,1,1,-2,-2,-1,-2,0,1
60140879595,1,-3,-3,-2,-2,-1,-1,-2
60140879595,3,12,2,0,-1,1,-1,-2
60140888353,3,1,0,-2,-1,1,-1,2
60140888353,0,-3,-1,-2,-1,-2,-1,-2
60140903324,0,0,0,0,0,0,-2,1
60140903324,2,2,-2,-1,0,-2,-3,-1
60140904775,-4,-3,-1,-1,2,-2,-2,-2
60140904775,-4,-4,-1,-1,-1,-1,0,0
60140924977,0,6,-1,0,-2,-1,0,-2
60140924977,4,-2,0,0,-1,-1,0,0
60140933362,-3,-6,-1,-2,-3,0,-2,-1
60140933362,-3,-1,-1,0,-1,-1,-1,-3
60140939258,-2,-2,-2,0,0,-1,-1,-1
60140939258,4,2,0,0,-3,1,-2,-1
60140948365,-12,-14,-3,-2,-2,-1,0,-1
60140948365,-2,9,-2,-3,-1,-1,-4,-3
60140963246,-3,-6,-1,1,-2,0,-1,1
60140963246,-2,-4,-3,0,-1,-1,-1,-1
60140964773,5,3,-1,-3,-1,-2,-4,-1
60140964773,1,1,0,1,-2,-2,0,-1
60140985642,-5,2,0,-3,0,0,1,-1
60140985642,-8,-3,0,2,1,-2,0,-3
60140987226,0,-3,-1,-1,-1,-3,-1,-1
60140987226,1,-3,-3,-4,-2,0,-2,-2
60140999554,0,2,0,2,0,0,-1,-1
60140999554,1,-9,-2,0,-1,-1,-2,0
60141008215,1,6,0,4,1,1,1,0
60141008215,-2,-3,3,-9,0,-7,-2,0
60141023193,-2,-3,-8,20,-10,-5,-1,-4
60141023193,-3,-3,-5,-20,1,9,-2,-2
60141024744,1,1,-7,-30,-1,-13,-3,0
60141024744,1,-1,3,5,-2,5,0,0
60141053413,-2,2,4,22,4,-5,1,2
60141053413,-2,-8,-4,0,-2,1,-1,-1
60141054806,0,-3,2,-4,-5,2,-4,-3
60141054806,-2,0,-4,-26,1,-3,-1,-2
60141059448,4,0,6,27,9,3,-2,-1
60141059448,-6,-3,-14,-56,-26,-2,-3,-4
60141068480,-4,3,0,26,4,3,3,-1
60141068480,-1,-2,1,26,-1,-6,-1,-2
60141082611,-4,2,-3,-32,-2,-3,-4,0
60141082611,7,7,12,10,14,1,4,6
60141089393,-2,-9,-17,-26,-19,-1,-3,-5
60141089393,2,-1,-6,-66,-7,2,-1,-2
60141105769,10,4,1,7,-3,0,3,4
60141105769,4,23,8,19,4,-7,-6,-4
60141107276,-13,-11,7,4,-3,-6,-2,-2
60141107276,1,-1,0,61,12,9,-1,-1
60141119438,0,-16,-9,11,6,2,0,-2
60141119438,7,-5,-14,-47,-16,-1,2,3
60141128335,-3,4,2,-2,3,10,-3,10
60141128335,11,-9,-7,-4,-2,-19,-12,-22
60141142522,-18,-4,12,-15,-1,9,5,4
60141142522,3,-5,-1,29,0,-16,2,8
60141157036,-2,-5,-3,14,-1,-2,-1,-5
60141157036,9,2,-4,-7,-4,5,1,0
60141165614,11,13,-3,-33,-2,8,1,8
60141165614,-61,-14,-4,-7,-3,-5,-7,-15
60141167283,55,17,12,25,3,-4,3,17
60141167283,12,6,-1,3,3,3,2,4
60141179254,-77,-15,0,7,4,4,-3,-32
60141179254,12,-1,-5,-12,3,10,4,5
60141188355,-27,-2,-3,7,-7,-21,-10,-4
60141188355,8,13,3,7,-9,8,6,7
60141202472,11,-2,-11,-31,-2,-5,-6,-8
60141202472,2,-5,7,25,6,0,-3,-6
60141209250,-1,-1,-2,18,11,5,1,-2
60141209250,-28,-4,3,-33,-9,-12,2,3
60141225667,24,-5,-8,18,-10,19,2,4
60141225667,-2,1,4,4,5,-12,-3,-5
60141227216,7,-2,-7,-22,-7,-4,-11,-10
60141227216,20,-3,-1,4,7,11,3,19
60141248773,-39,-10,-7,-14,-13,-25,-7,-30
60141248773,11,6,3,13,0,7,3,-7
60141250470,-14,-7,-3,-3,-7,-10,-2,51
60141250470,-5,-7,0,13,12,7,3,-1
60141262523,18,4,-3,-12,-6,-17,-16,5
60141262523,-5,14,5,35,2,14,17,6
60141269303,1,0,3,-19,8,3,-3,-31
60141269303,-24,-3,-9,-18,-13,11,1,-6
60141285618,17,0,-3,4,-1,-9,-8,17
60141285618,-3,-2,-4,36,1,-13,-2,-16
60141287239,4,0,4,-3,3,-5,-7,-18
60141287239,-3,2,3,-4,1,-17,-6,6
60141308100,7,3,2,2,-4,19,9,0
60141308100,10,-6,0,-22,-10,-3,-2,2
60141309722,-6,-1,-7,-3,-3,-10,-4,-1
60141309722,3,-5,4,11,-4,22,9,0
60141322520,-1,-6,-2,-23,0,47,15,-7
60141322520,23,-4,-3,4,-5,-79,5,13
60141329282,-5,2,-2,-18,-7,55,10,-4
60141329282,-7,-1,-4,31,29,68,13,-15
60141345689,11,4,2,4,-24,-111,-13,21
60141345689,2,1,-3,10,40,113,-14,-12
60141347257,1,-10,6,-5,0,10,-53,-14
60141347257,3,0,3,6,2,0,37,8
60141368117,15,0,0,-36,-29,50,13,0
60141368117,-46,-11,-2,24,-10,-128,-36,-7
60141369751,20,17,12,12,10,29,45,21
60141369751,-11,-2,2,4,14,63,-31,-21
60141381773,17,-10,2,14,-9,-10,15,-20
60141381773,21,-1,-11,-36,-21,32,9,-3
60141390754,-45,-9,-10,-6,-7,-12,-14,-31
60141390754,2,-4,-3,-15,-18,-46,8,3
60141405601,-2,2,-6,48,28,1,-15,-5
60141405601,-5,-6,0,-14,-16,12,-2,22
60141407211,10,8,-6,-3,18,3,8,-10
60141407211,2,2,4,54,-6,-45,-12,9
60141428130,-4,6,3,-18,7,-14,-20,-4
60141428130,1,-4,-2,-9,-9,-1,-4,1
60141429783,11,3,-1,9,-5,-18,25,9
60141429783,9,1,0,-37,-10,-11,-12,-15
60141441822,-38,-3,-4,15,29,22,0,11
60141441822,13,0,0,-5,-1,21,16,6
60141458357,-9,-4,-4,-23,-18,-28,-3,3
60141458357,12,-3,-8,18,-15,-27,-13,6
60141465602,-27,-4,7,-9,7,7,-1,-8
60141465602,7,5,5,-1,3,10,8,11
60141467217,0,-9,-7,26,-10,-9,-10,-5
60141467217,7,0,-5,-21,-6,-13,-10,3
60141489528,3,-1,-6,25,2,-20,-6,-3
60141489528,-22,-7,-3,-24,3,18,4,-7
60141491148,15,25,0,-26,8,9,13,11
60141491148,-30,-14,5,23,5,7,-4,-18
60141501757,-2,0,1,-17,-4,-8,-4,12
60141501757,-34,-5,1,53,-8,9,-11,-9
60141510777,-1,-2,-5,-56,4,6,-3,-11
60141510777,18,5,1,-20,-6,-10,-2,12
60141525618,-22,-8,2,46,-2,5,10,1
60141525618,17,2,-4,-41,-3,9,-16,-23
60141527263,13,-6,3,26,2,-25,-6,0
60141527263,-33,-4,-8,-30,-7,-18,-9,-8
60141548097,7,-18,1,40,-2,3,1,-5
60141548097,-3,1,-7,-19,3,9,6,-10
60141549714,-7,-1,0,-7,-1,4,1,-2
60141549714,48,20,6,25,3,-1,-8,22
60141561750,-11,-9,0,-24,-6,2,10,-54
60141561750,16,7,4,-4,14,-1,1,14
60141570775,9,-3,2,-4,-17,2,-3,13
60141570775,-23,-24,-3,30,9,0,3,-5
60141585611,29,20,-4,-77,-23,0,-8,21
60141585611,-26,-6,5,43,12,-1,2,-9
60141587213,-10,10,3,7,-4,-14,-2,4
60141587213,48,5,0,-5,4,-8,5,40
60141608098,-73,-24,-8,-70,-14,1,1,-9
60141608098,42,0,5,27,16,1,-3,36
60141609685,27,-6,4,17,1,4,1,-4
60141609685,-83,-26,-9,5,-8,-4,-2,-28
60141621806,59,14,1,-6,14,0,-3,28
60141621806,-1,12,2,-15,-8,4,4,0
60141630796,-16,2,-2,-19,12,6,0,-7
60141630796,-26,-32,0,-4,-10,-5,-3,-2
60141645630,67,13,0,28,9,1,-9,17
60141645630,-14,-6,0,-5,-7,-15,0,-74
60141647236,-4,2,5,-31,-5,10,1,10
60141647236,13,21,-4,-22,2,12,9,-8
60141668101,30,16,3,58,8,-18,-10,27
60141668101,-16,-5,-10,-70,-15,-11,-11,-12
60141669741,-30,-5,3,26,-2,2,8,51
60141669741,65,26,6,19,1,11,4,-30
60141681779,20,10,7,1,3,6,5,1
60141681779,-48,-6,8,4,-2,-2,4,60
60141690749,-24,-2,8,8,-6,-8,-1,-59
60141690749,-16,-35,-15,0,2,1,-8,40
60141705606,-68,-23,4,-5,1,-7,-5,-43
60141705606,-40,-11,-5,8,10,22,12,-24
60141707217,7,-8,-4,-30,-16,-35,-14,3
60141707217,-112,13,4,40,18,20,20,-15
60141728188,32,2,7,19,11,13,1,-30
60141728188,75,-10,26,26,-18,-8,-4,44
60141729764,4,10,-29,16,10,-12,-7,-31
60141729764,99,17,5,-31,-5,14,6,24
60141741828,-70,0,-6,1,3,18,-12,-22
60141741828,-2,0,-14,-35,-7,-5,9,-3
60141750731,86,22,19,57,5,-46,-5,17
60141750731,-20,-5,-7,-67,-5,50,2,-19
60141766078,18,-5,-25,47,6,-14,-2,25
60141766078,1,1,-4,3,-12,-20,-18,-10
60141767682,-17,-10,-12,-7,-6,-20,-11,-16
60141767682,-19,7,10,13,9,-27,-5,-15
60141788155,19,0,-9,-122,-26,34,17,13
60141788155,-26,-3,-6,85,27,8,0,-19
60141789742,66,-14,-10,-64,-21,0,4,28
60141789742,2,9,-1,56,10,6,0,-21
60141801722,54,-3,-1,30,10,-22,-17,9
60141801722,6,6,-7,-22,13,13,4,-1
60141810818,-14,-8,3,-10,2,39,5,4
60141810818,-11,-4,-4,-38,-32,-20,-3,-7
60141825623,-4,-10,-2,7,-6,-16,9,0
60141825623,54,29,10,-7,-23,-27,-10,10
60141827218,-28,-4,-5,4,-4,31,4,-18
60141827218,-28,-9,-4,-22,4,-27,-7,-8
60141863779,-17,2,-1,16,9,-15,10,5
60141863779,6,-9,-6,-8,7,45,9,2
60141865386,-28,0,1,5,3,-18,-3,-5
60141865386,35,8,5,-11,-20,-6,-17,3
60141866196,-42,-8,-10,-19,0,1,-7,-19
60141866196,-21,-4,-2,1,-9,-25,3,-2
60141870745,-2,-3,-2,23,6,19,-3,-18
60141870745,13,-5,-3,3,9,-23,-4,7
60141884968,20,4,8,29,3,1,-6,9
60141884968,-25,-8,-8,-29,-5,24,13,-19
60141891793,-54,-13,-1,23,13,3,4,8
60141891793,16,2,-1,-21,-18,-35,-11,1
60141908096,-7,5,1,-5,-3,18,1,3
60141908096,-2,7,-2,0,1,-15,-11,3
60141909720,8,-5,3,15,6,22,11,18
60141909720,-6,1,-4,-22,-2,-7,1,-14
60141921787,20,3,4,-10,-15,-10,-4,0
60141921787,26,0,-1,28,12,-1,-3,10
60141938271,-12,-3,-4,-42,-9,-3,-4,-18
60141938271,17,2,4,52,11,13,0,21
60141944928,-39,-5,-4,-13,-7,-13,1,-13
60141944928,17,-2,3,-5,-9,4,-9,0
60141959255,-1,-2,-6,5,-3,0,-5,-15
60141959255,1,-3,3,5,7,-9,9,6
60141968126,34,5,2,-22,-2,12,1,14
60141968126,-57,0,-1,1,-3,-5,-3,-31
60141969742,30,1,-1,1,5,4,3,17
60141969742,-13,-9,-5,8,-1,0,0,-26
60141981775,-1,-1,4,-5,-5,-1,2,-2
60141981775,3,-2,-3,-3,2,-9,-4,11
60141990813,-2,7,2,11,-2,1,-10,-21
60141990813,0,-1,-2,-12,10,1,5,12
60142004953,10,1,0,-12,-26,1,-3,4
60142004953,3,-16,-8,-3,-1,-6,-5,-3
60142011754,-9,-1,-2,2,7,0,1,0
60142011754,-6,0,1,16,-2,5,-1,5
60142028075,-8,1,1,-17,0,-3,-2,-14
60142028075,12,-2,2,16,0,-1,-4,-1
60142029701,-3,2,0,2,1,-6,1,5
60142029701,63,16,-2,-22,-10,2,0,13
60142041748,3,4,1,8,3,0,-2,20
60142041748,-1,-13,-2,-10,6,1,1,-39
60142050742,7,0,-5,-32,-9,-2,2,10
60142050742,2,7,-2,60,3,0,-9,15
60142064914,13,11,-2,-22,-3,-4,5,-16
60142064914,-17,8,4,-3,1,-3,-2,11
60142071738,-16,2,3,4,1,-1,-1,-30
60142071738,-43,-34,-7,-22,-11,-1,-5,-24
60142088114,39,-4,-1,27,20,-1,0,4
60142088114,3,5,3,-26,-27,-3,-7,17
60142089732,34,-11,-9,-4,-2,-1,8,5
60142089732,-2,-8,-6,-8,-2,0,-4,-34
60142112027,-60,-16,-3,31,11,-1,2,35
60142112027,51,17,4,-12,6,1,-1,-9
60142113647,-32,-29,4,-1,-3,2,2,47
60142113647,3,4,-4,17,-5,-4,-10,-39
60142124960,-41,-23,-9,-15,-5,-3,-1,-2
60142124960,-37,-42,-6,12,-10,-13,-24,-81
60142131724,-11,11,-8,-10,-1,0,5,14
60142131724,27,-5,-10,-8,0,-1,1,0
60142148121,-2,17,27,-4,0,-3,-6,-8
60142148121,26,8,-11,-17,-5,-1,6,15
60142149724,-49,-1,9,39,4,0,-2,-19
60142149724,2,4,-22,-3,-3,5,-3,10
60142170655,-28,-9,10,-34,-11,-26,-9,-44
60142170655,46,-31,-18,21,12,0,4,30
60142172248,-37,-6,8,6,-5,15,-3,-31
60142172248,27,9,8,-13,1,-1,6,30
60142184967,8,2,6,33,3,3,-5,8
60142184967,37,13,2,-31,-1,-7,5,4
60142191793,-48,3,-9,14,1,3,-4,-25
60142191793,-16,-23,21,-5,-6,2,0,1
60142208126,4,-6,-18,-41,-16,-34,-11,-8
60142208126,-19,2,-5,49,17,10,8,17
60142209811,55,9,-1,1,13,20,-1,11
60142209811,-2,15,6,-11,-3,-15,-5,0
60142230575,1,5,-13,-16,-12,-4,10,8
60142230575,-4,13,6,-12,2,2,1,15
60142232210,4,9,7,37,3,2,-15,-15
60142232210,-4,2,7,14,10,11,21,25
60142244980,16,-1,-3,24,6,9,0,8
60142244980,-15,-1,4,-16,-14,-14,-2,-5
60142251771,7,-11,-1,-19,-10,-8,-2,-1
60142251771,-16,-2,-13,-23,-9,-11,-9,-2
60142268605,3,0,-4,48,6,7,-3,-8
60142268605,-19,6,4,11,4,12,8,8
60142270208,5,-6,-10,-16,2,-18,-5,8
60142270208,-3,23,9,0,-1,2,0,-4
60142290597,1,2,-1,1,6,11,1,1
60142290597,-10,0,0,-14,-2,1,-4,-2
60142292224,10,-2,-1,-11,0,-7,3,1
60142292224,-4,-1,-1,0,-2,-1,-8,-7
60142304282,4,-2,1,-5,2,9,1,-1
60142304282,-5,1,-1,24,-1,-5,-3,1
60142313239,26,8,1,-37,-8,-8,-2,3
60142313239,-31,-6,-6,-11,4,6,4,-2
60142328122,-3,-1,6,25,-1,2,-2,-3
60142328122,0,1,-2,-31,-2,-1,5,9
60142329699,-4,-1,4,-17,-16,-2,4,-3
60142329699,-7,-8,-3,59,19,-3,-9,-7
60142350587,4,7,-3,-18,-4,-7,3,2
60142350587,-1,-9,1,10,3,16,4,1
60142352216,16,-13,-5,-11,-8,6,1,2
60142352216,-34,-4,-2,-32,-6,-31,-3,-8
60142364306,3,-2,-7,14,-1,9,-5,-1
60142364306,26,0,5,12,4,-3,-3,-2
60142373296,-5,3,-5,7,0,5,5,9
60142373296,14,-3,0,-22,-5,11,0,2
60142388103,1,-2,-4,11,-4,-3,-2,1
60142388103,7,6,-1,-29,-9,-15,-1,3
60142389723,-8,-4,0,29,7,-3,-2,-2
60142389723,2,5,0,3,-4,-2,-3,-3
60142410629,-2,-3,-4,-24,-2,3,1,-2
60142410629,-11,6,-2,-2,2,3,-4,-1
60142412213,2,4,-2,9,5,-2,-3,-2
60142412213,-10,-5,-1,20,-1,-9,1,2
60142424249,-3,5,-1,-30,-6,12,2,-1
60142424249,-18,-22,-5,19,0,-2,-6,-5
60142433277,4,8,0,-6,1,-13,2,-1
60142433277,10,-2,-1,-19,-5,4,-3,0
60142448828,0,-3,0,-1,0,-2,1,-1
60142448828,-8,7,-1,-8,-5,-1,-4,-5
60142450495,2,-4,-1,1,-3,-1,-2,-3
60142450495,2,-3,0,-11,-1,5,0,1
60142471051,25,4,2,9,6,3,1,-2
60142471051,-26,-6,0,-17,-2,-2,3,-2
60142472684,11,2,0,27,3,-6,-4,2
60142472684,2,-3,-2,-30,-9,3,1,1
60142484259,-19,-3,0,8,4,0,-2,-1
60142484259,32,8,-1,4,-2,7,3,-3
60142493268,-10,-7,-2,-40,-14,-19,-4,-2
60142493268,-2,-11,-2,10,3,16,3,1
60142508129,-10,-8,-11,-22,-3,-14,-4,-3
60142508129,-5,4,0,-23,-2,2,2,0
60142509711,-23,-27,-2,13,-2,-6,-1,-3
60142509711,8,8,-1,16,-1,4,-4,-2
60142529962,2,-2,1,-16,-5,-16,-2,-1
60142529962,-8,0,-2,20,4,2,0,-1
60142530707,22,12,-1,-7,3,1,-3,1
60142530707,0,1,-2,9,-6,4,-1,0
60142552376,-17,-9,-2,-8,3,2,1,-3
60142552376,27,18,3,12,-2,-5,-4,0
60142553211,-24,-1,2,24,3,7,1,0
60142553211,-2,0,-3,-32,-4,-4,-1,-2
60142567428,1,-2,-6,29,-8,-9,-3,-2
60142567428,0,0,3,12,9,-6,-4,-1
60142568252,3,-16,-3,-7,0,3,-1,-1
60142568252,-1,-3,2,19,4,1,0,1
60142589891,2,0,0,-2,-2,6,4,1
60142589891,-17,-7,-4,-39,-6,-4,-2,-1
60142590710,1,1,-5,-8,-7,-2,-2,-2
60142590710,-4,1,-3,8,1,-8,-4,-3
60142612406,3,4,0,-10,3,5,-4,0
60142612406,-12,-13,0,15,1,3,-1,0
60142613186,6,3,4,8,1,-11,-1,0
60142613186,5,5,-3,-17,1,7,-1,-3
60142627415,6,6,3,18,3,-10,-2,1
60142627415,-5,-4,-5,-49,-11,-2,-3,-3
60142628185,0,3,0,44,3,0,-3,-2
60142628185,-12,-7,2,-27,-2,5,2,-4
60142649898,-4,-6,-7,-24,-5,-3,-4,-2
60142649898,-3,3,-2,16,2,-3,-3,-2
60142650668,10,7,-1,-13,-3,3,1,2
60142650668,9,3,2,18,2,-8,-1,0
60142672496,-27,-4,1,5,7,3,-2,-15
60142672496,-10,-5,-4,8,-9,0,2,2
60142673202,13,7,0,10,5,-2,-1,3
60142673202,20,-5,-2,0,2,4,3,18
60142695574,-67,-19,-7,-16,-3,1,-8,-41
60142695574,15,-6,-4,17,-1,-3,0,3
60142696374,-5,9,4,-11,1,9,3,-2
60142696374,0,0,-5,-10,-4,-17,-5,0
60142709918,31,5,4,17,1,1,5,15
60142709918,-3,-6,-1,28,0,2,-1,-5
60142710730,-5,-4,-4,-11,-2,1,-1,-5
60142710730,-6,-14,-2,-18,-6,-4,-3,-7
60142732410,15,5,4,14,4,3,2,7
60142732410,-9,4,5,22,2,-4,-2,3
60142733220,3,-5,-5,-14,-8,-1,-2,1
60142733220,-11,3,4,28,4,-2,-2,-7
60142747422,7,-3,-2,-14,0,-1,0,8
60142747422,-7,-1,-1,-13,1,1,0,-4
60142748228,-3,11,1,5,0,-1,-2,-5
60142748228,-4,-5,-1,-3,4,-2,-3,-9
60142769923,-8,1,-1,-26,-11,-1,-1,6
60142769923,2,-1,-2,12,4,-3,-1,-2
60142770694,-9,-2,-1,-24,-6,-1,-2,-2
60142770694,-2,0,2,2,-1,0,1,-1
60142792397,1,-8,-2,14,7,2,-3,2
60142792397,3,12,1,-16,-5,-1,0,1
60142793182,-10,-11,-2,-9,-1,-1,-1,-3
60142793182,-4,1,0,1,-2,-1,1,1
60142807434,12,2,0,-11,-2,1,1,1
60142807434,-5,-5,-3,36,-3,-3,-2,-3
60142808234,2,-2,-2,-24,4,0,1,1
60142808234,2,3,-1,6,-2,-1,-1,-1
60142829922,8,6,-1,-11,0,3,0,0
60142829922,5,1,2,-3,5,-1,-2,-1
60142830743,0,-2,3,60,1,0,0,-2
60142830743,-6,-4,-5,-29,-8,-3,-2,-3
60142852421,2,0,1,41,8,-1,0,0
60142852421,-5,-2,-4,-31,-13,-2,-3,-3
60142853186,-2,-3,1,1,7,0,-1,0
60142853186,0,3,5,33,4,-1,-1,-3
60142867397,4,1,0,-12,-2,1,-1,-2
60142867397,-6,-2,-5,-17,-6,-3,-2,-1
60142868241,2,2,5,25,5,2,-1,-1
60142868241,-4,-1,-7,5,0,-3,-1,-2
60142889710,0,0,1,-43,-15,-2,0,-4
60142889710,-4,-4,-1,15,6,-1,0,-1
60142897460,-1,-1,0,7,2,0,-1,4
60142897460,-3,-4,-3,-23,-3,-1,-2,-9
60142912381,5,0,1,20,6,-1,0,2
60142912381,-6,-3,-9,16,-14,-3,-1,-7
60142913194,-7,-3,-5,12,-1,-2,-2,-1
60142913194,-1,-3,-1,-11,0,-1,-2,0
60142927396,7,3,-3,0,-3,-1,-2,3
60142927396,-9,-3,-3,-18,3,-1,0,-6
60142928191,0,1,0,-2,-1,-3,-1,-4
60142928191,1,3,-2,-14,-7,-2,-1,1
60142949909,-7,11,3,20,4,-1,-2,-1
60142949909,-2,-2,2,6,4,0,1,0
60142950672,0,-2,-7,-29,-10,-2,-1,-2
60142950672,1,-1,1,17,4,0,0,2
60142972443,9,6,-5,-33,-8,-1,0,1
60142972443,3,-2,1,-5,7,1,1,5
60142973281,-9,-7,-13,-93,-23,-3,-2,-2
60142973281,-12,2,1,21,2,-1,-1,-4
60142997084,-2,-9,-1,10,2,0,1,-1
60142997084,1,-3,-1,-12,-2,-3,-1,1
60142997908,2,-1,1,3,5,-1,-1,-2
60142997908,2,-1,-1,-5,-3,-2,-1,3
60143009890,-3,-5,0,3,-3,-1,-2,-2
60143009890,-5,-15,4,11,5,0,-3,-2
60143010700,6,3,-4,-4,-7,-2,0,1
60143010700,5,1,-2,-3,0,-1,-1,-2
60143032464,-2,-3,0,22,2,-1,-1,-2
60143032464,0,5,0,-34,-6,1,0,-1
60143033194,-3,-1,6,24,-1,-1,0,-2
60143033194,-1,-9,-6,-9,-3,-2,-1,2
60143047492,-5,0,-1,1,0,-2,-1,-2
60143047492,7,3,1,12,4,-1,-2,1
60143048218,7,3,2,11,1,-1,-2,-1
60143048218,-4,-1,-1,-10,3,1,-1,-2
60143069941,0,-3,-1,28,-2,-4,-1,0
60143069941,4,3,-3,-10,-2,1,-1,1
60143070719,-13,-27,-2,9,2,-1,0,-1
60143070719,6,6,4,19,4,0,-1,-2
60143092782,-4,-5,-4,3,-8,-2,-2,0
60143092782,-2,6,0,-13,-3,-1,-2,-1
60143099984,-5,-9,-12,-35,-3,0,4,1
60143099984,-1,5,-1,12,1,-3,-2,-4
60143107428,0,0,0,-12,0,-1,0,0
60143107428,-4,3,0,-3,-2,0,-2,-1
60143108214,-4,7,1,4,-1,-2,-2,0
60143108214,3,0,1,-12,-2,-1,-1,1
60143129904,7,6,-3,-11,-3,-1,0,-3
60143129904,-1,-2,-6,6,-4,-3,-2,0
60143130705,10,4,3,10,2,0,-3,5
60143130705,-8,-11,-4,-7,-7,-2,-1,-9
60143152399,-1,13,0,5,2,-3,-1,-2
60143152399,-2,1,-1,2,2,0,2,0
60143153186,-14,-23,-3,-2,-2,-1,-3,-3
60143153186,-1,2,0,-4,-2,0,-2,-1
60143167417,0,-3,0,-2,0,0,-1,4
60143167417,1,5,-2,-3,-3,-1,-2,-6
60143168218,6,6,1,0,1,-1,-1,0
60143168218,-6,2,0,2,-3,0,-2,-4
60143198087,-3,-17,-4,-1,-2,-1,-1,3
60143198087,1,3,0,-5,-3,-1,-2,0
60143198883,-3,3,1,9,2,1,-1,-3
60143198883,5,-5,-8,-10,-3,-1,2,7
60143212423,-21,-6,3,-1,1,1,0,0
60143212423,7,2,1,-4,-2,-1,1,2
60143213211,-10,2,-1,5,-2,-2,-3,-11
60143213211,12,2,1,-2,-1,-2,-2,3
60143227445,-2,16,0,-6,-2,-1,0,2
60143227445,-15,-9,-1,2,-2,-3,-2,-4
60143228229,2,6,2,3,1,-2,-1,1
60143228229,-2,4,-1,-5,-2,-1,-1,1
60143249903,16,-3,-4,-2,-2,-1,-2,-4
60143249903,1,-5,3,1,0,-2,-2,-1
60143250729,-29,1,-2,-2,-1,-1,0,0
60143250729,9,4,-2,-1,0,-1,0,1
60143273078,4,-5,-1,-1,1,-2,-1,-2
60143273078,-2,-4,-1,-1,-1,-2,-1,-2
60143273889,6,-3,0,-3,-1,-2,0,0
60143273889,-6,6,0,-2,-2,0,-3,-7
60143287437,-4,-11,-3,-4,-2,-1,0,4
60143287437,13,9,-1,-2,-1,-2,-2,-3
60143288197,5,2,2,0,-1,1,1,-2
60143288197,-4,-3,1,-5,-2,-1,-2,1
60143309916,5,-6,-11,-4,-3,-1,-2,-3
60143309916,-1,2,1,-1,3,1,1,2
60143310671,14,3,0,-1,0,-1,-2,-2
60143310671,-11,4,-1,-3,-1,-3,-2,-3
60143332400,-4,-6,1,1,-1,0,-2,-4
60143332400,-12,-3,-4,-3,-3,-3,-2,-3
60143333183,2,-10,-8,-5,-6,-4,-4,-1
60143333183,6,-4,2,1,0,0,-1,12
60143347404,-6,3,3,-1,-2,-2,-2,-15
60143347404,10,-2,-1,0,0,-2,-1,5
60143348216,-4,3,-1,0,-1,-1,-1,-1
60143348216,-7,-8,-5,-2,-2,0,-1,-1
60143369904,1,0,-2,-2,-2,-1,-2,0
60143369904,-1,-5,-2,2,0,0,-2,-2
60143370674,3,1,0,-2,0,-2,-1,-1
60143370674,-4,-5,-1,-2,-1,-2,1,-2
60143400606,3,8,3,0,-3,-1,-1,2
60143400606,-6,-15,-2,0,-3,1,0,-4
60143401408,5,-4,1,2,5,2,-2,3
60143401408,-6,-4,1,-1,0,-3,0,-6
60143407444,-1,-3,-1,-3,-3,-1,-2,-1
60143407444,-1,4,-1,-1,-4,-3,-1,1
60143408225,4,1,-1,-1,-1,-1,0,-1
60143408225,-1,-8,-1,-2,-1,-1,-2,-11
60143429936,-2,-3,0,1,0,0,-3,1
60143429936,-2,2,-4,-2,-1,-3,-3,-2
60143430834,12,10,-2,-2,-1,-2,0,-1
60143430834,-2,10,-1,0,0,0,0,-1
60143453152,-7,-22,-6,-1,-1,-2,-1,-1
60143453152,-1,-3,-2,0,0,0,-1,0
60143453935,-4,3,0,0,-2,-1,0,1
60143453935,5,-1,-2,-2,-4,0,0,2
60143467422,-1,2,-1,-2,1,-2,-2,0
60143467422,0,-1,-3,-2,-1,-1,-2,2
60143468233,3,-5,-1,-1,-2,-2,-3,-2
60143468233,-7,-6,-4,0,0,-1,-1,-1
60143489888,-4,4,-2,-3,0,0,-1,0
60143489888,-3,1,0,-1,1,0,0,-3
60143490712,-5,1,-2,0,-1,-1,0,-3
60143490712,-4,-6,-2,-2,-3,0,-1,-2
60143513145,2,3,0,0,1,-1,2,-1
60143513145,0,0,-3,0,-2,-1,0,-1
60143513919,-4,0,0,-2,-2,-1,-1,-2
60143513919,4,-2,0,0,0,-1,0,2
60143527420,0,2,1,0,-1,-1,-1,0
60143527420,1,-5,-2,-1,1,-2,0,-2
60143528229,-4,3,0,0,-1,0,-2,4
60143528229,0,-2,-3,-1,-1,-2,-1,-4
60143549906,-8,-22,-6,-1,0,-2,-3,-2
60143549906,11,11,3,1,-1,0,1,2
60143550722,-1,-1,-1,0,-2,-1,0,-1
60143550722,3,1,0,-2,0,-1,-2,0
60143573054,0,4,-1,-1,-2,0,-1,-1
60143573054,-11,-23,-2,0,-1,-1,-2,-2
60143573824,5,-1,1,0,-1,-2,0,-3
60143573824,-21,4,1,-2,-4,-3,-3,-3
60143603140,13,2,2,1,1,-1,0,8
60143603140,-10,2,-1,-2,-2,-1,-3,-7
60143603921,-3,-1,0,0,-1,-2,-1,-2
60143603921,-1,-7,-3,0,-2,0,-2,-1
60143609900,-1,7,0,0,-1,-1,1,-2
60143609900,-2,2,-3,0,0,0,-2,0
60143610718,-1,-4,-4,-2,-2,-1,-1,-1
60143610718,5,-2,-2,0,1,0,0,-7
60143633105,3,1,5,1,1,-1,1,1
60143633105,-2,0,-4,-2,2,0,-1,1
60143633877,-2,-2,-2,-3,-2,-1,-2,-5
60143633877,1,2,-1,0,-3,-2,0,3
60143647427,-3,5,2,0,-2,-2,-3,-2
60143647427,-2,-2,0,-1,-2,-2,0,-4
60143648206,2,-2,0,-1,-1,0,-1,4
60143648206,-2,-4,-4,-2,-2,-2,0,1
60143669907,-6,-2,-3,-1,0,0,0,-3
60143669907,1,2,-2,-3,-2,-2,-1,2
60143670756,-7,-1,-1,-1,1,0,0,-3
60143670756,2,-1,-4,-5,-2,-1,-1,0
60143693080,0,3,-1,-1,-3,-2,-1,-3
60143693080,-7,-17,-1,-2,0,-1,0,0
60143693922,-2,4,1,-3,-2,-2,-3,-2
60143693922,-4,0,-1,0,0,0,0,1
60143707154,-8,-22,-8,-5,-4,-4,-3,-14
60143707154,7,10,4,0,0,1,-1,1
60143714908,4,10,-1,-1,-3,-1,-1,-1
60143714908,-2,0,1,1,-1,-1,0,1
60143729897,15,7,-2,-2,-2,-2,0,9
60143729897,-8,-2,1,-2,-2,-2,-1,-9
60143730619,-5,-5,-1,0,1,0,0,-2
60143730619,6,3,1,-1,0,-2,-2,2
60143753129,-5,1,-2,0,0,-1,0,1
60143753129,-2,-1,-3,-3,-2,0,-2,0
60143753907,0,-1,1,1,0,-3,0,1
60143753907,-5,-4,-4,-3,-2,-1,-2,-3
60143766768,1,2,0,0,0,1,-1,0
60143766768,-15,-6,-2,-1,-2,0,-2,1
60143774921,-4,-4,-3,-2,-1,1,-1,-3
60143774921,3,1,2,0,0,0,0,3
60143789910,-4,0,2,1,-1,-1,-2,-1
60143789910,5,3,-4,-2,-1,-2,-1,-1
60143790851,-2,-4,0,-1,-1,-2,-1,-1
60143790851,-1,-1,0,0,-3,0,-1,-2
60143813184,-1,4,1,-1,0,0,1,-1
60143813184,-2,-1,-1,1,-2,-2,-1,6
60143813921,3,-1,-2,0,-1,-2,-1,-3
60143813921,3,3,-1,-1,1,-1,-1,0
60143826699,-3,-2,-2,-3,-1,-1,-3,-2
60143826699,-1,-4,0,0,-1,-2,-1,0
60143834951,6,12,-1,1,-1,0,-1,0
60143834951,-7,3,1,1,0,1,-1,-4
60143849854,5,3,-3,-1,1,0,1,0
60143849854,-1,-5,-1,-3,0,-2,-1,-1
60143850680,-4,2,-2,-2,-1,1,-1,-3
60143850680,6,-1,-1,-2,-1,-2,-2,-2
60143873138,-8,-4,-1,1,0,0,-2,1
60143873138,7,8,0,0,-1,-1,1,-3
60143873880,-9,-10,-3,0,-1,-2,-2,-1
60143873880,0,-1,0,-1,0,-1,-3,1
60143886759,-4,-2,1,-3,-2,-1,1,0
60143886759,0,-2,-1,-1,-1,1,-2,-1
60143902483,1,-6,0,-1,-1,0,-1,1
60143902483,-4,-7,-2,-3,0,-3,-2,-2
60143909934,0,1,-1,0,-1,-3,-1,-1
60143909934,-3,0,-2,-1,-1,-2,-2,-2
60143910729,0,-4,-2,-1,-3,-1,-1,-2
60143910729,-2,-3,-3,0,2,-1,-1,0
60143933161,-1,-3,-2,-2,-4,-1,-2,-2
60143933161,1,1,0,2,1,0,-1,0
60143933899,5,-3,-2,-1,-6,0,0,6
60143933899,-9,0,2,2,9,1,0,-6
60143946804,9,8,1,-1,-1,-1,-1,1
60143946804,-3,-4,-2,-1,-3,-2,1,-3
60143954881,12,8,-1,-2,-4,-2,-2,-7
60143954881,-9,-19,-1,1,-5,0,1,0
60143969897,10,-1,0,-1,0,-1,0,-5
60143969897,-10,3,2,1,-1,-1,-2,21
60143970697,0,-1,-2,-3,0,0,0,-28
60143970697,4,3,0,-2,-4,-1,-1,-1
60143993150,-7,-2,-3,-2,0,-1,-3,-8
60143993150,10,10,2,0,-1,0,-1,-1
60143993906,-5,-4,-2,0,1,-3,0,8
60143993906,-6,4,-2,-4,-4,-1,-1,4
60144006771,2,2,-2,0,-1,0,0,-9
60144006771,-5,-2,-2,-1,-1,-2,-2,-7
60144014923,-8,-5,-2,-1,-1,-1,-2,5
60144014923,4,-10,-2,0,-2,-1,-2,-1
60144029905,-5,-3,-1,-1,-2,0,1,7
60144029905,-2,-2,-1,-2,0,-2,0,-7
60144030679,-5,-5,-1,0,3,-1,1,2
60144030679,3,1,0,-1,-3,-1,1,2
60144053182,-4,-5,-1,-1,-1,1,-3,0
60144053182,-1,-4,-2,-1,-3,0,-3,-5
60144053872,-2,0,0,0,-1,0,-1,3
60144053872,-2,3,-2,-1,-3,-2,-2,-4
60144075603,-4,-3,-1,-2,-2,-3,0,-1
60144075603,4,3,-2,-2,1,-1,0,-3
60144076402,-4,-3,-3,-1,-1,0,-1,4
60144076402,0,2,-1,-4,-4,1,0,-1
60144089942,-2,-2,0,0,-2,1,-1,0
60144089942,0,-4,-2,-1,1,0,-2,0
60144090697,-3,-1,-2,-1,-1,-2,-1,-10
60144090697,1,0,-3,0,-1,-1,-1,0
60144113086,-24,-3,-2,-1,-2,-2,-1,-11
60144113086,8,5,-1,0,-1,0,0,-3
60144113916,-18,-2,-1,-2,1,-2,0,3
60144113916,9,4,0,-1,0,-2,-1,0
60144135557,4,-2,-1,-2,0,0,-2,3
60144135557,-22,-6,0,1,-2,-1,-1,-2
60144136399,-2,1,-2,-1,-1,-1,-2,-1
60144136399,4,-6,-1,-3,-2,-1,-2,3
60144149912,10,7,-1,0,-1,-1,-1,2
60144149912,1,-4,-1,-1,-1,0,0,-3
60144150695,4,-2,0,-1,-1,0,-1,3
60144150695,-9,1,0,-1,0,0,-1,-4
60144173125,2,-4,-1,0,-1,0,-2,0
60144173125,1,0,-2,-4,-4,-3,-2,4
60144173956,-3,-4,0,-1,-2,-2,-2,-6
60144173956,-3,-6,-2,0,0,-2,-1,-2
60144195593,-5,-3,0,-3,-2,-1,0,0
60144195593,4,-2,-1,-2,-2,-2,-1,-1
60144196378,1,0,0,-2,-3,-2,-1,2
60144196378,-2,0,-2,-1,1,-1,0,-2
60144210414,-3,-2,-3,-1,-1,-1,-1,-1
60144210414,-3,-3,0,-1,-1,-2,0,-6
60144211185,-2,-3,-1,0,1,0,-2,0
60144211185,5,4,-1,0,-1,-1,-1,1
60144233085,0,-5,-1,1,0,-1,-2,6
60144233085,1,9,-2,-2,-1,-1,-1,-7
60144233882,-3,-25,-1,-2,-1,-2,-2,-8
60144233882,-5,-10,-3,0,-2,-1,0,6
60144255631,15,12,2,0,1,-1,2,4
60144255631,0,-2,-2,-1,-3,-1,-2,-2
60144256456,4,6,1,-2,-2,0,0,0
60144256456,4,1,-1,-2,-2,-1,-2,-2
60144269926,-1,-8,-2,0,-3,-3,-2,-5
60144269926,-4,-2,-2,1,2,1,1,-2
60144270764,0,4,0,-2,-1,-2,-1,2
60144270764,-5,-4,-1,-3,-3,-1,-4,-3
60144293095,0,-1,-2,1,-3,-2,-2,0
60144293095,7,0,0,-1,3,0,0,-4
60144293890,-8,-2,-1,1,0,0,-1,-6
60144293890,4,1,-1,-1,0,0,1,-2
