timestamp,emg1,emg2,emg3,emg4,emg5,emg6,emg7,emg8
116612652093,-1,-1,-2,-2,-1,-1,-2,-1
116612652093,1,2,-1,0,-1,0,-1,-2
116612654130,11,2,-1,-1,-2,-2,-1,-1
116612654130,-1,-1,-2,-1,-1,-1,-1,0
116612655018,-7,-16,-4,-2,-1,-1,-2,-3
116612655018,-1,-1,-2,0,-2,-1,-1,-6
116612656333,-3,-1,-1,0,-2,0,-1,1
116612656333,-1,-2,0,-1,-2,-1,-1,-1
116612665825,1,1,1,1,-1,-2,-1,-1
116612665825,-2,-2,-4,-3,-2,-2,-1,-2
116612671464,-5,-5,-2,-1,0,-3,-2,-2
116612671464,-2,4,-2,0,-1,-1,-2,-2
116612680392,-2,3,0,-3,0,0,0,-1
116612680392,-8,2,0,-2,-1,-1,-2,4
116612695137,0,0,-1,0,-1,-1,0,-10
116612695137,-3,12,0,-1,-2,0,0,-2
116612702287,3,0,-2,1,-1,-1,-2,1
116612702287,4,-3,0,-2,-2,-1,1,4
116612716421,-2,0,-2,-2,-1,-1,0,4
116612716421,-8,-3,-1,-2,1,-3,-2,-1
116612725786,24,23,4,-1,0,0,-1,0
116612725786,7,-2,-1,-3,0,-2,-2,-1
116612739638,-5,1,-1,2,1,0,-1,-2
116612739638,3,1,0,-3,-3,-1,-1,-1
116612740490,-6,-3,-2,-2,-2,-2,-2,0
116612740490,1,-2,-1,1,-1,-2,0,-1
116612786427,-2,-2,1,-1,0,-1,-1,-1
116612786427,0,-1,0,-1,-1,1,-1,-2
116612787172,0,1,1,1,1,0,1,-1
116612787172,-2,-1,-3,-2,0,-1,-1,-1
116612788791,-2,-2,-1,-3,-4,-2,0,-2
116612788791,-7,-4,-2,-2,1,-1,0,-1
116612791227,9,1,-2,-1,-1,0,-1,-10
116612791227,16,-1,0,0,1,-1,-1,-9
116612798762,2,7,1,4,2,-1,1,6
116612798762,1,0,0,-2,-2,-1,-2,-5
116612807728,-5,-2,-3,0,-1,-1,-3,-1
116612807728,2,-2,-1,-1,-1,0,-1,3
116612813756,0,-2,-2,-3,-1,-2,-3,-6
116612813756,4,4,-1,-1,-2,-2,-1,9
116612836947,-5,-8,-2,-3,-2,0,-1,-1
116612836947,0,6,2,-3,-1,0,-1,1
116612837724,-2,-3,-3,-1,1,-1,0,0
116612837724,4,9,0,-1,-2,-2,-2,-1
116612859436,-13,-26,-3,-1,-2,-1,-2,0
116612859436,-8,-3,-2,-2,-3,-3,0,-2
116612860185,0,-3,-1,-1,-1,-1,-2,1
116612860185,1,2,0,-2,0,-1,-1,-2
116612874444,-3,4,0,0,0,-1,-2,-1
116612874444,-5,3,0,-1,-1,0,-2,1
116612875219,-3,-4,-1,-1,-2,0,1,-3
116612875219,10,-7,-3,0,0,-1,-2,-2
116612905286,3,10,2,-1,-1,-2,-1,23
116612905286,-9,-14,-3,-2,0,-1,3,-9
116612905868,9,7,0,-1,-1,-2,-1,1
116612905868,-3,-2,-1,-1,1,-1,-1,-3
116612919381,3,-2,-5,-1,-1,-3,-1,0
116612919381,4,16,0,0,0,0,-1,0
116612920145,1,3,1,-2,-1,0,-2,-2
116612920145,-5,-6,-2,-2,-2,-1,0,-1
116612934600,-8,3,-1,-1,0,0,-1,-7
116612934600,12,4,1,0,-2,-1,-2,-1
116612935311,-5,-5,0,1,-1,0,-1,-5
116612935311,-5,-3,0,0,-2,-1,0,2
116612956891,2,6,1,0,0,-1,-1,-6
116612956891,-2,-5,-3,-1,-2,-2,-2,0
116612957680,-5,8,-2,-2,-2,-1,-1,-1
116612957680,0,-2,-2,-2,-1,-1,0,-1
116612979545,-1,0,-1,-3,-5,-2,-1,-6
116612979545,-7,-5,-3,0,-2,-3,-2,-2
116612980253,14,-4,-2,-1,-1,0,-1,0
116612980253,-11,4,-2,-3,-1,-1,-2,-4
116612994605,8,-4,-1,-1,-1,-1,0,23
116612994605,-3,-1,0,1,0,0,0,-7
116612995283,-2,-4,-1,-2,-1,-1,-1,-2
116612995283,10,16,-1,-1,-1,0,-2,-2
116613016887,0,1,-1,0,0,-2,-3,-1
116613016887,-3,-5,0,1,-1,1,-4,1
116613017636,-6,-4,-2,-1,-1,-1,1,-1
116613017636,-4,-25,-2,-1,-1,-2,0,1
116613041025,-5,1,-2,-5,-2,-3,-1,-11
116613041025,-4,-4,-4,-1,-2,-3,0,3
116613041872,-6,-2,-3,0,-1,-2,-2,-4
116613041872,-4,-1,1,0,-3,-1,-1,-3
116613054594,-6,0,-1,-2,-1,0,-2,-1
116613054594,-2,-5,-2,-1,-1,-2,-1,-1
116613055314,-3,-6,0,-1,0,-1,-2,3
116613055314,4,3,-1,-4,-4,-2,-1,-1
116613077164,0,-4,0,1,1,0,-1,-7
116613077164,-1,3,1,0,-3,0,-1,0
116613077762,-8,-10,-4,-1,-1,-1,-2,-1
116613077762,-1,1,-1,2,-1,0,-1,-3
116613099644,-9,-4,-3,-1,0,-2,0,-7
116613099644,-11,-8,-3,-2,-1,-1,-4,-10
116613100295,0,-19,-1,-1,-2,-2,-1,-6
116613100295,-2,0,-2,0,1,1,-1,2
116613114558,-12,-24,-3,-2,-1,-1,-1,-6
116613114558,4,0,-2,-3,-1,1,1,5
116613115343,2,5,-1,-1,-1,0,0,-1
116613115343,-4,2,0,-1,-1,-3,0,-3
116613136881,5,9,0,0,0,1,-1,6
116613136881,-3,-3,-2,-2,0,0,-1,-1
116613137685,0,3,0,-1,-2,0,0,5
116613137685,-4,1,-2,-1,-1,-1,0,-1
116613159511,3,4,1,0,0,-1,0,-5
116613159511,0,0,1,-2,-2,-2,-1,-1
116613160279,2,5,1,1,0,-2,0,1
116613160279,-32,-29,-6,-4,-2,-3,-4,-3
116613182734,4,5,1,0,-2,-1,0,-1
116613182734,-2,1,-2,-1,0,1,-1,1
116613183490,0,1,-1,1,-1,0,-3,0
116613183490,0,2,-2,-2,0,-1,-1,-1
116613196967,0,0,-2,-1,-1,-1,-2,-3
116613196967,-5,-2,0,0,0,-2,-1,0
116613197960,0,4,0,0,-1,-1,-1,-2
116613197960,5,2,0,-1,-1,0,0,1
116613219770,2,1,-2,-1,-2,-3,-1,-3
116613219770,4,2,1,-1,-1,-2,-2,0
116613220280,1,5,0,0,0,0,-2,-1
116613220280,6,-1,-4,0,1,0,0,-2
116613233884,2,2,-2,-2,-1,1,-1,2
116613233884,-5,-23,-1,-2,0,0,0,-1
116613242059,-4,-1,-2,-2,-3,-3,-2,-4
116613242059,-6,1,2,-1,-2,0,-3,-1
116613257176,2,7,-1,-3,-3,-2,-1,-2
116613257176,-20,2,-4,-5,-2,-1,-2,-1
116613257766,-4,-5,-2,-2,-3,-1,-1,-2
116613257766,4,8,1,1,-2,-2,-1,1
116613279508,-1,0,-2,-1,-1,-2,-2,-1
116613279508,8,6,3,-2,-1,-1,-1,0
116613280311,-3,-3,0,1,0,-1,0,-2
116613280311,0,1,-3,-3,-2,0,0,-2
116613293767,-3,-12,1,-2,-2,0,-2,-5
116613293767,5,5,-3,-1,-1,0,-2,0
116613302235,0,4,-2,-3,2,-1,-1,-1
116613302235,4,-4,0,2,0,-3,-2,0
116613317017,2,2,-1,-1,1,1,0,-1
116613317017,0,-2,-4,-1,0,-2,0,0
116613317791,-1,1,0,-1,-2,-1,1,0
116613317791,0,1,-1,2,1,1,0,-1
116613339482,2,-4,-4,-5,0,-2,-2,-1
116613339482,1,4,2,-3,-1,0,-1,-1
116613340246,-1,0,4,10,2,-1,-2,1
116613340246,-3,-5,-5,-14,-5,-3,-3,-2
116613354059,-3,1,-1,-3,-2,-3,-3,-1
116613354059,1,-4,-1,10,1,-2,-2,-2
116613361990,2,1,-1,-21,-3,-1,-1,-1
116613361990,0,-2,-1,-1,-1,0,1,0
116613377192,3,14,-2,2,0,-1,-3,-1
116613377192,6,5,-1,-20,-5,-2,-1,-1
116613377696,-2,-2,-5,-7,-3,-3,-1,-2
116613377696,-1,-4,-1,10,-1,-2,0,0
116613399646,2,2,2,25,7,-1,1,-1
116613399646,0,0,-1,-8,-1,5,1,-1
116613400231,1,-1,-5,7,-1,0,-1,1
116613400231,6,7,5,-7,2,-1,-2,0
116613413982,-4,-8,-11,-19,-18,-8,-2,-2
116613413982,-4,-1,1,13,4,0,0,1
116613422253,2,-2,4,6,0,3,-2,-1
116613422253,-1,-2,0,-4,6,8,0,0
116613437182,-5,-5,-1,-1,-8,-16,-1,-2
116613437182,-4,0,2,34,5,4,2,-2
116613437733,-3,6,-6,-50,-11,2,-5,-4
116613437733,-1,1,0,-7,-1,-4,0,-1
116613460158,-13,-5,0,-13,0,11,2,0
116613460158,0,-3,-1,30,0,-7,-4,-4
116613460721,-2,0,0,-26,-3,-3,-6,-4
116613460721,1,0,0,-9,1,-4,0,2
116613475338,-1,-3,-1,29,2,11,0,-1
116613475338,-5,-1,-8,-43,-8,4,-1,-8
116613482239,6,-1,3,47,7,-19,2,6
116613482239,-2,1,-2,-1,-7,5,0,0
116613497081,4,1,3,6,5,12,8,1
116613497081,-3,-6,-5,-20,4,-4,-4,3
116613497838,0,-2,-2,40,-2,-5,-13,-6
116613497838,-8,-5,-1,-8,-8,-10,-5,-15
116613519663,0,-1,1,-3,5,10,4,-9
116613519663,4,-2,-3,-19,-10,0,-2,16
116613520292,-6,-3,-6,-13,-2,-11,-2,-13
116613520292,-11,-7,-5,-3,-3,-9,13,5
116613534003,11,-2,-1,2,3,10,6,48
116613534003,1,0,1,4,4,-4,-1,20
116613542046,-4,-5,-1,-8,2,30,10,8
116613542046,-1,2,-2,21,-3,-24,1,-6
116613556955,0,-1,0,-18,-5,0,-1,-15
116613556955,3,1,0,-1,1,0,-8,-1
116613557962,-8,-3,-5,-6,-3,-5,3,-11
116613557962,2,-5,-2,-7,-1,14,-3,1
116613579748,-7,-3,-2,7,0,-3,-4,-3
116613579748,2,3,3,1,-4,-18,-7,-16
116613580255,1,1,2,7,4,10,-4,-5
116613580255,-3,2,0,-32,1,8,2,-4
116613602681,2,9,-1,-16,-8,-7,-9,-12
116613602681,-9,-6,2,44,2,-21,-2,-8
116613603648,9,5,3,-22,7,1,3,11
116613603648,3,8,3,19,0,12,3,12
116613617129,-4,3,-4,-20,-6,0,-2,-34
116613617129,10,-2,-2,15,3,16,2,57
116613617815,-2,-2,2,17,-5,-35,-15,-3
116613617815,1,-1,-2,1,8,4,3,3
116613639687,6,-20,1,10,-11,-18,2,-2
116613639687,-2,-1,-5,-11,0,30,13,-10
116613640262,0,-5,-3,1,1,-1,-6,-2
116613640262,-1,-11,1,4,-3,9,-15,6
116613662697,-6,0,-3,4,-9,-53,-3,3
116613662697,-5,2,-3,-10,-1,1,12,-17
116613663405,-4,-4,-4,1,-1,6,2,5
116613663405,-1,-1,-4,-4,15,9,-2,-8
116613676922,-4,1,2,22,5,-2,0,-6
116613676922,-3,-2,3,-25,-2,-1,3,-25
116613677702,0,1,-4,-11,-6,23,12,6
116613677702,4,-4,-2,-2,-8,-23,-12,-14
116613699441,9,9,3,10,-8,-22,-15,10
116613699441,3,2,-1,10,2,10,-10,3
116613700205,0,-1,-2,-4,1,27,8,-3
116613700205,4,-2,-2,7,-9,-56,-4,3
116613722685,-3,-2,0,-16,7,18,-1,4
116613722685,-2,13,7,22,6,21,-1,-15
116613723499,-3,11,4,9,8,-6,-1,-10
116613723499,3,0,-2,-7,-9,-11,-6,10
116613736985,-2,2,3,3,2,14,14,3
116613736985,-5,4,1,-16,-12,-12,-16,-14
116613737813,-7,-4,-2,7,-6,-15,15,-12
116613737813,-1,3,0,-9,3,18,9,13
116613758729,-7,-8,-15,-21,0,10,0,-4
116613758729,-4,-9,-5,-4,-7,-16,-24,-9
116613767794,-1,-4,-1,-14,-13,1,4,3
116613767794,-6,0,0,50,6,-26,0,-5
116613782663,-4,-2,-2,-10,10,17,1,-2
116613782663,1,-6,1,2,3,-1,11,11
116613784257,-12,-21,-12,-44,-10,6,-14,0
116613784257,-3,4,4,38,-1,1,-13,-4
116613805387,-2,-1,4,-11,-5,10,7,4
116613805387,-3,-4,-10,-9,-3,-10,1,-5
116613806785,1,3,3,17,16,7,-6,15
116613806785,-3,0,-1,-21,-21,-20,-27,-7
116613818712,-1,-2,-1,10,2,15,21,13
116613818712,-2,1,-2,-10,-7,-14,-2,-6
116613827820,13,-2,8,18,11,24,12,5
116613827820,-1,-2,-2,-7,-1,-8,-2,-2
116613842734,0,1,-4,13,-6,-25,-12,-1
116613842734,1,-1,-1,-55,-17,0,4,1
116613844328,-3,-8,-1,33,15,-5,-5,2
116613844328,-1,-1,3,-43,-12,16,10,-3
116613865167,0,0,3,35,3,-12,-15,-15
116613865167,0,-7,-6,-1,-1,16,10,-1
116613866688,1,3,0,13,-9,-37,-6,0
116613866688,1,-2,-2,-38,15,20,-1,9
116613878829,-2,1,5,3,-3,6,3,2
116613878829,-2,-1,-4,8,5,5,2,5
116613887834,-2,2,-3,6,10,-8,-5,-10
116613887834,0,0,-2,27,-12,19,1,-23
116613902021,1,-1,-1,-47,-9,-41,3,7
116613902021,1,-1,-6,9,4,0,1,6
116613908989,-3,-3,-6,14,-12,-7,4,-7
116613908989,2,0,3,14,0,18,2,11
116613925397,-3,-4,-4,-8,-3,4,-7,-9
116613925397,-2,1,9,23,2,2,-10,-13
116613926735,0,1,3,-16,-1,-14,-2,8
116613926735,-5,-2,-3,-4,-4,0,-2,-3
116613939450,0,-16,-8,1,4,5,-7,-13
116613939450,2,1,1,4,4,-10,5,9
116613947808,-1,0,-3,-33,-22,6,2,-7
116613947808,0,-1,-7,9,3,4,7,-3
116613962040,0,2,-3,-28,-1,19,9,36
116613962040,0,1,5,43,6,-51,-22,-8
116613968800,1,-1,1,-31,1,29,6,-2
116613968800,0,2,-1,4,1,-5,-8,-16
116613992635,-3,-5,-16,-3,-7,0,-3,-5
116613992635,-1,-4,-5,-1,-4,20,15,3
116613994253,-1,6,4,1,-1,-34,-34,-4
116613994253,1,-3,-5,6,-9,10,19,10
116613998726,2,2,6,3,12,-2,-7,-2
116613998726,-4,-4,-4,-29,3,12,19,17
116614007845,0,-2,-3,26,-9,0,-4,-5
116614007845,-2,-1,-5,1,3,10,-2,-3
116614022246,-1,-1,-8,-15,0,-27,-5,8
116614022246,-2,1,3,-14,-9,5,6,-8
116614028914,-7,-2,1,11,17,29,3,5
116614028914,-2,0,4,-17,0,-2,0,4
116614045436,-9,3,4,6,-10,-10,-49,-40
116614045436,-1,-15,-12,-4,0,-3,19,-10
116614046812,-3,5,-1,-14,-4,-14,-4,37
116614046812,-5,0,3,-6,-1,-17,10,-6
116614067739,2,-1,0,8,5,9,-2,-3
116614067739,-4,3,3,-4,6,12,-24,-46
116614069243,3,-5,-4,14,-13,-17,12,17
116614069243,-29,-2,5,11,8,6,-35,-84
116614081281,18,7,3,-9,2,0,29,50
116614081281,-3,1,2,0,-1,14,13,8
116614090306,-3,-3,0,-12,1,-29,-44,-68
116614090306,-11,-2,-1,6,8,2,37,-13
116614105485,4,0,4,6,4,16,20,1
116614105485,26,2,4,-1,-15,-17,-21,15
116614106863,-32,7,-10,-7,4,0,-5,9
116614106863,41,10,7,-4,-2,-11,16,18
116614127670,-12,-3,-2,7,7,23,-17,-34
116614127670,2,1,-1,-3,0,-14,5,-18
116614129230,-12,-9,2,-6,-17,-22,5,-30
116614129230,19,1,-3,-1,-4,-12,13,16
116614141967,0,7,10,11,18,28,-2,49
116614141967,-29,1,0,6,4,5,-33,-87
116614148728,36,-12,-6,-11,-8,3,30,65
116614148728,9,-4,-6,-8,-8,-19,-25,50
116614165086,8,-3,6,4,-6,-13,23,61
116614165086,-8,-6,-3,1,-1,-23,-24,-4
116614166707,-12,0,3,1,9,26,6,-62
116614166707,6,-6,-7,-3,-7,12,7,-17
116614187689,-27,3,-8,-5,-4,1,4,-35
116614187689,23,7,-11,-11,-5,6,5,35
116614189240,-2,2,-1,-3,5,2,5,-38
116614189240,-11,-2,-7,-7,-2,5,21,19
116614201250,-9,-5,1,3,-3,-9,-26,-44
116614201250,13,-1,-2,-9,-4,14,0,17
116614217776,-15,-4,-4,-1,1,-18,-28,-57
116614217776,-29,-5,1,1,11,16,1,-8
116614225156,28,-4,-2,-5,-13,-4,-8,2
116614225156,-7,2,1,1,-3,-10,14,16
116614226683,19,-11,-4,1,5,23,-39,71
116614226683,5,5,-2,-8,-6,-18,12,25
116614247633,3,-21,-9,-3,-9,-5,31,59
116614247633,-11,2,2,-1,5,-10,-20,-13
116614249219,-12,10,3,3,-3,3,7,-22
116614249219,19,3,0,2,7,6,-7,75
116614262757,-3,0,0,-1,-5,-12,-17,-59
116614262757,-14,-1,3,-2,-7,3,28,-24
116614270441,23,4,4,2,9,17,15,95
116614270441,-3,-3,7,-1,-4,-12,-16,-44
116614292623,-34,-1,-2,-1,5,7,-25,-76
116614292623,21,2,1,3,-4,-16,-2,99
116614294201,1,6,2,-1,-6,14,-21,-35
116614294201,18,-10,-4,-5,4,3,20,29
116614307826,0,0,-1,2,-1,-37,-5,-14
116614307826,-8,-3,-4,-2,4,2,12,-17
116614309249,2,4,7,0,-8,-16,23,7
116614309249,-18,-3,-4,-1,-3,19,-41,-53
116614322233,20,-1,-2,1,2,19,77,88
116614322233,0,-5,-1,0,-3,7,-9,14
116614329036,-13,-1,-3,-7,-3,-23,4,-33
116614329036,-5,-6,1,0,1,-4,-15,-25
116614345379,-6,5,0,2,-6,-6,-18,-6
116614345379,-11,0,0,1,-1,-3,-22,-32
116614346820,11,-2,-1,1,2,8,22,40
116614346820,-16,0,0,0,-3,2,-14,-24
116614367698,-6,6,-1,-1,1,-2,-7,-15
116614367698,2,0,-4,-2,6,16,1,14
116614369239,-7,-9,-12,-2,-9,-20,13,4
116614369239,-1,-1,-4,-6,0,-3,-5,1
116614382006,4,1,-1,-11,-8,-2,-8,10
116614382006,0,-3,3,6,-2,-6,9,15
116614388741,0,-1,-6,10,-1,1,1,-17
116614388741,12,1,2,8,0,9,20,65
116614405098,-24,-3,1,0,2,-7,-22,-79
116614405098,3,0,-1,-3,2,-8,17,23
116614406755,4,-2,-1,-6,-4,7,6,0
116614406755,-10,-2,-5,5,-7,-13,-10,-15
116614427660,-6,-2,0,1,2,4,-12,-26
116614427660,2,-2,-2,-2,11,12,7,6
116614429258,-4,-2,3,-5,-7,-17,-26,-16
116614429258,-1,0,0,1,0,14,18,0
116614442192,9,-1,-9,-22,3,8,6,13
116614442192,-6,-2,3,31,0,-3,-5,-25
116614448784,2,-4,-6,-12,-9,-9,-1,13
116614448784,-10,-4,-3,-45,-6,-22,-18,-24
116614465357,5,-3,-1,-15,-3,5,-2,14
116614465357,-2,-1,0,-18,-4,7,1,-3
116614466794,-7,-1,2,18,6,-8,-4,-23
116614466794,0,0,1,23,0,-1,-1,4
116614487842,3,3,6,17,-6,-3,-4,4
116614487842,-3,-1,-6,-3,0,-1,-1,-9
116614489223,-3,-2,-5,-11,-6,1,5,0
116614489223,-1,4,2,2,9,5,-7,-16
116614501315,2,-2,-2,-5,-11,-15,-8,19
116614501315,-1,-2,1,17,10,8,1,-7
116614510310,0,0,-3,-5,-5,11,-9,0
116614510310,-1,-2,0,-5,-3,-31,5,-3
116614525193,-2,-1,0,-5,-1,5,-4,-6
116614525193,-2,-3,0,-2,-6,3,-11,-5
116614526746,0,-1,1,-2,5,-3,6,15
116614526746,0,1,-1,-3,-1,-4,-6,-3
116614546871,0,-10,-8,-24,-4,5,1,-5
116614546871,-2,0,-1,-4,-5,0,3,0
116614555302,-8,-2,-5,-6,1,10,-11,-37
116614555302,-3,-1,1,14,-1,0,6,-16
116614561368,1,5,4,31,1,-7,2,7
116614561368,-4,-5,-13,-41,-12,1,1,-4
116614570280,0,-3,0,11,5,3,-2,-5
116614570280,-1,-1,-2,7,-2,0,-5,9
116614584510,-1,0,2,0,1,6,-2,-6
116614584510,-2,-2,-2,13,-4,-10,-6,-9
116614591277,0,1,3,-9,1,3,13,10
116614591277,-3,-3,-7,-9,-2,5,-1,1
116614607742,0,0,2,-1,-3,-17,-14,7
116614607742,2,-1,-2,1,3,9,16,10
116614609279,-3,0,1,2,-2,-22,-14,1
116614609279,-2,-2,-2,-7,3,3,0,-13
116614621472,-2,2,1,10,2,44,17,-5
116614621472,7,-3,1,-4,-8,-31,-14,45
116614630318,-7,-2,-1,0,-2,-13,1,-25
116614630318,-2,3,-4,-9,-1,9,-2,-12
116614645338,-3,0,0,2,3,2,-2,-9
116614645338,-3,1,3,-6,0,3,13,-3
116614646770,-1,-2,0,-1,-5,3,-8,4
116614646770,8,-3,-4,-1,-5,3,-1,-2
116614667697,0,-3,-2,0,3,-21,3,9
116614667697,-8,0,0,3,-5,-2,-12,-19
116614669267,3,-2,-2,-3,5,11,10,6
116614669267,-6,0,0,3,-3,-8,-5,-6
116614681497,-7,-9,-6,-3,1,-1,-1,-2
116614681497,-3,-1,1,-6,0,-4,-3,-8
116614690329,2,1,1,-11,-5,-9,-3,8
116614690329,0,-2,0,2,4,8,-3,26
116614705354,1,1,0,-4,1,9,-2,-4
116614705354,-2,0,0,0,-5,-27,0,-37
116614706775,9,1,0,7,3,23,0,32
116614706775,-5,1,-3,0,-1,-13,-6,-10
116614727583,3,0,0,-1,-3,-6,-4,3
116614727583,-3,-1,-1,-4,0,7,-3,-18
116614729191,2,0,-1,-3,-3,2,10,5
116614729191,-3,-1,0,-5,-3,-5,0,-7
116614741370,1,1,-1,-2,-4,-13,-6,7
116614741370,-1,-4,-3,2,2,13,-3,-1
116614750308,1,-1,-3,1,1,-3,2,0
116614750308,3,-1,0,1,6,16,-1,10
116614765402,-5,-1,-2,-1,-5,-19,-6,-28
116614765402,5,2,-2,-4,-1,6,-2,29
116614766793,-3,-3,-3,-5,-9,-16,-7,-7
116614766793,-3,-1,-6,-5,-2,3,0,-11
116614787715,1,-4,-6,-8,2,25,5,12
116614787715,0,-3,-3,3,0,-18,0,-3
116614789315,-3,2,1,0,3,12,-1,-9
116614789315,0,-3,-2,2,-1,-9,-2,-1
116614801349,0,4,3,5,4,-10,5,4
116614801349,-2,9,-1,-4,1,11,-1,4
116614810291,-5,-4,-2,-3,-4,-10,0,10
116614810291,-6,0,-2,1,-5,4,-14,-12
116614824466,-6,-4,0,-3,1,-4,-4,4
116614824466,1,1,0,-6,-4,0,13,7
116614831488,-3,-2,1,1,5,6,2,1
116614831488,-1,-1,2,10,-6,-6,-2,-6
116614848293,-2,-1,-1,-2,1,0,7,5
116614848293,-3,-5,-1,-1,-5,-12,-10,-6
116614849671,-1,-2,-3,8,-2,-7,-4,-8
116614849671,0,-4,-3,-25,-3,14,0,-12
116614861175,-4,-1,2,12,-3,-19,-8,-41
116614861175,2,-2,2,8,2,-11,-14,-3
116614870325,3,0,1,14,0,11,11,-3
116614870325,0,5,5,2,5,4,3,10
116614884741,-1,0,-2,-1,-10,0,-2,1
116614884741,-2,-3,-3,-10,-5,-16,-12,-10
116614891347,-1,0,1,-2,9,-3,-10,-1
116614891347,-1,-3,-1,13,5,3,7,12
116614907619,-1,-2,-1,-29,-4,4,4,2
116614907619,-6,-5,-6,8,-7,1,-6,-5
116614909221,1,-16,-9,17,-5,-7,3,2
116614909221,-6,-1,-5,-66,-10,-11,-3,-11
116614921364,-4,1,-1,9,4,7,1,-6
116614921364,3,-4,-4,-24,-3,-5,-1,23
116614930318,-2,-4,-2,3,-3,-1,6,-5
116614930318,-1,-1,-2,16,-2,-5,-1,-15
116614944520,1,0,-1,-6,-4,23,19,31
116614944520,-2,-4,-1,-7,3,-31,-24,-17
116614951353,-2,5,2,15,-1,6,4,0
116614951353,2,-3,2,-15,0,6,4,3
116614975232,6,2,-3,3,-1,-3,-4,4
116614975232,3,0,-2,20,3,24,14,-8
116614976783,4,1,-1,-25,-5,-14,-14,2
116614976783,6,1,1,6,-5,-18,-5,21
116614990343,-1,-4,-5,10,1,3,-6,-12
116614990343,-8,-15,-5,-3,-2,11,3,-11
116614991765,-6,0,-3,-9,-1,-7,2,-12
116614991765,-18,-5,1,36,4,3,0,4
116615004542,14,6,2,-7,2,-7,-5,1
116615004542,-11,0,2,-8,-1,6,-3,-10
116615011286,1,3,1,-17,-2,2,3,19
116615011286,-9,-5,-7,11,-1,-2,-4,14
116615027652,-12,7,-3,5,-4,-18,-11,-15
116615027652,7,5,1,8,4,6,7,10
116615029278,4,0,-4,-5,0,7,-6,-4
116615029278,-12,-13,1,18,4,-1,-5,-16
116615050380,3,-4,-1,1,-1,-1,7,20
116615050380,-2,3,4,4,0,0,-7,7
116615051722,-2,-1,2,6,0,-1,1,-15
116615051722,15,15,1,-15,-7,-6,-2,2
116615064751,18,-15,3,14,-4,-10,-8,-3
116615064751,8,16,12,19,4,4,12,0
116615071471,-2,-1,6,-11,0,0,-9,-16
116615071471,1,10,4,-30,-6,-7,5,15
116615087847,-2,2,3,3,0,-2,-2,3
116615087847,-1,6,-2,10,-4,-1,-2,5
116615089274,11,-1,-1,5,-2,-1,-4,-10
116615089274,9,-3,-2,-2,2,1,4,-3
116615110349,-5,1,-4,16,1,2,-5,-16
116615110349,4,-13,-9,-5,0,1,7,-4
116615111793,-18,-2,-12,-4,-4,3,-3,-6
116615111793,11,-13,-9,-9,-1,3,3,-6
116615124721,-5,8,-2,-17,3,2,-4,-1
116615124721,-7,-17,-9,21,-6,-5,-2,15
116615131253,-1,-9,-6,-17,1,0,-6,-4
116615131253,8,10,2,-4,-4,-4,-3,-23
116615147820,-11,-2,-3,-11,1,-2,-1,24
116615147820,-7,7,-5,-21,-3,1,-1,1
116615149264,1,26,1,-1,-5,-2,1,3
116615149264,-7,-5,1,11,2,1,-2,-4
116615177733,-2,2,-5,-3,0,-1,0,-4
116615177733,3,-5,-1,-12,0,0,0,-16
116615179274,-6,6,0,1,-1,-1,-1,5
116615179274,1,7,0,16,2,-1,-3,-1
116615183779,15,-1,2,0,-2,-1,2,-1
116615183779,1,3,3,-14,-4,-1,-4,0
116615192832,1,-7,2,2,1,0,2,3
116615192832,-8,1,-3,6,-3,-2,0,5
116615209063,-22,-9,2,1,-1,0,0,-9
116615209063,10,-8,-3,-5,-1,-3,-4,-26
116615210722,4,-2,0,15,4,-1,2,1
116615210722,-2,-8,-1,-14,-3,-1,-2,-2
116615230125,-7,4,-5,-19,-6,-2,-4,-4
116615230125,-9,3,-4,3,2,0,-1,-4
116615231709,-16,-4,-1,7,-1,-1,-1,4
116615231709,10,7,2,13,6,1,1,4
116615244005,12,15,0,-8,-1,-1,0,-17
116615244005,-5,12,2,-4,-3,-2,3,45
116615252749,2,-25,-2,-5,0,-2,-3,-1
116615252749,-7,-5,-5,3,-1,-1,-1,-2
116615267597,-2,0,-1,-3,1,0,-2,2
116615267597,9,-6,3,-7,-1,-3,3,-12
116615269210,-2,3,0,16,0,-1,-1,0
116615269210,7,0,-2,-37,-8,-2,-7,-6
116615290339,-14,-7,-3,3,-4,-3,-1,2
116615290339,18,2,2,10,-1,0,1,-3
116615291780,0,-2,0,-4,-2,-1,-1,2
116615291780,15,9,2,1,-1,0,1,-15
116615303860,-8,-12,-4,10,-2,-4,-2,6
116615303860,7,-13,-2,-7,-1,0,-1,-1
116615312799,1,6,0,1,-1,2,-1,-11
116615312799,-9,0,0,6,-1,-2,-1,9
116615327622,4,1,-1,1,-1,0,1,-12
116615327622,-17,1,-1,5,-1,1,1,40
116615329198,1,-1,-3,-3,0,-1,-1,-9
116615329198,-4,-11,-2,-6,-3,-1,0,24
116615350185,-4,-4,0,9,1,-1,-2,-11
116615350185,8,-7,-6,-5,-2,-1,1,14
116615351735,-3,0,1,-3,-2,-1,-5,-4
116615351735,-28,-16,-9,-5,-2,-2,-2,11
116615363796,-20,-3,-1,5,0,0,-3,-11
116615363796,-9,4,-4,-7,-4,-1,-5,-24
116615380253,4,10,-5,-7,-2,-1,-1,18
116615380253,1,-7,2,4,-1,-2,-1,-11
116615387835,-6,-14,-3,-2,-1,-2,0,-5
116615387835,-30,0,-1,-3,-1,-2,-5,-31
116615389247,19,10,0,-4,-2,-2,1,6
116615389247,-14,-1,-1,7,-1,-2,-2,-25
116615410169,1,-1,-1,-13,-4,-3,-5,-16
116615410169,6,4,1,12,-1,-1,1,17
116615411691,-5,0,1,-9,-2,-1,-1,-11
116615411691,2,4,-3,-1,-1,0,-2,-6
116615423806,5,-20,-3,0,0,-1,-2,-9
116615423806,5,1,1,-2,0,-1,-1,-18
116615432767,-2,-4,-2,-2,-3,0,-2,-8
116615432767,-5,-8,3,8,-2,1,-2,10
116615447846,9,4,-3,-1,-3,-1,3,37
116615447846,-3,-8,-4,-3,0,-2,-3,-13
116615449254,-6,-5,1,-1,0,-1,-2,-7
116615449254,5,2,0,0,-1,-2,-1,-2
116615470083,5,3,1,0,-1,0,-1,14
116615470083,-3,1,0,-3,-1,-2,-1,1
116615471689,-41,13,-6,-4,-3,-4,-11,-41
116615471689,25,24,8,5,2,0,5,-6
116615483740,3,2,-3,0,0,-2,-2,-4
116615483740,0,-6,-1,0,-1,-4,-3,1
116615492737,-2,0,-2,-4,-1,2,2,-3
116615492737,-4,-5,-3,1,-1,-1,2,8
116615507629,-7,1,-4,-4,-1,-2,-1,2
116615507629,4,11,2,-2,0,0,-3,-20
116615509203,11,-8,1,0,0,0,0,14
116615509203,-6,-6,-2,1,-2,-2,-2,4
116615530164,-6,-5,-1,0,0,0,0,-9
116615530164,-12,-11,-3,-3,-2,-2,-1,6
116615531752,11,-23,2,1,-1,-1,3,1
116615531752,-7,-5,-3,-1,0,0,1,3
116615543861,1,-6,0,-4,-2,0,-5,-14
116615543861,-3,1,1,0,1,-1,-1,17
116615552804,3,1,-3,-4,-2,-2,2,14
116615552804,3,-1,-3,-1,1,-2,-2,-13
116615567635,-15,-3,-2,-3,-1,-1,-4,26
116615567635,10,0,0,-4,-2,-3,0,-10
116615569294,2,-2,2,2,-1,1,0,-4
116615569294,11,16,-1,-1,-2,1,0,8
116615590292,-14,-15,-3,-2,-2,-1,-2,-23
116615590292,10,-3,-1,0,0,1,1,-6
116615591820,0,6,-1,1,1,-2,-1,16
116615591820,-8,-4,0,0,-1,-1,-2,-32
116615604056,17,6,2,2,2,1,3,10
116615604056,3,5,-4,-3,-1,-2,-1,-5
116615612803,0,13,0,-2,0,-2,0,6
116615612803,-4,-5,-2,-1,1,-1,-3,4
116615627920,9,5,-1,-4,-1,-1,0,-1
116615627920,2,3,-2,-1,0,1,0,3
116615629196,7,11,-1,-2,0,-1,-2,-31
116615629196,-11,-6,-1,-2,-1,0,3,39
116615650120,0,10,1,0,-2,-1,1,-3
116615650120,-7,-2,-5,-3,-2,-1,-4,-11
116615651822,-3,-6,-1,0,-1,0,0,-3
116615651822,1,20,-2,-5,-3,-1,-1,-14
116615663743,7,-6,-1,4,0,-1,-1,5
116615663743,-11,-2,-3,1,1,1,0,-4
116615680315,-20,-8,-3,-9,-3,-4,-4,-15
116615680315,-5,-12,-2,-1,-6,-4,-4,-2
116615687910,-2,4,-1,-1,-1,1,1,-1
116615687910,-7,-7,-1,-6,-3,0,0,6
116615689246,20,5,-1,2,-1,-2,0,-2
116615689246,-12,-10,-2,2,3,-2,-2,-8
116615710208,-5,1,-1,-2,-1,0,-1,-3
116615710208,-2,1,-3,-5,-3,-2,-1,-7
116615711868,-17,-37,-3,-3,-1,0,-2,10
116615711868,9,0,0,-3,-2,-1,-1,3
116615724014,-2,-17,-2,1,0,-2,1,4
116615724014,-26,-1,0,0,0,-1,-2,-10
116615732818,-4,1,-3,-3,-2,0,-1,17
116615732818,4,-5,0,-2,-1,0,1,-3
116615747840,-3,2,1,-1,1,-2,-1,-11
116615747840,8,1,1,0,-1,-1,2,34
116615749299,-3,10,0,2,0,-1,-2,-1
116615749299,-10,-9,-1,-1,0,-2,-4,-10
116615770047,36,17,1,-4,-1,2,2,24
116615770047,-1,0,2,1,-3,-4,1,8
116615771723,7,10,-2,1,-1,-3,0,4
116615771723,-4,-4,-1,1,1,0,0,3
116615783757,-5,3,-3,-1,-2,-2,-3,-5
116615783757,7,-2,-1,1,-1,-1,0,-4
116615792778,3,-1,0,1,0,-1,0,-1
116615792778,-10,-4,-3,-3,-2,-2,-3,-11
116615807884,1,-8,-2,-2,-2,-3,-1,-10
116615807884,6,6,1,-2,1,0,-6,5
116615809246,-12,-3,0,-1,0,0,-4,-8
116615809246,-3,-16,-2,-2,-1,0,-3,-6
116615830404,-1,4,2,-2,-1,-1,-1,2
116615830404,3,-3,-1,-2,-1,-1,-2,-4
116615831753,1,-17,0,-1,-3,-1,-2,-3
116615831753,3,-3,1,0,-2,-1,1,2
116615843838,-8,2,-2,2,1,0,1,2
116615843838,16,-2,0,-2,-1,-2,1,-2
116615852781,0,3,1,-1,-1,-1,1,3
116615852781,28,-15,-4,0,-2,-2,-1,17
116615867823,4,5,5,0,-1,3,3,-6
116615867823,-15,12,-3,-3,-3,-1,-3,-16
116615869270,15,4,-2,0,1,1,-1,11
116615869270,-11,5,-2,-4,-3,-1,-1,-3
116615890194,6,-1,-1,-2,-2,0,-2,6
116615890194,-7,-7,-3,0,-1,-1,-3,-2
116615891730,-6,1,-1,-1,-1,0,-1,-8
116615891730,-7,2,-2,-3,1,-3,0,-4
116615903760,-11,-2,-2,-1,-1,-1,-3,-9
116615903760,-7,5,-1,1,-2,0,1,2
116615912811,-2,-4,-1,-2,0,0,-1,5
116615912811,-3,8,-2,-2,-2,-1,-1,-4
116615927837,5,-33,-6,-4,-2,-3,-2,12
116615927837,19,8,6,3,1,2,3,1
116615929226,-5,-3,-3,-1,-2,-2,-1,1
116615929226,3,-4,-1,2,0,1,-1,-3
116615957596,-1,9,1,-3,-1,-1,-2,-9
116615957596,7,-6,-5,-2,-2,0,-1,1
116615959194,-13,-8,0,-2,-1,-1,0,-8
116615959194,-12,8,-2,-1,0,-2,-1,-7
116615972774,-7,4,-5,2,-1,-2,-1,0
116615972774,6,-4,0,-2,0,-1,-1,-1
116615974319,2,-13,-2,-3,-2,-2,-1,-4
116615974319,-2,-3,-2,0,-1,-1,-1,3
116615987576,14,2,1,0,-1,2,0,-5
116615987576,-13,-6,-2,-3,-2,-2,-1,3
116615989187,3,18,-1,0,1,-2,-2,-15
116615989187,-2,-5,-1,0,-2,0,0,9
116616017599,-2,-4,-2,-3,1,-1,-1,2
116616017599,-11,5,1,0,-1,-1,-1,-8
116616019190,1,-3,-2,1,-2,0,-3,-5
116616019190,7,9,-1,1,1,-1,-2,-6
116616032555,-4,26,1,-5,-6,-1,-1,-4
116616032555,2,-12,-7,0,-1,-3,-1,7
116616034159,3,-24,-3,2,0,-2,-1,-1
116616034159,-5,6,2,-1,1,-1,-1,-3
116616047541,-2,3,-2,1,1,-1,0,2
116616047541,-3,-4,-2,-4,-1,-1,-4,-11
116616049180,12,5,-2,-2,-2,0,0,24
116616049180,0,-1,0,-2,-1,-1,2,-16
116616070065,-17,-10,-2,-1,-1,-2,-2,-2
116616070065,-9,-18,-5,-2,-2,-3,-2,-40
116616071710,3,-2,1,0,1,-1,1,15
116616071710,-10,12,1,1,-1,-1,2,13
116616092541,-7,0,0,0,-2,-1,-3,-5
116616092541,-5,3,1,-1,-1,0,0,9
116616094191,3,7,-1,-2,-3,0,0,-6
116616094191,-3,-9,-5,-4,-3,-1,0,-8
116616106970,-6,-33,-4,0,1,-1,-1,-2
116616106970,1,2,0,-2,1,-2,-2,-7
116616113755,-2,6,0,-3,1,-2,-1,-2
116616113755,4,8,0,1,-2,-1,-1,10
116616130144,-1,15,0,1,-1,-1,0,-2
116616130144,5,0,0,-1,-2,-1,-2,11
116616131683,-8,-2,-2,-4,-3,-1,-1,-6
116616131683,20,-2,-1,-2,-1,-2,-2,-14
116616152562,8,5,3,1,1,0,3,23
116616152562,7,1,0,-1,0,0,0,6
116616154163,-4,3,-1,-1,-1,-3,-1,-6
116616154163,2,-14,-4,-3,-1,-1,-2,2
116616166885,-30,-8,-3,-3,-3,-2,-4,-7
116616166885,6,2,1,1,0,0,-2,5
116616173768,-5,-4,-3,-1,-2,-2,0,6
116616173768,-13,-3,-1,-2,-2,-1,-3,-24
116616190122,4,-1,-2,-3,0,-3,-1,-5
116616190122,-5,-5,0,-1,1,-2,1,1
116616191743,-17,8,-4,-1,-2,-1,-4,-11
116616191743,1,-4,-3,-2,-2,0,-3,-7
116616220513,7,21,3,0,-2,-2,0,2
116616220513,18,-1,0,0,0,-1,1,-6
116616222163,7,1,-2,-4,-3,1,1,4
116616222163,-3,-3,-1,-1,0,-2,-1,4
116616235172,8,3,-3,-1,0,-2,-4,-5
116616235172,-2,0,-2,-1,-1,0,-2,2
116616236722,-1,-1,0,-1,0,-1,-1,-4
116616236722,-2,0,0,0,-3,-1,-2,15
116616250130,-5,-6,-2,-2,-2,0,0,-10
116616250130,-6,-6,-3,-1,-2,-2,-3,3
116616251721,1,-5,-1,-2,-1,0,-2,13
116616251721,-1,-18,0,-2,-2,0,-1,8
116616272592,-15,-9,-1,-1,-1,-2,-3,-3
116616272592,-14,-2,-2,-4,-5,-2,-3,1
116616274186,-3,-1,0,0,1,-2,1,4
116616274186,-3,10,0,-1,-1,-2,0,-2
116616286915,4,-6,-1,-1,0,1,1,0
116616286915,-3,-1,-3,1,-1,0,0,-4
116616293729,-16,-3,-2,-2,-2,-2,-4,-9
116616293729,10,9,0,-2,-1,-1,3,5
116616310115,1,-35,-5,-4,-2,-1,-2,-2
116616310115,-14,1,0,0,0,0,-3,-18
116616311791,1,-2,-1,-1,0,-1,0,-2
116616311791,-8,-1,-2,-2,-1,0,-1,0
116616332644,14,14,6,4,2,1,0,-10
116616332644,14,-5,-5,-3,-3,-1,2,-1
116616334225,3,3,0,-1,-2,-1,-2,-12
116616334225,-4,-5,-1,0,-1,0,-1,-1
116616346917,-4,5,-2,-3,0,-2,-2,5
116616346917,6,4,-1,-2,-1,-3,-1,10
116616353720,11,1,1,0,-1,0,-2,-3
116616353720,-10,-17,-2,-2,-1,-1,-2,-33
116616370036,2,1,-1,-1,-2,-2,1,4
116616370036,-5,0,0,1,0,2,-1,3
116616371686,10,3,-2,-2,1,-2,0,5
116616371686,-2,12,-1,-2,-2,-2,-2,3
116616392622,-3,10,-2,-2,-1,-2,-1,2
116616392622,-7,-1,1,-3,-2,-2,-2,-1
116616394211,-5,-1,0,0,-2,-1,-3,-5
116616394211,1,-3,-1,1,0,-1,0,7
116616406945,16,-1,-3,0,-1,-2,-1,-3
116616406945,8,11,3,1,-1,0,0,1
116616421271,-1,-2,-2,-2,-2,-1,-1,-10
116616421271,-14,9,-2,-3,-1,-2,-3,15
116616430091,-17,-10,-5,0,-3,-2,-2,-6
116616430091,11,2,1,1,2,0,0,1
116616431687,-2,-4,0,-1,-1,-1,-1,-6
116616431687,1,0,-1,1,-1,0,-1,-1
116616452620,-4,7,-1,-1,0,-2,1,10
116616452620,2,2,0,-1,-2,1,-1,-6
116616454207,-3,4,-2,-1,0,0,-2,1
116616454207,15,-1,-3,-2,-2,0,-2,-4
116616466238,-2,12,2,-1,-2,-1,-1,0
116616466238,3,-22,-4,-1,-2,-3,-1,0
116616475245,1,-2,-1,1,0,2,-1,13
116616475245,6,1,-2,-1,-1,-1,2,-6
116616490094,-3,-6,-1,-2,-1,0,-3,-26
116616490094,-9,-1,-1,-1,-1,-1,-1,9
116616491755,0,-1,-1,0,-3,-1,-1,-2
116616491755,-1,-4,-1,-3,-1,-2,1,2
116616512612,-4,-3,-1,0,0,-1,-2,-5
116616512612,-4,1,-1,-1,0,-1,1,-3
116616514231,-7,3,-2,-1,-1,-1,0,-3
116616514231,14,-15,-3,-3,-1,-2,-3,-5
116616526228,7,-7,-3,-2,-1,-1,-2,13
116616526228,-9,5,1,0,1,0,-1,-1
116616535237,23,-2,-1,0,0,-2,2,13
116616535237,-10,3,-1,-1,-2,-2,-3,-13
116616550100,2,-3,-1,-1,-1,1,-1,4
116616550100,-4,-6,-4,-2,-2,0,-3,-4
116616551771,-14,-8,-6,-2,-2,-2,-2,-10
116616551771,-4,13,2,1,-1,0,-3,-12
116616572556,6,1,-2,-2,-2,-1,-1,7
116616572556,2,-6,-2,-3,-1,-1,-2,-9
116616574149,-5,-2,0,-2,-1,-1,0,1
116616574149,1,4,0,0,-1,-3,-3,4
116616586232,-1,5,0,-3,-1,0,1,-1
116616586232,-4,15,3,1,0,-2,-1,1
116616595212,14,11,0,1,1,0,0,-6
116616595212,-2,-5,1,0,0,1,-1,5
116616610076,-2,-3,1,-1,-2,-2,-1,-5
116616610076,2,-2,-3,-3,-3,-1,0,4
116616611723,1,5,2,0,1,-1,-1,17
116616611723,0,19,-2,-1,-1,-2,3,-5
116616632588,-16,-6,-4,0,-1,0,1,6
116616632588,23,15,1,0,1,2,1,-4
116616634208,-2,-3,0,-4,-5,-1,-2,4
116616634208,-2,-5,-2,1,0,-1,-2,4
116616646258,-8,-5,-2,-2,-1,-2,-3,-17
116616646258,-13,-9,-6,-1,-2,-3,-2,2
116616655189,-15,-6,0,-1,-1,0,-1,-21
116616655189,4,-2,1,-1,-1,0,1,10
116616670035,6,-9,0,0,-1,-3,-2,-3
116616670035,-5,-2,-6,-3,-1,-3,-4,0
116616671630,-2,13,1,-1,-1,-2,-2,12
116616671630,-6,-5,-3,-2,-1,-1,-2,-23
116616692624,-20,4,-1,0,-1,0,-2,3
116616692624,-2,-1,0,-2,-1,-1,0,-1
116616694214,2,-7,-1,-1,-1,-2,1,-2
116616694214,-4,-9,-3,-2,-2,0,-1,5
116616715041,2,-4,-1,0,0,0,1,4
116616715041,6,-1,-2,-3,-2,-3,0,4
116616716701,-6,-4,-2,-1,-1,-2,-1,-12
116616716701,-9,-4,-4,-3,-2,-2,-2,4
116616730135,-7,-4,0,-1,-1,0,0,-6
116616730135,16,10,1,-1,0,0,1,0
116616731742,6,-5,-3,1,-1,-2,-2,-5
116616731742,-10,-1,-2,-1,1,0,-1,28
116616752560,5,4,0,-1,-2,-2,0,-20
116616752560,-1,-2,-1,-1,-1,-2,0,9
116616754214,-1,-6,-2,1,-1,-1,-1,-2
116616754214,12,4,-2,1,-1,0,0,-1
116616766266,-5,-2,-5,-2,-2,-3,-5,-11
116616766266,-11,-6,0,0,0,0,0,-6
116616775190,-6,9,-3,-3,-4,-2,-2,-25
116616775190,7,1,3,2,-1,0,1,10
116616790083,6,0,-2,0,-2,0,-3,8
116616790083,-6,18,-2,-1,-1,0,-2,-16
116616791693,-1,-4,-1,-2,-3,-2,0,12
116616791693,-18,1,4,-2,-1,-2,-2,-9
116616812626,2,-5,-4,0,0,-1,0,6
116616812626,-5,1,1,0,1,-1,-2,-5
116616814230,12,-3,-3,-1,0,-1,2,-4
116616814230,15,3,1,0,1,-1,-2,-2
116616826225,5,16,3,-3,-2,1,1,9
116616826225,-11,-12,-3,-1,-2,-2,0,1
116616835223,1,-5,-1,-3,-1,-1,-1,7
116616835223,1,-11,-3,-2,-1,-1,0,-5
116616850585,1,2,1,2,0,0,0,-7
116616850585,0,-11,-7,-3,-3,-1,2,36
116616852355,-5,-3,1,0,1,0,0,-2
116616852355,1,9,-2,0,0,-3,-2,-5
116616872588,5,-4,0,0,-1,-2,0,15
116616872588,-4,-6,0,0,-2,-1,-1,-9
116616874245,-26,-9,-5,-3,-2,-1,-4,22
116616874245,-6,-16,-2,-1,-1,0,2,-4
116616886186,0,-32,-6,-2,-3,-3,-1,1
116616886186,-5,-6,-1,-1,-2,-3,-2,-7
116616895239,5,5,2,-3,-1,0,-1,-3
116616895239,1,2,1,0,0,-3,-1,-7
116616917559,-7,1,-2,-3,-1,0,-1,-2
116616917559,30,16,4,1,0,2,1,-2
116616919225,0,-5,-3,1,0,-1,0,-5
116616919225,15,-4,-7,-3,-1,-2,-1,14
116616932561,11,7,0,-4,-2,0,-1,2
116616932561,-13,-22,-3,0,-1,-1,-3,-12
116616934188,6,3,-1,-1,1,0,2,43
116616934188,-1,-1,-1,1,-2,-2,-2,-2
116616955063,-3,8,0,1,-1,-1,-1,15
116616955063,-1,3,-2,-2,0,-1,2,-16
116616956713,2,-2,2,-1,0,-4,-2,-16
116616956713,-9,-7,1,-1,0,0,-2,7
116616970086,-2,0,-2,-3,-2,0,-1,2
116616970086,-5,-1,-3,2,-2,-2,-2,-1
116616971703,4,-2,-2,0,-2,-1,0,-10
116616971703,-2,2,0,-1,-1,-2,0,-2
116616992639,-4,5,1,-1,-3,-2,-2,-13
116616992639,-5,-2,2,-1,1,0,-2,2
116616994213,5,6,-2,-1,-2,-1,-2,-8
116616994213,-9,6,-2,0,-1,-1,-3,-4
116617015105,-1,-11,-2,-1,-1,-1,-1,16
116617015105,14,0,1,-1,0,0,2,-1
116617016703,-28,1,-2,-5,-2,-1,-3,-13
116617016703,-6,-2,-2,-2,-2,-1,-2,-14
116617030103,6,-2,0,1,1,-3,1,-4
116617030103,-4,5,-1,-2,-3,-2,0,14
116617031692,4,-3,-2,1,0,1,-1,-5
116617031692,-4,-4,-4,-3,-4,-3,1,-4
116617052641,-9,-3,-1,-2,-1,-1,-3,-14
116617052641,0,-2,-3,-3,-3,-3,-1,-3
116617054195,0,-15,-2,1,-1,0,1,-13
116617054195,14,-2,-2,0,-1,0,1,5
116617075096,-1,3,0,-2,-2,-2,0,-2
116617075096,-7,-5,-4,-3,-3,-3,-4,8
116617076692,-2,-20,-6,-1,-1,-1,0,-3
116617076692,3,-8,-2,0,0,-1,0,-1
116617089452,9,13,3,-2,0,-1,-1,5
116617089452,-7,-9,0,0,0,0,0,-4
116617096282,-4,6,1,-4,-4,-1,-2,-1
116617096282,5,0,1,-1,-1,0,0,-3
116617111645,3,-19,-7,-1,-2,-1,-1,-5
116617111645,-7,-4,-1,-3,-1,-1,-1,-5
116617120291,4,8,0,0,0,-2,-2,3
116617120291,-10,-1,1,-1,-2,-1,-2,-5
116617135189,-5,1,-2,0,0,0,0,-3
116617135189,6,1,-2,2,0,0,-1,2
116617136715,2,-4,1,0,-1,0,0,-3
116617136715,-4,4,-2,-3,-1,-1,-1,-17
116617149458,-3,-1,-1,-1,0,-2,-1,-6
116617149458,-15,-2,-3,-3,-3,-2,-4,-18
116617156224,3,12,4,1,0,-1,0,42
116617156224,-9,-5,-1,-1,0,1,-2,-1
116617172557,-10,-28,-6,-4,-4,-2,-2,-8
116617172557,-1,-3,-2,-1,1,0,2,-10
116617174213,-5,2,0,-2,-1,-1,-2,-12
116617174213,-3,14,-2,-1,-2,0,-2,21
116617195045,-9,-2,0,2,-1,1,2,-11
116617195045,4,2,0,-3,-1,-2,-1,9
116617196666,0,-4,-3,0,1,0,-2,-12
116617196666,3,1,-1,1,0,-1,-1,4
116617209456,6,9,-1,-3,-3,-1,-2,-7
116617209456,-13,-1,-4,0,-3,0,-2,0
116617216219,-1,2,-1,-3,-2,-1,0,-7
116617216219,4,-12,-4,-1,-3,-2,-1,2
116617232621,-3,4,0,1,1,-2,0,3
116617232621,7,0,1,-1,0,-1,-2,-15
116617234191,5,5,0,-1,-1,-2,1,18
116617234191,-3,0,0,-4,-2,-1,-1,25
116617255134,6,8,2,-1,-1,1,1,7
116617255134,5,6,0,1,0,0,2,-7
116617256701,1,1,0,-1,-2,1,-2,-4
116617256701,2,2,2,1,-2,-2,1,-8
116617269872,5,0,-1,-4,-1,-3,-1,7
116617269872,0,1,0,1,0,-1,-2,8
116617276309,-4,-28,-4,-2,-1,-1,0,-9
116617276309,12,12,1,1,-2,0,0,-10
116617292640,0,0,-3,-4,-3,-3,-3,-3
116617292640,-3,-4,-2,-1,-2,-1,-1,0
116617294214,0,0,-1,0,-2,-2,-1,-5
116617294214,-2,-1,-2,-3,-1,-2,-2,-9
116617315106,-15,-4,-4,1,0,0,0,-2
116617315106,7,5,2,-1,1,-1,-1,7
116617316704,0,-1,-3,0,-2,-3,0,0
116617316704,-14,-7,-3,-3,0,-3,-3,-19
