timestamp,emg1,emg2,emg3,emg4,emg5,emg6,emg7,emg8
59454933381,-2,-1,0,1,0,-1,-1,-2
59454933381,-2,-2,-1,-2,0,-1,-2,-1
59454934081,-1,-1,-2,-1,-2,1,0,0
59454934081,0,-1,-1,-2,-2,-2,-3,-2
59454955852,-1,-1,-2,0,-2,-2,-1,1
59454955852,-2,0,0,-1,-1,-1,-3,0
59454956600,0,-1,0,-1,1,1,-2,-2
59454956600,0,-2,-1,-3,-2,-2,-1,0
59454978987,-1,-1,-1,1,-1,-2,0,-2
59454978987,1,-1,-1,-1,-4,-2,1,2
59454979807,1,0,-3,0,1,0,-1,1
59454979807,-4,-1,-1,-1,1,-2,0,-3
59454992626,0,-2,-2,-1,-1,-1,0,-1
59454992626,-2,0,-2,-1,0,1,-2,0
59455001003,-2,-1,1,0,0,-1,0,-1
59455001003,-1,-2,0,-1,0,0,0,-1
59455015734,-1,-3,0,-2,-2,-1,-1,-2
59455015734,-1,-3,-1,-2,1,-1,0,-1
59455016543,-2,0,-1,0,-1,-2,-2,0
59455016543,-1,0,0,-1,-2,-1,-2,-1
59455039033,-2,0,0,0,0,1,0,0
59455039033,1,0,-2,-1,-1,0,-3,0
59455039801,-1,-2,0,-2,-1,-1,0,-1
59455039801,0,-2,-1,2,-2,0,0,0
59455052657,-2,0,0,-2,-3,-2,0,0
59455052657,-2,0,-1,-1,1,0,-1,-2
59455060828,1,-1,-3,-1,-1,0,0,-1
59455060828,-1,-1,-2,-1,1,0,-2,0
59455076029,0,0,-2,-1,-2,0,-3,-2
59455076029,-1,-3,0,-3,-2,-1,1,0
59455076675,-2,1,0,1,-2,-2,-1,-2
59455076675,-2,-1,-2,-1,-1,0,-1,-2
59455099248,-2,-3,-2,-1,-1,-1,-2,0
59455099248,-2,-2,0,0,0,0,-1,-1
59455099812,-1,2,-1,-1,-2,-3,-2,-2
59455099812,0,-2,-2,-3,-1,-2,-1,0
59455112697,-1,-1,0,-1,0,0,1,-2
59455112697,-1,-1,-2,-1,-1,-2,-2,-1
59455120588,-2,-3,-1,-2,-1,-1,-1,-2
59455120588,1,1,-2,1,0,-2,0,-3
59455135810,1,0,0,1,-2,-2,-2,-2
59455135810,-2,-1,0,0,1,-1,1,-1
59455136611,-1,-1,1,-1,0,-1,-1,1
59455136611,0,0,-2,-2,-3,-1,-2,0
59455159113,0,-2,-1,-3,-1,0,-2,-3
59455159113,-1,1,-1,0,-3,-3,-1,-1
59455159863,-1,-2,-1,-1,-1,-1,1,-2
59455159863,-2,-4,-1,-1,0,1,-1,0
59455172662,-2,-1,1,-1,-2,-2,-1,0
59455172662,-3,-1,0,-1,-1,-3,-2,-1
59455180866,-1,-1,-2,-1,2,-1,0,-1
59455180866,-1,0,-1,-1,-1,-1,-1,-1
59455195801,0,0,-3,0,-1,-3,-1,-2
59455195801,0,-1,-4,0,-2,-1,-1,0
59455196631,0,0,0,0,1,-1,-1,0
59455196631,1,-1,0,-2,-1,0,-1,-2
59455219013,-2,0,-1,-2,-1,-1,0,1
59455219013,-1,-2,-2,1,-1,0,-2,-1
59455219813,-1,-2,-3,1,-2,0,0,-1
59455219813,-3,-2,-1,-1,-2,1,0,-1
59455232630,-1,-3,-1,-1,0,-2,0,0
59455232630,-1,-1,-3,-1,1,-1,-1,-2
59455240842,-2,-1,-2,-3,-2,-2,-2,0
59455240842,-1,-1,0,-1,-2,-2,-3,0
59455255797,-1,-2,-1,-1,-2,-1,-2,-2
59455255797,1,-1,0,0,0,0,-1,1
59455256633,0,-1,-1,0,-1,0,-2,0
59455256633,-1,-1,1,0,-1,-3,-1,0
59455279017,-1,0,0,-2,-2,-1,-1,-3
59455279017,-1,-1,-4,-2,-2,-1,0,-1
59455279797,-2,-2,-3,2,-2,-2,0,-1
59455279797,1,-3,0,-1,-1,-2,1,-1
59455301561,-2,1,0,-1,0,-2,0,-1
59455301561,-1,0,-1,-2,-1,1,0,-2
59455302343,0,-2,-2,-4,-2,-1,-2,-2
59455302343,-2,-2,-3,-1,0,-2,-2,-3
59455315886,-2,-2,-1,-2,-1,1,-1,0
59455315886,-1,-1,-1,1,-3,-2,-2,-4
59455316657,-1,-1,-1,0,-3,-1,-3,0
59455316657,-1,-1,-2,-1,0,-2,-1,-1
59455338995,-1,-2,-1,-2,1,1,-2,1
59455338995,-2,-1,0,-2,0,-2,-2,1
59455339786,-2,-2,1,-2,-2,1,0,-2
59455339786,-1,-1,-1,-1,-1,-1,-1,-2
59455361584,0,-1,-3,0,-3,0,-1,-2
59455361584,-3,-1,0,-2,-1,1,-2,-1
59455362362,-2,0,-3,-2,-1,-3,-1,-2
59455362362,-1,0,0,-1,-2,0,-2,0
59455375839,-2,0,0,1,0,0,-1,-2
59455375839,-1,-1,-1,-2,-2,-1,-1,-1
59455376664,0,-2,0,-1,0,0,-1,0
59455376664,-3,2,-1,-2,1,-1,-2,-1
59455399005,0,-1,-1,0,-1,1,-1,1
59455399005,-1,-2,0,0,-2,-2,-1,-1
59455399820,0,-1,1,0,-1,-2,-1,0
59455399820,0,-2,-1,-2,-1,-1,-3,-1
59455421552,-1,-1,0,-1,-1,-1,-2,0
59455421552,1,0,-3,-2,0,-1,-2,0
59455422379,-2,0,-3,-1,1,-2,1,-1
59455422379,0,-2,0,-1,-2,1,-1,-3
59455435842,-1,2,1,-2,-1,-3,-3,-3
59455435842,-1,-2,0,0,-2,-2,-2,1
59455436668,-2,0,0,-1,0,-1,-1,0
59455436668,-1,0,0,-1,0,-1,0,-2
59455459057,0,-1,-3,0,-1,-1,-1,-2
59455459057,0,1,-1,-3,-1,-2,-1,-4
59455459801,1,1,-3,-3,0,-1,-3,-1
59455459801,-1,0,0,-1,-2,-2,0,1
59455481494,0,-1,-3,0,-2,-2,0,-1
59455481494,0,-1,0,0,0,-2,1,-1
59455482332,-1,-2,0,-2,-3,2,-2,-1
59455482332,-1,0,1,0,0,0,-3,0
59455495819,0,-1,1,-2,-2,-1,0,0
59455495819,-2,-3,-3,1,-2,0,-3,-2
59455496585,0,-1,0,-1,-1,-1,-2,-4
59455496585,-1,-1,-2,-1,-3,-2,-1,-2
59455519065,1,-2,-1,0,-4,-2,-1,-2
59455519065,-1,0,0,-1,0,-2,0,1
59455519857,-1,-1,-1,-2,-3,-1,-1,1
59455519857,0,0,-2,0,0,0,-1,-4
59455541502,0,-1,1,-1,0,-1,-1,0
59455541502,-1,-1,0,-1,-3,0,-2,-1
59455542327,0,-2,-1,-2,0,-2,-1,-1
59455542327,-1,-1,-1,-2,0,-1,-1,1
59455555838,-2,-2,-1,0,0,0,-3,-2
59455555838,1,-2,-3,-1,-1,-1,0,-1
59455556631,-3,-2,-2,1,-2,-2,-1,0
59455556631,-2,-2,-2,-1,-2,-1,-1,1
59455578973,-2,-1,-1,-2,-2,-2,-1,-4
59455578973,-2,-1,1,-2,0,-2,-2,-1
59455579786,-2,-1,-2,0,-2,0,-2,1
59455579786,-2,-2,-2,-1,-1,-1,1,1
59455601531,-2,-2,-3,0,-3,-1,-2,1
59455601531,-1,-1,-1,-2,-1,0,-1,-4
59455602393,-1,0,-1,-2,0,-1,1,-2
59455602393,-1,-1,-1,1,1,-2,-2,-2
59455615809,0,-1,-1,-2,0,0,-2,0
59455615809,-1,-2,0,-3,0,1,-2,0
59455616609,0,1,0,0,-2,-1,-1,-3
59455616609,1,-2,-1,-1,-2,-2,-2,-1
59455639003,-1,0,-2,-1,-1,-2,-2,-2
59455639003,-1,-1,-1,0,-2,-2,-1,-3
59455639782,0,-3,-1,0,0,-4,-1,-1
59455639782,-1,-1,-1,-1,-2,0,0,-2
59455661533,-1,0,-1,-1,-1,-1,-1,-3
59455661533,-1,0,1,0,-1,-2,0,0
59455663151,-2,-4,-1,0,-1,-1,-2,-1
59455663151,-1,-2,-4,0,-2,1,-1,-1
59455675183,0,-1,0,-2,-1,0,1,0
59455675183,-1,-1,-3,-1,-1,0,-2,0
59455684160,-2,-1,1,0,0,0,-1,0
59455684160,-1,0,0,0,0,-2,-1,0
59455699031,-1,0,0,-2,0,-1,-1,1
59455699031,0,-1,0,0,0,-2,0,-2
59455700625,0,-1,-1,-2,0,-2,-2,-1
59455700625,-2,2,-1,-1,-2,-1,-1,-1
59455721474,-1,-1,-2,-1,0,0,-2,-2
59455721474,1,-1,-1,-3,-1,0,-2,0
59455723037,0,-3,-2,-2,0,-1,-1,-2
59455723037,0,-3,0,-3,-2,-1,1,-1
59455735185,0,-1,1,-1,0,-1,-1,-2
59455735185,-1,-1,-1,-1,-1,-1,0,0
59455744213,-2,1,-1,0,-1,1,0,0
59455744213,1,1,-1,-1,-3,-2,-1,0
59455759016,-2,-2,0,-1,-1,0,-1,0
59455759016,0,-1,-2,-1,0,0,-2,-1
59455760646,0,1,-1,-2,0,0,0,1
59455760646,-2,-1,-1,-2,-1,-1,-1,-1
59455781506,-1,0,-2,1,-1,0,-2,0
59455781506,-2,0,-2,-1,0,-2,-1,0
59455783121,-1,0,-1,0,-1,-2,1,-2
59455783121,0,-2,-1,-1,-1,-2,-1,0
59455795194,-2,0,-1,-1,0,-1,-2,-1
59455795194,-3,-2,-2,-1,-1,0,-1,-2
59455804112,0,-1,1,-1,-1,-1,-2,-3
59455804112,-1,-1,-1,-2,-1,-1,0,0
59455819014,-2,-1,-1,-1,0,0,1,0
59455819014,1,-2,1,0,-3,-3,-2,-2
59455820654,-1,0,-3,-1,-2,-1,2,-3
59455820654,0,-1,1,1,-2,-1,-1,0
59455841501,-2,-3,-3,-1,-3,-3,-1,-2
59455841501,-2,-2,-1,-3,-1,0,0,1
59455843133,-1,-1,-3,-1,-2,-2,-2,0
59455843133,-1,0,0,0,1,-1,-3,-2
59455855190,2,-2,-2,-1,0,-1,-2,0
59455855190,1,-2,-1,-2,-1,-2,-1,-3
59455864163,-2,-1,-2,0,-1,-1,0,-2
59455864163,-1,-2,-1,-3,0,0,-2,-2
59455879000,-1,-1,-1,-1,-1,0,-1,-1
59455879000,-2,0,0,0,-3,1,-2,-1
59455880600,0,0,-1,-3,-1,-2,-2,1
59455880600,-2,0,-1,-2,0,-1,1,-2
59455901535,0,-1,-1,1,0,-1,-1,-2
59455901535,0,0,1,-2,-2,-1,-3,0
59455903116,-4,0,-2,-1,-4,0,-2,-4
59455903116,-1,-1,-2,-2,-1,-1,-3,-3
59455915131,0,0,0,-1,0,-2,0,-1
59455915131,-1,-1,-2,0,0,-2,-1,0
59455924157,-1,-1,-1,-2,-3,0,-3,-2
59455924157,-1,-2,-1,0,-1,-3,-2,-1
59455939045,-1,0,0,-1,-2,-3,-1,-2
59455939045,0,-1,-3,-3,-1,0,1,-1
59455940635,-1,-1,-1,-3,1,-1,1,0
59455940635,-1,-3,0,0,-1,-1,-1,0
59455961532,-3,-1,-3,-2,-2,-2,0,-1
59455961532,-2,0,1,-1,0,-2,1,-3
59455963159,-1,-1,-3,-1,1,-2,-2,1
59455963159,-1,1,-1,-1,-2,1,3,-1
59455975160,-1,-2,0,-2,-1,-2,-1,-2
59455975160,-1,-2,-1,0,0,0,-3,-1
59455984160,0,-3,-2,0,-1,1,0,0
59455984160,-1,-1,-3,-1,-2,-1,-3,0
59455999026,-1,0,-2,0,-1,-1,0,-1
59455999026,-1,0,-2,-1,-2,-2,-1,-2
59456000606,1,-2,3,0,0,-1,-1,0
59456000606,-1,-1,-3,0,-2,-2,-3,-2
59456021510,0,0,-3,0,0,0,1,-1
59456021510,-1,-1,-2,0,1,-1,-4,-1
59456023194,0,0,-2,1,-2,0,-2,-2
59456023194,-2,-1,-1,1,1,-2,-2,0
59456035172,-1,-1,2,-2,0,-1,-1,-1
59456035172,-1,0,-2,0,-1,-2,-1,0
59456044193,-2,-3,-2,-2,0,-1,-1,-2
59456044193,0,-2,-2,-1,-2,0,0,1
59456059021,-4,0,0,-1,-2,-2,-3,0
59456059021,-1,0,-1,1,0,-1,-1,0
59456060634,-3,0,-2,-2,-1,-1,0,-3
59456060634,-1,-1,-1,-2,-1,0,-1,-1
59456080634,0,-2,-3,0,0,0,0,1
59456080634,-1,-1,-1,-2,-2,-1,1,-1
59456089181,-1,-1,-1,1,0,-1,-1,-1
59456089181,0,0,0,-3,0,-2,0,-1
59456095151,-4,-2,-1,0,0,-1,-2,-2
59456095151,-2,-2,0,-3,0,-2,-2,2
59456104218,-1,-2,-1,0,-1,-2,1,-2
59456104218,-1,-2,-3,0,-2,-1,0,-1
59456119032,1,-1,-3,-1,-1,-1,-3,0
59456119032,-2,0,-1,0,-3,0,1,-1
59456120619,-1,0,1,-1,0,-1,-2,0
59456120619,-1,0,2,-2,0,0,0,-2
59456141509,-1,-2,-2,-1,0,0,0,-1
59456141509,0,-2,-2,-2,-1,1,-2,-3
59456143115,0,-1,-2,-2,-2,-2,-2,0
59456143115,0,-1,-1,0,-2,-2,-1,-2
59456155180,-2,0,-2,-1,2,-1,1,-1
59456155180,-2,-1,0,-1,-2,0,-1,-1
59456164146,-1,-1,0,0,1,-3,-1,-1
59456164146,-2,-2,-1,-2,-1,-2,0,1
59456179082,-1,-2,0,-1,-2,-1,0,0
59456179082,-3,-1,-1,-2,-3,1,-1,-1
59456180696,-2,-2,-1,-3,-2,-1,-1,0
59456180696,-1,0,-1,0,-1,-2,-2,-2
59456201525,1,0,-1,-2,-2,0,-3,-1
59456201525,0,-2,0,-3,-2,-2,-1,-2
59456203126,1,-1,-1,1,-3,-2,-3,0
59456203126,-1,-1,-2,1,0,-1,-2,-2
59456215241,-2,-2,1,-2,-1,-1,0,0
59456215241,0,1,-1,1,-1,-1,0,-1
59456224161,-2,-2,1,-2,-2,-2,1,-2
59456224161,0,-1,1,-3,0,-1,-1,1
59456239069,-3,1,-2,0,-3,-1,-2,1
59456239069,-1,-2,0,-1,-1,-2,0,-2
59456240697,1,1,-1,0,0,0,-1,-2
59456240697,0,-1,-2,0,-1,-1,-1,0
59456261596,0,-2,-1,-2,-2,-1,-1,-1
59456261596,-1,-2,-1,-1,1,-3,-2,0
59456263152,-2,-2,-1,1,-2,-1,-3,0
59456263152,-2,0,-2,-3,-3,-1,0,-3
59456283978,0,-2,-1,1,0,0,-2,-1
59456283978,-1,-1,-1,-1,-1,-1,-1,-1
59456285603,-1,-2,-1,-2,-1,0,-3,2
59456285603,0,-1,-3,0,-2,1,0,-1
59456298994,-1,-3,-1,-1,-3,-3,-2,-3
59456298994,-1,0,-2,-1,-1,-1,-1,-2
59456300612,-1,1,1,0,-2,-2,-1,-3
59456300612,0,-1,-1,1,2,0,-3,-2
59456321531,0,-1,-2,1,-1,0,1,-2
59456321531,0,-2,1,0,1,0,-1,0
59456323102,0,-1,-2,-1,-1,-2,-1,-1
59456323102,-1,-3,0,2,0,0,0,0
59456344042,-1,-3,0,-2,-2,-1,-1,-2
59456344042,-1,-3,-2,0,-1,-1,1,-1
59456345596,-1,-1,-3,-2,-1,0,-1,-1
59456345596,0,-1,-1,-2,-1,1,-2,0
59456359027,-1,-1,-2,-2,0,-3,-1,-1
59456359027,0,-1,-1,-1,-2,-2,0,-2
59456360658,0,-2,-1,-2,-2,0,-1,-2
59456360658,-2,-2,-1,-1,-2,1,0,-1
59456381502,-1,-2,-2,-1,-1,-1,-1,-1
59456381502,-1,0,0,-3,-1,-1,-1,-2
59456383198,-2,0,0,-1,-1,0,-1,1
59456383198,-1,-2,-1,-1,-1,0,-1,-3
59456404043,-2,-2,0,-1,-1,0,0,1
59456404043,0,-2,0,-2,-1,0,0,-1
59456405667,1,-2,0,0,0,0,-1,-3
59456405667,-1,0,0,-2,0,-3,-2,-2
59456417661,0,2,-3,-2,-1,-2,-2,-3
59456417661,0,-3,-4,0,0,-2,-1,-1
59456426662,-1,-1,-2,-1,1,-1,-2,-1
59456426662,-1,-2,-1,-2,-2,-1,-2,1
59456442168,0,0,-3,-1,-1,-1,0,-1
59456442168,0,0,0,0,-1,-1,-1,-2
59456443800,0,-2,0,0,-1,-3,-1,0
59456443800,0,-1,-1,0,-1,-2,-1,-2
59456463999,-1,-1,-1,0,0,0,-1,-1
59456463999,-2,-2,1,-3,-1,0,-3,0
59456465581,-3,0,-2,0,-1,-1,1,-1
59456465581,-2,-1,-1,-2,-2,-3,0,1
59456478416,0,-1,1,0,-2,0,1,-1
59456478416,1,-1,-3,-1,-2,-1,0,-2
59456492659,-1,-1,0,-1,-1,0,-2,0
59456492659,-1,-1,-1,-2,1,-1,-2,-1
59456501547,-1,-1,-1,-1,0,-1,0,0
59456501547,-2,-2,-3,-1,-1,-1,0,-1
59456503139,-3,-3,-2,-2,0,0,-2,0
59456503139,0,-1,-4,-1,-2,0,-2,-1
59456523996,-1,-1,1,-1,-2,-2,0,1
59456523996,0,-2,0,-1,-1,-1,-2,0
59456525626,-1,-2,-2,-1,-3,-1,-1,1
59456525626,-1,-2,-1,-1,0,-2,-1,0
59456538372,-2,-2,-2,-1,-1,0,-1,0
59456538372,-1,-2,0,0,-2,-2,-2,-1
59456545140,0,-1,0,-2,-1,-1,-1,-3
59456545140,0,0,-1,0,-1,-1,-1,-2
59456561533,0,0,-1,0,0,-2,-2,-2
59456561533,-1,-2,-2,-1,-2,-1,-1,-1
59456563157,-1,0,-1,-2,0,2,-1,-2
59456563157,-2,-3,-2,-2,-2,-1,-1,-2
59456584023,-2,-2,-2,-1,-1,-1,0,-1
59456584023,-1,0,-1,-1,1,-2,-2,0
59456585639,0,-2,-1,1,-2,-2,-1,-3
59456585639,-3,-1,0,-2,1,0,0,-1
59456598428,-3,-1,-1,-3,-2,2,0,-1
59456598428,-1,0,-2,0,-2,-1,1,0
59456605150,1,1,-2,-3,0,-1,-1,-1
59456605150,0,-1,-2,-1,-2,-1,1,0
59456621506,-2,0,-1,0,-1,-3,-2,-2
59456621506,-2,0,-2,0,-2,-1,-2,-2
59456623113,1,-2,0,-1,1,0,-2,0
59456623113,0,-2,0,1,-2,-1,-2,-1
59456644042,0,-4,-2,-1,1,-1,-1,1
59456644042,-1,0,0,-1,-2,1,-2,0
59456645629,-2,-2,0,-3,0,-1,0,-1
59456645629,0,0,-1,0,0,-2,-3,-2
59456658376,1,0,-2,-1,-1,0,-1,-3
59456658376,1,-2,-2,-2,-2,-1,0,-2
59456665173,-1,0,-2,-2,-2,0,-1,-1
59456665173,-1,-2,-1,-6,-1,-1,-2,0
59456681499,-2,-3,1,-1,-3,-3,-1,-2
59456681499,0,-2,-2,0,0,-1,-1,-2
59456683137,-1,1,-1,1,-3,-1,0,0
59456683137,-2,0,-1,1,-3,-1,-2,0
59456704031,-2,-1,-3,0,-1,-2,-2,-1
59456704031,-3,-1,0,-1,1,-2,-1,1
59456705654,-3,0,0,0,-2,-1,1,0
59456705654,-1,-1,-3,1,-2,-3,-2,-1
59456718380,-1,0,-2,-2,-3,-1,-1,0
59456718380,-2,-2,-4,1,-2,0,-2,-1
59456725157,0,-3,-2,-1,1,-1,-1,-2
59456725157,-1,-1,0,-1,0,-1,1,-3
59456741536,-2,-3,-3,2,-1,-2,0,-2
59456741536,-2,0,0,-4,-1,-1,0,0
59456743124,-2,0,-1,0,-3,0,-3,0
59456743124,0,0,-2,-1,-1,1,0,-1
59456764017,0,0,-1,-4,-2,0,0,-1
59456764017,-1,-2,-2,-1,-1,-2,1,-1
59456765610,-1,-1,-3,3,0,-2,-1,-1
59456765610,-2,-3,0,-4,-2,-1,-1,-2
59456793982,-2,-2,-3,-11,-2,0,-1,0
59456793982,0,-3,-3,2,-1,-2,-1,-2
59456795603,-1,-1,0,-3,-1,-1,1,-2
59456795603,-2,-1,-1,16,2,-1,-1,1
59456801498,-1,-2,-1,-4,-1,-1,-2,2
59456801498,-1,0,0,-1,-2,-1,1,-3
59456803128,0,-2,-1,3,-1,-1,-1,-2
59456803128,-2,-2,-3,-25,-8,-2,-2,-1
59456824062,1,-1,1,10,1,-1,-2,-1
59456824062,-1,0,1,17,5,-1,-3,0
59456825678,-3,-1,-3,-25,-9,-3,-2,-1
59456825678,0,0,1,10,3,0,3,-2
59456837665,1,-2,-1,-1,-2,-2,-1,-2
59456837665,1,0,0,-3,-1,-1,-1,-1
59456846697,0,-1,2,8,0,1,-1,-2
59456846697,0,-2,-1,4,1,0,-1,-2
59456868990,-2,0,-1,-4,-1,-1,-2,-2
59456868990,-3,1,0,13,-1,0,0,-1
59456870589,-1,-1,-4,-35,1,-3,-1,-2
59456870589,-2,-1,-4,-3,-2,0,-1,-1
59456884061,-1,-1,1,28,1,0,1,0
59456884061,0,1,0,-15,-3,-1,0,-1
59456885596,-1,-1,1,6,4,-2,-1,1
59456885596,5,-2,-3,-2,-11,-2,-4,-1
59456897680,-4,-3,-1,-9,-3,0,-1,3
59456897680,2,1,-4,0,0,2,1,-1
59456906620,1,-1,0,7,4,2,1,0
59456906620,1,1,2,-9,2,-2,-2,-1
59456921523,-3,-1,-4,29,-4,-2,-2,-4
59456921523,3,-2,-4,-26,-4,-4,-3,-2
59456923191,-1,-2,-3,-15,-4,1,-3,0
59456923191,2,10,3,34,9,1,1,-1
59456944003,-1,-3,-2,-56,-11,0,-1,0
59456944003,-5,-1,-1,4,-3,0,-2,-3
59456945637,-2,0,0,23,-1,-2,-2,2
59456945637,-2,-2,-2,-4,-3,-4,-4,-3
59456957697,0,1,-1,-5,3,0,3,-2
59456957697,0,-3,1,3,0,-2,-3,1
59456966666,0,1,-4,-19,-4,-5,-5,-2
59456966666,-7,-4,3,4,-1,6,-1,-1
59456980824,1,-1,-5,-9,-1,2,-1,0
59456980824,-3,-1,2,1,3,2,-2,2
59456995137,0,-1,-5,7,-12,-17,0,2
59456995137,-4,-2,-3,-4,0,2,-2,-1
59457003947,-1,1,0,10,3,0,0,-1
59457003947,-3,-3,4,-11,1,2,-3,1
59457005575,6,1,-5,-2,5,3,1,-1
59457005575,9,-2,0,-36,-14,1,0,-4
59457017669,1,4,-1,15,6,-8,-3,0
59457017669,-3,-8,0,-14,-8,-5,-5,-2
59457026638,-1,0,1,27,7,7,1,2
59457026638,1,-3,-2,-8,-3,-6,-5,-1
59457040827,2,2,2,8,0,3,2,3
59457040827,-4,-2,-6,-9,-5,5,1,4
59457047677,1,-2,0,7,2,-11,-9,-9
59457047677,0,0,0,20,3,-1,9,11
59457064051,4,-2,2,-7,-9,-3,-1,9
59457064051,3,-2,-8,-10,-2,-2,3,-3
59457065636,-4,-2,2,8,-8,7,-2,-3
59457065636,-4,-3,-3,6,4,-12,-12,0
59457077657,0,-5,1,13,10,5,-4,-9
59457077657,8,5,1,-27,-11,2,8,5
59457086656,-5,2,1,6,1,-6,2,-16
59457086656,-5,-14,-5,-19,0,5,-5,-4
59457100849,-7,-2,-3,19,-2,-6,-4,-6
59457100849,3,3,0,3,8,-2,3,-2
59457107648,-3,-3,-2,-15,0,9,4,9
59457107648,-4,1,-4,35,-11,-15,-3,-3
59457124054,-1,-1,-4,-23,-6,-11,-12,-6
59457124054,-2,-3,-1,10,2,18,5,4
59457125666,6,2,2,8,17,-8,1,5
59457125666,-3,-1,-1,4,0,7,1,-10
59457137669,2,-3,2,-19,-2,3,4,0
59457137669,1,2,-1,-5,-13,-4,-18,-37
59457146617,-1,-2,0,10,1,-10,2,51
59457146617,0,3,1,-9,1,1,2,-7
59457160857,-3,2,0,9,-4,3,-1,4
59457160857,0,-1,1,18,8,6,10,-1
59457167658,-7,-12,-3,-25,-10,-7,-10,-17
59457167658,-2,0,-5,-34,-12,-4,4,2
59457184021,-4,-3,-3,-5,10,-18,2,2
59457184021,-5,-3,-1,8,6,12,-4,5
59457185635,0,3,3,4,6,4,-14,2
59457185635,2,4,6,-23,9,10,14,4
59457206508,0,-4,0,19,-34,-6,-1,-11
59457206508,-4,-2,-5,-2,8,15,3,-2
59457208169,-3,2,-3,-5,2,5,4,-11
59457208169,-16,-4,-3,-11,-8,-32,-24,-5
59457220816,8,1,0,-6,-3,-17,-4,0
59457220816,-3,1,3,24,-4,-16,2,-8
59457227601,-4,-3,-7,-49,-17,28,8,5
59457227601,1,0,0,31,8,-5,5,1
59457243973,-7,-1,-3,-1,51,55,4,-34
59457243973,10,11,3,15,-30,-99,-17,36
59457245624,-8,-13,-4,13,17,18,-7,-21
59457245624,8,5,1,8,-3,45,19,6
59457266540,2,2,6,-4,1,9,-9,-8
59457266540,-2,-4,-7,7,8,-9,2,0
59457268127,2,5,2,4,-5,-1,0,-7
59457268127,-3,-6,-2,-10,-23,-33,-4,6
59457280883,-1,-6,-6,-15,-1,19,4,16
59457280883,-8,-8,-9,-52,-8,15,-1,-6
59457287656,2,1,3,31,-17,-50,-12,4
59457287656,0,-1,0,-12,44,26,11,-4
59457304006,1,2,1,7,-13,-2,6,10
59457304006,-3,-4,1,-5,-3,-1,-6,-2
59457305636,7,-1,-1,25,-8,-2,3,-20
59457305636,3,0,-3,4,16,36,6,3
59457326538,-3,-1,-1,-20,-18,-47,-17,3
59457326538,-1,-1,1,1,1,-13,0,-1
59457328115,-5,-2,-6,-20,5,44,17,-7
59457328115,-3,0,-3,6,1,-3,-17,-3
59457340140,1,-3,0,40,-13,-23,6,5
59457340140,0,1,3,-37,7,15,-6,-39
59457349144,-5,-11,4,-20,6,-19,1,28
59457349144,2,1,-4,-2,-31,-27,-19,2
59457364008,1,0,-5,-25,11,12,10,7
59457364008,0,3,5,39,-2,-1,-14,-13
59457365632,-5,-2,-11,7,-13,1,17,0
59457365632,-2,-4,0,-27,-7,-1,-2,-13
59457386453,-1,-3,0,7,4,-6,-19,7
59457386453,-1,-2,3,39,24,31,14,23
59457388021,2,4,6,-12,-14,-61,-19,-10
59457388021,-3,-2,-3,31,-2,32,14,5
59457400609,1,5,2,-1,5,-7,-4,-13
59457400609,-5,-3,-5,-30,5,18,-2,6
59457424653,-1,0,3,-3,-3,-9,-5,-5
59457424653,1,-3,-8,-8,-2,-37,-2,-3
59457425493,-6,-2,-3,-30,-16,9,1,-2
59457425493,-2,-3,0,20,-3,5,3,0
59457427087,-2,-2,-10,-19,-11,3,-14,-12
59457427087,0,0,0,20,13,3,9,6
59457446476,-3,-2,6,-16,16,20,11,-11
59457446476,7,4,1,3,-7,-9,-2,5
59457448075,-2,2,-1,20,-7,5,6,2
59457448075,-1,-1,5,-11,6,-8,-14,-6
59457460171,-2,1,-1,1,1,0,4,10
59457460171,0,1,1,1,-16,-7,3,-7
59457469109,-1,-2,-1,31,4,7,-2,-4
59457469109,1,1,-1,-20,5,1,-8,1
59457484052,-5,0,2,46,-5,-18,-1,-2
59457484052,2,-3,-4,-2,9,7,-3,3
59457485699,0,-1,0,-11,-3,7,1,5
59457485699,-4,-3,3,-3,-3,-10,-2,8
59457506522,3,-3,-3,-28,-27,4,1,2
59457506522,-6,-3,-6,-9,6,4,3,3
59457508121,0,-2,-6,8,-1,-1,-3,-9
59457508121,2,4,6,37,6,2,3,7
59457520140,-5,-4,-10,-22,-18,-5,-3,-2
59457520140,-3,-4,15,4,4,-5,0,0
59457529216,-1,1,5,34,0,-2,-7,-8
59457529216,7,7,2,2,-8,-1,3,0
59457545343,5,1,-1,12,9,0,-5,-15
59457545343,3,0,-3,-12,-7,4,6,31
59457547000,-4,-4,-2,3,14,-1,-4,-8
59457547000,4,3,1,-28,-9,0,3,-4
59457566225,-3,4,7,28,9,3,-6,-12
59457566225,-4,-6,-17,-53,-3,-9,-4,-9
59457572655,3,4,9,-11,-13,0,7,7
59457572655,-4,-8,-10,24,1,0,-8,-2
59457580197,0,-4,-5,-5,12,-1,6,12
59457580197,-2,-3,-8,-6,-23,-4,0,-14
59457589183,-8,-5,0,9,6,2,-1,1
59457589183,-1,-4,-8,-16,0,-7,-1,-7
59457604027,-4,-3,-3,0,12,1,2,0
59457604027,-2,-1,0,-5,6,-2,3,-9
59457605640,-3,-3,-8,43,-10,3,-2,-5
59457605640,-6,-4,-4,-28,-7,-9,-4,-2
59457626480,-1,-2,-4,-9,-5,-4,-3,1
59457626480,-1,-2,-1,27,5,0,3,-1
59457628051,-1,-1,3,-49,1,2,3,5
59457628051,-7,-6,-3,13,-9,-5,0,-7
59457640156,-2,-4,-5,4,-1,0,2,2
59457640156,-4,-1,-4,-9,-2,-4,-2,-2
59457649169,1,1,4,-7,6,5,0,-3
59457649169,-2,-3,-3,-3,1,-3,1,4
59457664058,-1,-2,-7,-13,-10,0,-2,1
59457664058,-1,-3,-5,25,10,2,2,4
59457665672,1,2,-13,-35,3,3,6,3
59457665672,1,-3,9,18,4,2,5,1
59457686481,0,0,-1,15,-4,-2,0,-4
59457686481,-5,-2,-6,48,-1,-6,-6,-3
59457688105,2,2,0,-49,-9,2,2,7
59457688105,-6,-4,-7,19,-13,-6,-4,-5
59457700146,-2,-4,-3,-37,1,-2,2,-1
59457700146,-3,-3,3,-6,-4,-2,-3,-2
59457716635,0,0,-2,2,8,4,-2,-3
59457716635,-2,-2,0,8,-1,1,0,-1
59457731499,2,4,0,-16,-6,-3,-2,-1
59457731499,6,6,14,10,-5,-2,0,1
59457733123,-11,-15,-1,20,4,1,-2,1
59457733123,1,3,-1,-54,-6,-3,-2,-1
59457746501,2,0,3,21,2,2,-1,2
59457746501,-3,-2,-8,13,1,-1,1,-3
59457748108,4,0,1,-6,2,0,2,0
59457748108,4,0,1,-5,-3,-3,-4,-1
59457760184,-7,-3,-8,-7,0,1,0,-1
59457760184,2,0,1,11,-6,-3,-4,2
59457769117,2,2,-3,-15,-2,0,-4,-1
59457769117,-1,-1,-3,9,5,3,-2,1
59457783975,1,1,0,-20,-3,-3,-3,-6
59457783975,-1,0,-3,-11,2,2,0,-1
59457785580,1,1,3,-20,-7,-4,0,1
59457785580,-3,0,0,19,2,2,1,0
59457806496,-3,-2,0,14,2,-3,0,0
59457806496,-3,2,1,-23,-9,-2,-4,-1
59457808126,-2,1,-6,13,4,-4,-2,0
59457808126,0,0,-3,-3,-7,-4,-3,-2
59457828968,-1,-5,5,38,6,1,1,0
59457828968,-4,0,-4,-16,0,1,0,-4
59457830630,4,6,-11,5,-4,-3,-1,-2
59457830630,-5,-3,-15,22,-2,1,0,-5
59457851571,-1,-2,-3,-43,-4,-1,-1,1
59457851571,-1,-4,2,27,5,0,2,1
59457853145,-5,3,1,-45,-7,-2,-2,-3
59457853145,5,7,-10,11,-2,-4,-6,-1
59457866512,-7,-6,-13,-2,-1,3,1,1
59457866512,0,-12,0,-2,-1,-6,-7,-2
59457868107,1,6,-2,-2,0,0,1,0
59457868107,-1,-8,34,0,0,-6,-5,-5
59457880178,-4,5,-72,1,-2,4,-3,-1
59457880178,9,7,34,-33,-13,2,7,6
59457889091,0,-6,3,22,2,-2,-14,-13
59457889091,11,2,-83,16,9,7,-5,9
59457903786,14,-10,48,27,2,-1,8,24
59457903786,-11,-3,21,14,6,-1,-6,-43
59457917656,-21,9,10,-26,-20,-11,-14,-34
59457917656,82,13,-30,13,2,6,6,12
59457926533,-2,25,-7,19,15,4,-11,-5
59457926533,-17,-1,-59,18,-3,-3,-6,22
59457928139,57,13,-22,3,12,6,24,26
59457928139,21,-8,37,19,2,-10,1,-40
59457940157,-76,-21,-95,-23,-26,-21,15,-16
59457940157,-38,-50,97,30,12,-3,1,-69
59457949165,-8,-19,-90,19,-14,-10,16,25
59457949165,-95,-19,17,-35,-11,-1,14,-6
59457963340,26,0,-28,-40,-7,-9,1,15
59457963340,-25,8,-99,-69,-23,-14,-24,-45
59457970138,-15,-21,49,22,12,7,-7,13
59457970138,-40,-27,-30,-80,-25,-4,-16,3
59457986519,27,16,57,34,18,1,-14,-19
59457986519,41,11,-17,-40,-1,6,3,28
59457988098,-9,0,17,25,12,19,6,-1
59457988098,4,8,-17,58,26,8,11,48
59458000170,3,-8,-35,-69,-37,-18,-13,-27
59458000170,16,11,-22,-5,4,-4,-4,37
59458009106,6,4,-4,6,11,11,11,5
59458009106,19,5,127,51,9,14,0,-6
59458024002,-10,-20,-117,-50,5,3,0,-6
59458024002,3,7,125,11,-2,-2,8,7
59458030141,-16,-3,-9,-3,-12,-5,-11,-10
59458030141,-8,-18,-92,0,10,-20,-2,-13
59458046523,9,13,28,37,5,27,-9,0
59458046523,3,2,-24,-5,10,-15,-2,7
59458048121,4,-2,-6,-14,-6,9,-7,-12
59458048121,0,7,-15,-12,-13,-29,1,-1
59458060160,-1,-3,49,19,4,6,0,7
59458060160,-1,-1,-47,18,-1,1,-1,3
59458069114,-14,-4,-38,-28,-10,-7,-3,-8
59458069114,-6,4,12,2,-3,6,-2,-3
59458100497,-1,-8,64,52,7,-4,3,7
59458100497,6,8,31,1,-2,7,0,6
59458102119,26,16,2,-12,-4,-6,3,3
59458102119,3,8,-10,-11,-2,6,-3,-3
59458106624,10,10,64,47,8,-1,5,2
59458106624,21,11,-68,-39,-3,0,3,5
59458108230,-1,-4,20,29,3,-8,-8,2
59458108230,-12,7,-17,-15,-1,2,-1,-10
59458128982,-14,-1,-1,4,-4,-2,-3,-15
59458128982,1,-3,-17,-3,-1,2,4,0
59458130595,-17,-1,16,39,0,-5,-3,15
59458130595,4,2,8,-12,0,2,-3,-6
59458143381,2,-4,4,-35,-5,-5,3,6
59458143381,-7,-5,5,-16,-2,1,1,3
59458150183,5,-3,-9,-45,-9,-4,-6,-7
59458150183,1,-2,10,7,2,2,0,6
59458166546,7,4,-1,22,5,-2,-1,4
59458166546,-2,-4,-29,-20,-8,-3,-5,-1
59458168134,-10,-3,-2,5,-6,-1,2,-5
59458168134,0,-3,-6,-6,1,1,-5,1
59458188977,-5,0,13,14,-3,-10,0,2
59458188977,14,3,2,-20,-1,7,2,1
59458190615,-6,-4,4,36,7,-4,0,-5
59458190615,-11,2,10,-18,-7,6,-1,1
59458203325,-4,-4,-6,-40,-4,4,1,0
59458203325,19,1,-2,35,6,-1,3,9
59458210155,2,1,-4,4,4,0,-5,-4
59458210155,1,-1,-9,1,-7,-7,-3,-5
59458225545,5,-1,-5,0,0,-2,-1,0
59458225545,-13,-4,-2,-1,-1,-1,-2,-10
59458234178,1,-1,0,-2,-3,-2,0,-5
59458234178,7,1,3,14,2,-2,-1,-3
59458256495,-10,-1,-2,-2,1,-1,-1,-2
59458256495,4,-3,0,5,-3,-1,-1,0
59458258117,-4,-2,-5,8,2,-3,-4,-2
59458258117,-2,1,3,-26,3,-1,2,1
59458262591,6,-3,-7,16,-11,-2,2,1
59458262591,-11,-3,-4,12,1,-3,-2,0
59458271685,17,5,-2,3,9,-3,2,-1
59458271685,-1,0,-3,-32,-19,1,-2,-2
59458286518,3,-3,-3,-7,-2,-4,-5,0
59458286518,-7,-3,1,26,3,0,0,-1
59458288091,-4,-3,-4,-13,-6,0,-4,-4
59458288091,-5,-2,4,-8,2,-1,5,-1
59458324658,9,-4,-8,29,-1,-1,-2,-3
59458324658,-16,-6,3,-14,-5,-6,-3,1
59458326258,-4,-1,3,9,-1,0,1,0
59458326258,3,-3,-8,-5,-1,0,-4,-3
59458327070,-17,-1,7,-4,6,6,0,-2
59458327070,6,2,-2,-3,-2,-10,-5,0
59458331619,-3,-5,-4,-18,-3,-2,0,0
59458331619,-1,1,3,20,0,1,-2,1
59458346509,-2,-1,-1,-25,-3,-4,-2,1
59458346509,0,1,-1,11,2,7,3,0
59458348115,-18,-3,3,-8,0,-10,-5,-5
59458348115,-1,-1,-2,6,-3,7,-2,0
59458369521,2,-1,-7,-14,-3,-5,-2,-2
59458369521,-4,-2,-5,24,-3,-3,-1,-1
59458371075,-1,-3,-1,-1,1,1,1,1
59458371075,1,0,2,-29,-3,1,4,2
59458382618,5,2,6,-11,1,-2,-3,-1
59458382618,-15,-8,-7,3,-5,-1,-2,-3
59458391704,3,1,-4,7,1,3,1,0
59458391704,2,-1,0,15,4,1,-2,0
59458406498,4,0,1,-25,-2,1,-1,1
59458406498,2,3,3,9,2,-4,3,1
59458408077,-3,-3,-4,-12,-11,-5,-4,-4
59458408077,1,-1,-3,-5,-3,-4,-6,-4
59458428977,10,-6,-7,22,3,-2,1,-5
59458428977,-4,0,1,3,0,-3,-4,0
59458430573,0,-1,3,-34,-10,-5,-2,-3
59458430573,-4,-2,-1,8,5,10,-1,-1
59458442671,-2,0,4,30,2,-5,1,2
59458442671,4,0,-1,10,-4,3,-1,-2
59458451648,0,0,0,0,2,-2,-3,-2
59458451648,3,3,-3,6,-1,-11,-1,-1
59458466530,-7,-2,-4,-27,-5,4,0,1
59458466530,-2,0,-1,-2,1,4,0,0
59458468195,0,-1,-2,13,5,1,2,-1
59458468195,4,0,-3,-4,-7,-3,-1,-2
59458490409,-3,0,1,10,0,-3,-4,-2
59458490409,2,-1,-1,-20,-2,-4,0,0
59458492079,1,-1,2,-5,6,9,3,3
59458492079,-1,-5,-5,11,-7,-1,1,-3
59458511523,0,1,1,-6,-3,0,1,1
59458511523,-3,-1,-2,-11,-1,-2,-2,-3
59458513147,3,0,-5,-19,-10,-4,-4,-1
59458513147,-4,-1,0,-1,4,-4,0,-1
59458533983,-14,-3,-2,12,0,1,-2,-2
59458533983,12,1,1,-17,-6,3,3,-1
59458535622,-5,-1,1,-11,-1,3,1,0
59458535622,10,1,0,16,2,-9,-4,-1
59458548970,-2,-4,-4,4,-1,1,-1,-3
59458548970,-5,-3,-7,-22,3,-2,0,1
59458550589,1,1,2,34,8,4,2,-2
59458550589,-12,-6,-3,-40,-19,-2,-5,-2
59458562648,15,5,1,-6,1,-3,-2,-1
59458562648,-3,-1,2,18,4,3,-2,-2
59458571677,2,-1,-2,9,4,1,1,2
59458571677,-4,-2,-2,3,2,-2,-1,-3
59458594021,-1,-1,1,2,3,1,2,0
59458594021,-3,-2,-4,-6,-7,-1,-3,-2
59458595603,0,-1,1,5,1,-3,0,-1
59458595603,0,1,3,-32,-4,-3,-2,-1
59458608979,-2,-3,-1,8,-4,1,0,0
59458608979,-2,1,1,11,4,3,-3,-1
59458610601,0,-2,-2,-10,-4,-5,-1,-2
59458610601,0,-1,2,14,6,1,0,1
59458622653,-3,-3,-8,-11,-1,0,0,-3
59458622653,-2,-4,-3,5,-9,-4,-5,-2
59458631655,2,-2,0,-2,-7,0,-1,0
59458631655,0,-2,0,32,11,0,1,0
59458646525,-3,-2,-2,-57,-19,-5,-3,-1
59458646525,0,0,5,11,4,1,0,-1
59458648131,-1,-5,-12,-30,-14,-6,-8,-3
59458648131,-1,0,-1,-2,-1,-1,1,1
59458669018,-3,-3,-6,8,2,-1,1,-2
59458669018,-2,0,-1,17,0,-1,-1,-2
59458670606,9,2,3,-19,0,1,0,0
59458670606,-6,-3,1,16,1,1,-2,-3
59458682688,0,-3,-7,-17,-6,-3,-2,-1
59458682688,-5,-2,-5,18,2,0,-2,-1
59458691628,-1,0,-4,12,1,0,-2,-1
59458691628,-3,0,0,6,1,-1,0,-3
59458706460,2,1,4,3,0,2,0,2
59458706460,0,-3,-5,-31,-5,-1,-2,0
59458707993,3,-1,8,34,6,-1,-1,2
59458707993,-5,1,-5,-6,-2,-1,0,-1
59458736489,1,2,11,15,5,-2,0,-1
59458736489,-3,-5,-4,-36,-1,-2,0,0
59458738033,-2,2,0,29,8,2,2,-2
59458738033,-6,-7,-29,-5,-16,-3,-4,-1
59458742600,7,4,16,1,7,2,1,2
59458742600,0,2,-7,0,-5,-2,0,-1
59458751656,-14,-8,4,-18,-2,0,1,-3
59458751656,-4,-1,-7,-12,2,-2,-4,-4
59458766465,-13,-3,-7,-2,0,-4,0,-2
59458766465,7,-1,2,23,3,-2,-1,-1
59458768110,-3,0,-9,-12,-2,0,2,-1
59458768110,3,-3,8,-12,-1,-2,1,-3
59458788784,-5,-5,-3,9,-2,-1,-3,-1
59458788784,-1,-2,-3,-22,-6,-4,-2,0
59458795149,8,4,-4,1,-1,0,-1,1
59458795149,-1,-3,1,2,-1,-1,0,1
59458802693,1,-2,-3,-1,-2,-5,-3,-3
59458802693,-8,-6,-6,1,1,0,2,-2
59458811660,-3,-3,-2,16,-3,-3,-4,-2
59458811660,5,2,7,6,7,3,0,-1
59458826531,0,1,-7,-27,-19,-6,-5,1
59458826531,1,3,7,9,2,0,-2,-3
59458828150,-2,-1,4,-8,2,2,-4,-1
59458828150,4,3,7,11,3,2,-4,3
59458848977,5,2,0,-17,-1,1,-3,-3
59458848977,-2,2,2,8,-1,0,-2,-1
59458850609,-4,-2,1,-8,-5,-1,-6,0
59458850609,2,1,4,-2,-3,-1,-1,-3
59458862680,-2,-1,3,6,2,10,1,0
59458862680,2,2,5,7,0,-13,-8,2
59458871606,0,1,4,-4,2,3,2,0
59458871606,2,-1,1,-6,1,3,0,0
59458885831,1,-1,2,11,-2,-5,-1,-2
59458885831,1,-1,2,-12,-2,16,1,-1
59458892655,0,1,-2,3,4,-5,-3,0
59458892655,-1,-1,3,1,-1,-2,6,3
59458909029,-3,-1,-3,1,-2,-5,-6,-5
59458909029,-3,1,-2,-6,4,-3,-2,-1
59458910699,-2,-1,-3,3,-4,-3,0,-3
59458910699,0,-1,3,-3,0,3,-1,0
59458922628,-1,1,-1,8,1,-7,-1,2
59458922628,-2,0,-3,-3,2,11,3,1
59458939140,-3,-1,0,-4,-6,-6,0,-2
59458939140,0,0,-4,-9,-2,-5,-4,0
59458945854,-2,-1,-3,11,-2,-3,-2,-2
59458945854,-2,-1,-3,1,0,-7,-2,-1
59458960259,0,-1,-1,-7,1,8,5,2
59458960259,-2,-2,-4,4,4,6,-5,-2
59458968962,1,-2,0,4,-7,-14,-1,1
59458968962,-1,0,0,-5,-2,6,2,-2
59458970599,-2,-2,0,-4,-5,-8,-6,-2
59458970599,-8,-2,-2,-7,-2,-5,1,0
59458982676,11,5,-3,4,10,9,-2,-2
59458982676,0,2,3,3,-2,1,-2,-1
59458991625,0,1,0,-2,2,-4,-1,-2
59458991625,1,-1,0,-4,-7,-7,-3,-2
59459005780,-4,-3,-2,1,2,9,-1,2
59459005780,0,-2,1,1,0,-13,-1,3
59459012681,0,-3,1,-1,2,8,-1,1
59459012681,4,2,1,-1,-1,0,-4,-1
59459029001,-3,-1,1,1,-1,-2,0,-3
59459029001,0,0,-1,-4,-2,-1,0,1
59459030606,-3,-2,0,-2,-4,-7,-3,-3
59459030606,-1,-1,-1,-1,-3,1,1,-1
59459042609,-2,0,2,5,5,-5,0,2
59459042609,-4,-4,-2,-1,-2,-7,1,0
59459051669,-3,-3,-5,-6,-1,14,2,-1
59459051669,-5,-6,-8,-1,-5,-13,4,-4
59459066241,-7,-7,-14,-1,0,-4,0,-4
59459066241,-6,-4,-11,-2,-4,-4,1,-5
59459074113,-6,-4,-10,-2,-4,-11,0,-3
59459074113,-6,-6,-12,-1,-3,2,1,-4
59459088980,-7,-7,-10,0,1,8,4,-2
59459088980,-5,-5,-10,0,-4,-10,5,-3
59459090631,-5,-5,-10,0,1,3,3,-2
59459090631,-1,-3,1,-3,-2,-10,-2,-1
59459111496,0,0,1,-2,-2,-4,-1,-1
59459111496,2,-2,3,-4,-3,5,-9,-2
59459113110,3,6,7,-2,-6,0,-4,-2
59459113110,4,3,1,1,3,-2,-7,1
59459125810,6,-1,13,4,4,8,2,4
59459125810,3,1,5,-2,1,0,0,-3
59459140155,1,-2,1,-2,1,3,-5,-1
59459140155,-3,0,-3,-4,-5,-6,-2,-1
59459163940,-1,0,0,2,-1,12,-2,-3
59459163940,1,0,1,0,1,-10,2,1
59459165611,1,-3,3,-1,-2,-1,2,-2
59459165611,1,-1,-2,-1,-2,-4,0,-3
59459171453,-1,-2,-2,-4,-3,0,-4,-1
59459171453,0,2,2,3,1,2,-2,1
59459173113,0,1,-3,-12,1,-4,0,0
59459173113,3,0,4,0,3,11,2,1
59459185810,-1,0,-2,-3,-3,-1,1,-3
59459185810,-1,-1,-2,-1,-4,-7,-4,-3
59459192598,0,0,-1,2,1,-9,-3,-2
59459192598,0,-4,3,0,0,6,-1,-1
59459208938,-3,-2,-1,-4,-3,-1,0,-1
59459208938,-1,0,-1,-3,0,18,-2,-1
59459210548,-1,-2,0,2,0,-13,-2,3
59459210548,0,1,2,-1,1,-2,-2,-3
59459231509,1,1,-2,1,0,-7,1,-1
59459231509,-3,-2,-3,-1,1,8,-2,-7
59459233157,4,0,-1,-1,0,4,-1,2
59459233157,0,-1,-2,-1,-2,-2,-1,-5
59459245092,-9,-3,-5,-3,-3,-8,-5,6
59459245092,1,0,4,1,-3,-6,-7,-5
59459254144,-1,-1,-2,0,-1,1,11,1
59459254144,0,1,3,-1,-1,-2,-5,-1
59459268974,1,1,1,-3,1,0,0,-7
59459268974,-1,-2,-8,0,-1,-5,-1,6
59459270548,-2,-1,-2,4,-4,6,-3,-2
59459270548,-2,0,0,-1,-2,-2,2,1
59459291559,1,1,-4,1,-1,-2,-1,-3
59459291559,-3,-1,2,0,-1,-1,-2,0
59459293143,-3,-2,-4,-9,-3,-3,-3,-3
59459293143,0,0,-2,-6,0,5,0,1
59459305110,0,-1,3,12,0,-1,-3,0
59459305110,-3,-2,-3,-1,4,-1,1,-4
59459314176,-2,1,4,-8,-7,-3,-4,-1
59459314176,-4,-2,-3,3,-2,-1,3,-1
59459329006,-2,-1,-1,0,5,-2,0,-2
59459329006,0,-1,-1,3,-10,-5,2,2
59459330627,0,-2,-1,-7,7,5,0,-3
59459330627,-2,0,-4,-2,-1,-2,-3,0
59459351474,1,-1,-1,-3,-1,-1,2,-2
59459351474,-2,-2,1,-2,-1,1,4,-1
59459353002,-3,-3,-1,9,3,-6,-5,-2
59459353002,2,0,-1,0,-3,-5,-1,-4
59459365151,-1,-2,-5,1,0,-1,-2,0
59459365151,2,0,1,-6,-1,-1,-2,-2
59459374103,-4,-4,-1,-2,-2,-1,-3,-3
59459374103,0,-2,-3,-1,1,-1,3,1
59459389008,-1,-1,0,-3,-1,0,-2,1
59459389008,1,0,-2,-4,-1,-1,1,-1
59459390622,0,-1,-2,2,-2,-2,1,-1
59459390622,1,-1,0,-1,-1,0,-1,2
59459411584,-1,1,1,-5,-3,-1,-3,-1
59459411584,0,-1,0,-1,2,0,-3,-1
59459413095,-3,0,1,2,-2,1,-2,-1
59459413095,6,1,0,-2,0,-2,-3,1
59459425147,-2,1,-2,-3,-3,-2,-2,-2
59459425147,-2,-3,-5,-1,2,-3,2,-3
59459434177,1,-2,-3,0,0,1,1,-4
59459434177,-10,-13,-4,-1,-1,-1,-2,-4
59459448980,-2,0,-2,-2,-2,-1,1,-1
59459448980,-1,1,-3,0,-2,-1,0,0
59459450635,-7,-5,-8,-2,-3,-4,0,-3
59459450635,-4,-2,-4,-1,-3,-1,1,-3
59459471453,-1,-4,-6,-3,-4,-1,1,0
59459471453,-4,-3,0,-1,0,-3,-2,1
59459473114,3,2,1,0,-1,0,-4,3
59459473114,1,3,1,-2,1,1,-5,1
59459485161,1,2,6,0,-2,0,-4,0
59459485161,3,4,3,-2,-2,1,-3,-1
59459494161,2,0,2,-2,-2,-1,-3,-1
59459494161,2,2,1,-2,1,0,-2,-2
59459508975,0,-2,1,-2,-2,-3,-3,-2
59459508975,-4,-2,-2,0,-1,-2,-1,0
59459510607,0,2,0,2,-1,-1,-2,-1
59459510607,-7,-3,0,0,-2,-1,-1,-1
59459531549,3,1,-3,0,-2,-2,0,-1
59459531549,-1,-3,-5,-2,0,0,1,-3
59459533216,0,0,-2,-2,-1,0,0,-1
59459533216,4,12,-2,1,-3,-2,1,-1
59459545130,-7,-11,-2,-3,0,-1,-1,0
59459545130,1,-1,1,0,-1,-2,1,0
59459571129,0,-1,0,-2,-1,-2,1,-2
59459571129,0,1,-2,-3,-2,0,-2,-1
59459571935,0,3,-1,-2,1,-2,-4,0
59459571935,0,0,1,-2,-1,0,-3,0
59459575170,-3,-3,0,-2,-2,-2,-1,-2
59459575170,0,-3,-2,-2,-1,-1,-1,-4
59459591489,-2,-1,-1,-4,-1,-1,-2,0
59459591489,-1,-2,-1,-2,-1,0,-1,0
59459593071,0,1,-1,-1,-3,-1,1,-1
59459593071,-2,-4,0,-2,0,-2,0,0
59459605129,-5,-1,-2,0,-1,0,-1,-3
59459605129,5,3,0,-1,-1,-2,0,1
59459614150,-1,2,-1,-1,-3,-1,-1,-1
59459614150,0,-22,-1,-3,0,-1,-3,-2
59459629015,5,8,1,2,-1,-2,2,-2
59459629015,-1,-1,-1,-1,1,1,-1,-3
59459630630,0,3,-1,-2,1,0,-2,1
59459630630,-1,1,0,1,1,-2,1,1
59459652195,0,0,-2,-2,-1,-1,-2,-3
59459652195,-4,-4,-1,-2,-2,0,-2,-3
59459653760,2,-4,-4,1,-1,0,1,0
59459653760,-3,5,-1,-2,-4,-1,1,-1
59459665155,-2,-3,-1,-2,-3,-2,-2,-2
59459665155,-2,1,-2,-1,-1,-3,-1,-1
59459674124,-4,-3,0,-2,-1,-1,-2,0
59459674124,-1,1,-1,-2,0,0,-2,0
59459689025,-2,-2,-1,-1,0,-2,-3,-1
59459689025,-1,-4,-1,-1,-3,0,-2,-1
59459690613,-1,0,0,1,0,-2,-1,0
59459690613,-2,-1,-1,0,-2,-2,-1,-2
59459711502,0,-3,-2,-2,-2,0,-1,0
59459711502,-2,-1,-2,-3,-1,-1,-1,0
59459713116,-2,-3,-3,0,0,-1,-2,0
59459713116,0,2,-2,0,-1,0,0,-1
59459725150,0,-3,-3,-1,-1,0,-2,-3
59459725150,-2,-2,0,1,-2,-2,-2,-2
59459734106,-1,-1,-1,-1,-1,-1,0,-2
59459734106,0,1,-2,0,1,-2,-2,-2
59459748293,-2,-2,0,-1,-2,0,3,0
59459748293,-1,-1,-2,-3,0,0,-1,-1
59459772156,1,-1,-1,-2,-3,0,-3,-1
59459772156,-1,-2,-1,-2,0,0,-2,-1
59459772965,-1,-1,-1,0,-1,-1,-1,1
59459772965,-5,-8,-4,2,0,-1,-1,-1
59459774587,-8,0,-3,-2,0,-2,0,-3
59459774587,-2,0,-2,-1,-1,-2,-2,0
59459785132,-14,-4,-3,-2,-2,1,-2,-2
59459785132,-1,0,0,-1,-2,-1,0,-3
59459794150,-3,-3,-1,-1,0,-1,0,1
59459794150,-1,-3,0,-1,-2,0,-1,0
59459808376,4,2,-3,-2,0,1,-1,-1
59459808376,-2,2,-8,-5,-2,-2,-2,-2
59459815083,0,-2,6,1,0,0,0,-3
59459815083,-3,0,-12,-4,-1,-4,-2,-1
59459831487,1,1,4,1,0,-2,-2,-1
59459831487,1,0,-4,-3,-1,0,-2,0
59459833043,0,-4,0,0,-1,-2,1,0
59459833043,-2,0,-10,-4,-1,-1,1,-1
59459845153,-1,-1,-1,0,0,-1,2,1
59459845153,0,-8,1,0,-1,-1,0,-2
59459861698,1,1,-4,-2,-1,-2,-3,0
59459861698,0,-2,5,2,-1,1,-1,-2
59459868337,-2,-4,-4,-3,-3,-1,-1,-2
59459868337,0,1,2,0,0,-1,0,1
59459875157,-6,-3,-1,-2,0,-1,-1,1
59459875157,5,-1,4,2,-3,0,0,0
59459891511,3,0,0,-1,-3,-1,0,0
59459891511,-1,1,-1,0,-2,1,0,-3
59459893141,-1,-2,-4,0,-2,-2,0,-2
59459893141,-3,-1,1,-2,-2,-1,0,-1
59459905127,3,-2,-1,1,0,-1,0,-1
59459905127,0,-3,1,2,-2,0,-2,-1
59459914152,1,-1,0,-2,-1,-1,-3,-2
59459914152,-2,0,1,-2,-1,2,-1,-1
59459928367,0,0,0,-2,0,-1,-3,-2
59459928367,-1,1,-1,0,-3,-1,-1,-3
59459935113,0,1,3,1,-1,1,-1,-1
59459935113,-1,-3,1,-1,-1,-2,-1,0
59459951515,-4,-2,-1,-5,-1,0,-1,-2
59459951515,9,12,0,0,-1,-1,0,1
59459953027,-5,-5,-5,0,-1,0,-2,-1
59459953027,1,0,-1,-3,0,-1,0,-1
59459965147,-1,-3,-2,0,1,1,-2,1
59459965147,-1,7,1,0,0,-2,1,0
59459974109,2,0,-1,0,0,0,-1,-2
59459974109,-2,-2,-2,-1,1,-2,-3,-2
59459988373,0,0,-1,-1,0,-3,1,0
59459988373,-9,-5,-13,-6,-3,-1,-3,2
59459995133,3,0,1,0,0,-1,-1,0
59459995133,-4,-4,-2,0,-2,1,-1,-4
59460011503,0,-1,-2,-2,-2,-3,-1,-2
59460011503,-5,-3,-1,0,1,-2,0,1
59460013222,-2,-2,-2,-1,-1,-1,-3,-3
59460013222,0,3,0,-1,-1,1,-3,0
59460033956,6,2,-1,-1,0,-1,-1,4
59460033956,3,7,3,0,-1,1,-2,-11
59460035628,-1,-7,1,-1,-1,0,1,15
59460035628,0,1,0,0,1,1,-1,-2
59460048394,3,1,-2,-1,-2,-2,-2,-4
59460048394,0,-1,2,-1,-2,-2,-2,-1
59460055131,2,4,-2,-2,-2,-2,-1,-8
59460055131,-3,-1,-3,-2,-2,-2,0,0
59460071486,-5,-2,-1,0,-2,1,-2,-2
59460071486,0,-7,0,-3,2,-4,-1,-2
59460073092,-1,1,-3,-2,-4,-2,-1,-4
59460073092,-3,-5,1,0,2,1,0,1
59460093962,-1,0,2,0,-3,-2,-1,-2
59460093962,-2,-7,-1,-1,-5,-3,-4,0
59460095639,-2,0,-3,-3,0,-4,0,-10
59460095639,1,0,-2,0,0,-1,-2,-3
59460108374,11,-3,3,1,0,1,1,5
59460108374,0,-1,5,0,-1,1,3,3
59460115191,-1,1,-1,-1,0,-3,-3,0
59460115191,-1,-1,2,0,-2,-4,-2,-1
59460131511,-2,-1,-9,0,-2,1,0,-3
59460131511,-7,-2,2,1,-2,-2,-1,0
59460133136,3,0,-2,1,0,2,-1,2
59460133136,3,0,-2,-1,-1,-1,-1,0
59460154021,-6,-2,-2,-2,-1,-2,-1,1
59460154021,-3,-3,-3,-3,-1,-1,-1,-1
59460155606,-4,-2,-2,-3,0,-1,-1,-2
59460155606,-2,2,-1,-2,-2,-3,-3,-1
59460167684,-6,-2,-2,-1,-2,-2,-1,-3
59460167684,4,3,13,2,0,-1,2,2
59460176599,-1,-2,1,-1,-2,1,-4,-2
59460176599,-2,0,-2,-2,1,-3,-1,-1
59460191531,-5,-2,0,0,-2,-1,-2,-4
59460191531,2,-1,-4,-1,0,0,-3,0
59460193179,0,-1,-3,-2,-1,0,2,1
59460193179,1,-1,4,1,-3,-2,2,1
59460214100,-3,2,-3,-4,1,0,-2,-2
59460214100,-3,-7,-3,-3,-2,-1,0,-2
59460215611,-4,-4,0,-3,-1,-3,-2,-1
59460215611,-3,-1,-5,-2,-2,-1,-1,0
59460227616,-3,-1,1,-1,-1,-3,-2,1
59460227616,-2,-2,-7,0,-1,-2,-2,-4
59460237311,0,-2,-1,-1,1,-3,-1,-5
59460237311,-1,-4,0,-1,0,1,-1,-2
59460250778,0,0,-3,-1,-3,-1,-1,3
59460250778,-2,-1,-1,-2,0,0,-2,-3
59460251515,-2,2,-1,-1,-4,-2,-1,-1
59460251515,-1,-1,0,1,-3,-2,0,-1
59460273389,0,-4,2,-2,-1,-2,-1,-4
59460273389,-1,-2,-4,0,-1,-1,-1,-1
59460274115,-1,0,0,0,-1,-1,-3,0
59460274115,0,-1,-1,0,0,0,-1,2
59460296690,-1,-2,-1,-1,-3,-1,-1,1
59460296690,1,1,-4,0,1,-1,0,0
59460297365,-2,-2,-1,-2,-3,-2,-1,2
59460297365,-1,-1,-2,0,-2,0,-2,-4
59460311048,-3,0,0,-1,0,-2,-2,-1
59460311048,-3,-2,-3,-2,0,1,-1,-2
59460311638,0,0,-1,-1,-2,-2,-1,-3
59460311638,0,0,-1,-2,0,-2,-1,-1
59460333491,0,0,-1,0,0,-1,-2,-3
59460333491,-2,-4,0,-3,-1,-1,0,0
59460334087,-1,-2,-1,-1,0,-1,-1,0
59460334087,-1,1,0,-1,0,0,0,1
59460347928,0,0,1,0,-1,-1,0,-2
59460347928,-1,0,-1,-1,0,0,-2,-1
59460356153,-1,0,0,-1,-3,-1,1,0
59460356153,-2,-2,-2,-1,-2,-3,-3,-2
59460379010,-2,1,-1,-1,-1,-2,-2,-2
59460379010,-1,-2,-1,1,0,-1,-1,2
59460379812,-1,0,-2,-1,-2,0,-2,-2
59460379812,-2,0,-2,-2,-2,-1,-1,-1
59460401597,-2,0,0,-2,-1,1,-1,-1
59460401597,0,1,-1,-1,-2,-1,-1,-2
59460402370,0,-3,-1,-1,-1,-1,-2,-1
59460402370,0,-1,-2,0,0,-1,0,-1
59460407835,-2,-1,0,-1,0,-2,-3,0
59460407835,-1,-2,0,0,-1,-1,-2,-1
59460416042,-1,0,0,-2,-1,0,-2,-2
59460416042,-1,0,1,-1,-1,-1,-3,-2
59460430843,-2,0,-3,-2,0,-1,-2,-1
59460430843,0,-3,-2,-1,-4,-2,-2,0
59460431628,-1,0,-2,-1,0,-1,0,1
59460431628,-2,-1,-1,0,0,1,-3,-1
59460453558,-1,-2,1,-1,-1,-2,-1,-2
59460453558,0,1,-1,-3,-3,-2,-2,0
59460454077,-2,-1,-3,-2,0,0,-1,0
59460454077,-1,-3,-3,-1,-2,-2,0,-2
59460476563,-2,-1,0,1,-2,-1,-1,-1
59460476563,-2,-2,-2,0,-1,-2,-2,0
59460477378,-2,-1,-2,0,-1,0,-1,-2
59460477378,1,0,-1,-2,-1,0,0,-1
59460491063,0,0,-1,1,0,-1,-2,-1
59460491063,0,1,-1,-7,-4,0,-1,-1
59460491590,-1,1,-3,2,1,-3,-3,0
59460491590,-3,-1,2,-2,-3,-2,-2,0
59460513439,-1,-2,-3,-2,0,-1,1,-3
59460513439,-2,-1,0,1,-1,-2,-1,-1
59460514139,-1,1,-2,-1,2,-1,1,-1
59460514139,0,-2,-1,-2,0,-1,-1,0
59460527650,0,-1,-1,-2,-1,-1,0,0
59460527650,-1,-2,-3,1,-1,0,-1,-1
59460535853,0,-2,-1,-1,-2,0,0,-2
59460535853,-1,1,0,0,-1,-1,-1,-2
59460550921,-2,-3,-2,-3,-2,-2,0,0
59460550921,0,-1,-3,-1,1,-1,-2,-2
59460551671,0,-3,3,0,-2,0,1,-1
59460551671,-1,0,-1,1,-1,0,0,-2
59460573516,-1,-1,1,0,-1,0,-1,-3
59460573516,-1,-1,-2,-1,-1,-1,0,-2
59460574174,-1,-2,-1,-2,-4,-3,-1,1
59460574174,0,-1,-3,-2,0,-1,0,0
59460587899,-2,-2,0,-1,-1,-1,-3,-1
59460587899,0,0,-3,0,-2,-1,0,-1
59460595893,-1,0,-1,-1,-3,0,-1,-1
59460595893,-2,-1,-2,-2,0,1,-1,-2
59460610842,0,-3,-2,-2,-2,-3,1,-1
59460610842,0,0,0,0,-2,1,-1,1
59460611591,-1,-2,-3,0,0,-1,-2,0
59460611591,-1,-1,0,-3,-3,-4,-2,-2
59460633453,0,0,-1,-2,-3,0,-2,-2
59460633453,0,-1,2,-1,-1,0,-1,-1
59460634102,-1,-1,-2,-2,-1,0,-1,-2
59460634102,0,-2,0,0,0,-1,0,-2
59460647661,-2,-1,0,-1,0,-2,0,-1
59460647661,-2,1,-1,-1,-1,-2,0,-1
59460655810,0,-1,0,-1,0,1,-2,-1
59460655810,-2,-2,-1,-1,-1,-1,-3,0
59460679147,1,1,0,1,1,-1,-1,-2
59460679147,-3,-1,0,-2,-1,0,0,-1
59460679813,-1,-2,0,-3,1,-1,-2,-1
59460679813,-1,0,-1,-1,-1,-1,1,-1
59460693311,0,1,1,-2,-3,0,-3,-1
59460693311,-2,-2,-2,-1,-2,-4,-1,-1
59460694060,-1,0,-1,0,-2,-2,-2,-1
59460694060,1,-3,-2,0,0,0,0,-2
59460707632,-1,-1,-1,-2,0,-1,-1,0
59460707632,0,-1,-2,-1,-1,-1,-2,-4
59460716048,-1,-2,-1,0,-1,-1,0,-2
59460716048,1,0,-1,-1,-3,-2,-2,0
59460730922,0,-2,1,-3,-1,-2,-1,-1
59460730922,-1,-1,-2,-2,-1,-1,-1,1
59460731602,-1,-1,-1,0,2,0,0,3
59460731602,-3,-2,2,1,-2,0,0,0
59460753351,-1,1,-2,-1,-2,-1,-2,-1
59460753351,-1,-2,2,-3,-2,-2,0,2
59460754069,-1,1,0,-2,-2,-2,-2,-3
59460754069,-1,0,-1,0,0,-3,-2,-1
59460767759,-1,-2,-2,0,0,1,0,1
59460767759,0,0,-1,0,0,0,-2,-3
59460776190,-1,-1,-2,-1,0,0,-2,0
59460776190,-1,0,-2,-2,-1,0,-2,1
59460791043,0,0,1,-1,-2,-2,-1,0
59460791043,-1,0,1,0,0,1,-2,-2
59460791597,1,-1,1,0,0,-1,-2,-1
59460791597,-2,-2,-3,-3,-1,-1,-2,-5
59460813467,-2,-2,-3,1,-1,-2,0,1
59460813467,-2,0,-1,-1,-1,-1,0,1
59460814215,-1,-2,0,-2,-3,-2,0,-3
59460814215,-2,0,0,-2,-1,-2,-3,-2
59460827727,1,-1,-2,1,1,0,-1,-3
59460827727,0,-3,-1,-1,-1,-2,-1,-2
59460835853,-4,0,-1,-2,-1,-2,-3,-1
59460835853,-2,-2,-2,-3,-2,-1,1,1
59460850879,-1,-3,-1,-2,-1,-2,-3,-2
59460850879,-1,-1,-1,-2,-2,-1,-2,-1
59460851680,0,0,0,1,0,0,0,0
59460851680,0,0,-2,-2,-3,-2,-2,-2
59460881562,0,0,0,0,-2,-1,-2,-2
59460881562,-1,0,0,-2,-2,0,-1,-4
59460882378,-1,-1,-3,-3,0,1,0,-3
59460882378,-1,-1,-1,1,-1,0,-1,2
59460887927,-2,-1,-2,-1,1,-2,0,1
59460887927,-3,-2,-2,-1,1,-2,-3,1
59460896040,0,0,1,-2,-2,-3,-1,-1
59460896040,-1,-2,-2,1,-2,1,-2,-3
59460911107,0,-2,-1,0,-4,-1,-3,-1
59460911107,-1,-1,-1,0,-1,-2,-2,-3
59460911668,0,-2,-2,-1,-1,-1,1,1
59460911668,-1,-3,-3,-3,-1,-2,0,1
59460933475,-1,-2,-1,0,-2,-2,1,1
59460933475,0,-1,-1,-1,0,-3,-1,-1
59460934129,-2,-1,-1,-1,-1,-3,0,-2
59460934129,0,-1,1,-3,0,-1,1,-2
59460947669,-1,1,0,-1,-1,0,-3,0
59460947669,-1,-1,-1,-2,-2,-3,-1,-1
59460955884,-3,-2,0,-2,-3,-1,-2,-1
59460955884,-1,1,0,0,-1,-1,-1,-1
59460970788,-2,-1,0,-1,0,-1,3,-3
59460970788,-1,-1,-3,0,-2,-2,2,0
59460971611,-1,-2,-1,0,-1,-1,0,-2
59460971611,0,-2,-2,0,-1,-1,-2,-3
59460993239,-1,-1,-2,-1,1,0,0,0
59460993239,0,-2,0,0,-2,0,-1,0
59460994023,-3,0,-2,-2,-2,-1,-1,-1
59460994023,-2,0,-2,-3,-1,-1,-1,-1
59461016494,-1,-1,0,-3,-1,0,0,-1
59461016494,-1,-1,-2,0,-1,-1,-2,-1
59461017328,0,-1,0,2,-1,-1,-3,-2
59461017328,-1,0,-2,-1,-1,-1,0,-1
59461031043,0,-1,1,0,0,-2,0,1
59461031043,-2,-1,-2,0,-1,-2,0,0
59461031618,0,1,-1,0,-1,-3,-3,-1
59461031618,-1,-3,-2,0,1,-2,-2,-1
59461053503,-1,0,-2,-2,-2,-1,1,-2
59461053503,-1,1,1,-1,1,0,-2,1
59461054122,-1,-1,-2,0,0,0,-1,-2
59461054122,0,-1,0,0,-2,-1,-3,-2
59461076727,-2,-1,0,-3,0,-2,-2,-1
59461076727,0,-2,-2,0,1,0,-1,-1
59461077411,-1,0,-1,-2,-1,-1,-1,0
59461077411,-1,-2,0,1,0,0,-2,0
59461090863,-2,-1,0,-2,-2,0,-4,-1
59461090863,-2,-2,-3,-1,-2,-1,0,-1
59461091659,0,-1,-3,-1,-1,-1,-2,0
59461091659,-1,0,1,-3,0,0,-1,1
59461113541,-1,-1,-1,-1,-2,0,-2,0
59461113541,-2,-2,-1,-2,-1,0,0,0
59461114079,-1,-2,-1,-1,-1,-2,-1,0
59461114079,-2,-1,-1,-3,-1,-1,-2,-2
59461136525,-2,-1,-2,-1,1,-1,-2,-2
59461136525,0,0,-1,-1,-2,1,0,-4
59461137255,-1,-1,0,-3,-1,-2,-3,0
59461137255,-1,-3,-4,-2,-2,0,-2,-1
59461150883,0,0,2,-1,-1,0,-2,-2
59461150883,-1,-2,1,-2,-1,0,-1,-2
59461151688,-1,-1,0,1,0,-2,0,-1
59461151688,-2,1,-1,1,-1,-2,-1,0
59461173469,-2,-1,-2,-2,-1,-1,-2,0
59461173469,-2,-1,0,-2,-2,-1,-3,-1
59461174116,0,-3,-1,-2,-1,-3,-1,-1
59461174116,0,-1,-3,0,0,-2,1,-1
59461196512,-1,-2,-1,-1,-2,-2,1,0
59461196512,0,1,-3,-1,-1,-2,-1,-1
59461197376,-2,-2,-3,-2,-1,0,0,-2
59461197376,-1,-1,-1,0,-3,1,1,-2
59461210946,-1,0,-1,-2,-3,-1,0,1
59461210946,0,-2,-3,-1,1,-2,0,-2
59461211656,-1,-1,0,0,-1,0,-2,0
59461211656,-1,1,0,-3,0,-1,-2,-1
59461233550,1,0,-1,1,0,-2,-1,-2
59461233550,-3,-2,-1,-2,-1,-1,-2,-1
59461234100,-2,0,-3,0,-4,-2,-1,-4
59461234100,-1,-1,0,-2,0,-2,0,-1
59461256751,-1,-2,1,-1,0,-1,0,-2
59461256751,0,-1,0,-2,-2,-2,-2,1
59461257352,-2,-1,0,-1,-1,1,0,-2
59461257352,0,-1,1,0,0,-2,-1,0
59461270948,-1,-2,-3,0,-3,-2,0,-1
59461270948,-1,1,0,-1,-3,0,-1,-1
59461271672,-2,0,-3,-3,-2,-1,-2,0
59461271672,-1,-1,-1,-1,-2,0,0,0
