timestamp,emg1,emg2,emg3,emg4,emg5,emg6,emg7,emg8
83317590046,0,0,-2,0,-2,-1,-1,0
83317590046,-2,-1,0,-3,-1,0,0,-2
83317602036,0,-1,-1,-1,-1,-2,0,1
83317602036,-11,-1,-3,-2,-2,-2,-1,2
83317611298,0,1,0,-1,-1,-1,-1,-1
83317611298,-1,-2,-1,-1,-3,0,-2,0
83317625963,-2,-1,-3,-1,-1,-2,-1,1
83317625963,2,0,-1,-1,0,-2,0,-3
83317627509,-1,-3,-2,-1,-2,-1,0,-3
83317627509,-2,-1,-2,0,1,-2,0,0
83317648393,-2,-1,-2,-2,-1,-1,-1,-6
83317648393,2,-1,-1,-1,0,-1,-2,0
83317649999,-2,-1,0,-1,-2,-1,-2,-1
83317649999,1,0,-1,0,-2,-2,-1,-2
83317662053,0,-1,0,0,-1,-1,-1,0
83317662053,1,-1,-1,0,-1,0,-1,-3
83317671022,-1,0,-1,-1,-1,-2,-1,0
83317671022,-1,-2,0,0,-1,-1,-1,1
83317685902,-3,-1,0,0,-1,-2,-1,1
83317685902,-2,0,-2,-1,-3,0,1,0
83317687466,0,0,-1,-1,-1,-3,-2,-1
83317687466,0,-1,-2,-2,-2,-1,-1,-2
83317708406,-2,-1,-1,-3,-2,1,-1,0
83317708406,1,-1,-1,-1,0,-2,-1,-1
83317710010,-1,-1,-2,-2,-1,-1,-1,-3
83317710010,0,-2,0,-1,0,-1,0,-2
83317730224,-1,-1,-1,0,0,-1,-2,2
83317730224,-1,-2,-1,-1,-1,0,-1,-1
83317730928,-3,0,-2,-1,-1,-1,-2,0
83317730928,-1,-1,-1,0,0,-2,-3,-4
83317745162,-1,1,-1,-1,-1,-1,0,0
83317745162,0,0,-1,-1,-1,-1,-2,0
83317745999,7,0,0,1,0,0,-2,-4
83317745999,-4,-2,-1,-2,-2,-1,2,7
83317767747,-2,-2,-1,-1,-2,-1,0,-4
83317767747,-1,1,-1,-1,-2,-2,0,-1
83317768442,-1,-3,-1,-2,-1,0,-1,1
83317768442,0,1,-1,-1,0,-2,-3,-2
83317790165,2,0,-1,-1,-1,-2,-1,0
83317790165,-3,-1,-1,-2,-1,-1,0,-1
83317790957,-2,-1,-1,-1,-2,-1,-1,0
83317790957,-1,-1,0,0,0,-2,-1,0
83317805212,-4,-2,-1,-1,-1,-1,-1,0
83317805212,4,-1,-2,-1,-1,-1,-2,-3
83317805999,-2,-2,-1,-2,-2,-1,-2,-1
83317805999,-1,-1,-3,0,-1,-1,-1,1
83317827737,0,0,-1,0,-1,-2,-1,-3
83317827737,0,0,-1,-3,0,0,-2,-1
83317828447,-2,-1,0,-2,1,0,-1,2
83317828447,-1,1,2,-1,-2,0,-1,-1
83317850151,-2,-2,0,-1,-2,-1,-3,-2
83317850151,0,-1,-1,-1,-2,-2,-3,-1
83317850974,-3,-1,-3,-2,-1,-3,1,-2
83317850974,-1,-3,-2,-2,-2,-1,-1,-4
83317865179,1,0,-2,-2,0,-1,-1,-1
83317865179,-2,0,-1,-1,-1,0,-1,0
83317865966,0,0,-1,-1,-1,-1,-2,1
83317865966,-1,-1,-2,-2,0,0,1,-1
83317887742,-3,-3,-1,-2,-2,-2,-2,-4
83317887742,-2,-1,-1,-2,0,0,1,-2
83317888407,-2,-2,-1,0,-2,-2,-2,0
83317888407,-3,0,-1,0,-1,0,0,-2
83317910216,-1,-4,0,0,-1,-1,0,-4
83317910216,-1,-2,0,0,-1,-1,-1,-2
83317911030,-1,-1,0,-2,0,-1,0,-1
83317911030,0,-1,-2,-1,0,-1,-2,2
83317925138,3,0,-2,-2,-1,0,1,1
83317925138,-1,-3,-2,-2,-2,0,-1,-1
83317925919,-3,-1,-1,-1,1,1,0,3
83317925919,1,0,-1,0,1,0,-1,-3
83317947734,-2,1,0,-1,1,0,-2,-1
83317947734,-2,0,-1,0,-1,-2,-1,1
83317948499,0,-1,-1,-1,-1,-1,0,-6
83317948499,1,-1,-1,0,-2,-1,-1,-2
83317970536,-2,-2,-1,0,-1,-2,-1,0
83317970536,-1,-2,-1,-2,-1,-1,-1,-4
83317971151,-1,-2,-1,-1,-2,-6,-3,-1
83317971151,-2,-1,-2,-1,2,13,0,-3
83317985461,0,0,-1,-2,-1,-7,-4,1
83317985461,-2,-2,-2,1,-2,-3,3,2
83317986035,-1,0,1,1,5,4,0,2
83317986035,-1,-3,0,24,-2,-3,-1,1
83318007723,-3,0,-2,-8,-4,4,1,-3
83318007723,3,1,-2,-36,-5,-3,-2,-3
83318008495,-4,0,0,-7,-4,-6,-4,-1
83318008495,5,-9,1,16,-2,-1,-1,-5
83318030222,-16,2,6,54,6,3,0,1
83318030222,-15,-8,-11,-27,-11,-4,-3,-3
83318031014,-3,-6,0,18,2,0,-2,0
83318031014,-12,14,-1,-42,-8,-3,-1,-3
83318044700,3,11,6,66,12,-7,-2,-1
83318044700,1,-9,-7,-44,-21,3,-2,-30
83318052829,28,13,9,69,12,6,-3,13
83318052829,-7,9,-19,-48,-13,-12,-6,-58
83318067863,13,-18,-1,-1,-1,2,-1,5
83318067863,-1,1,8,14,13,4,3,-6
83318068493,1,16,-7,-29,-12,3,0,0
83318068493,14,-1,5,30,2,-11,-4,-34
83318090440,1,-7,-8,-51,-17,-30,-1,38
83318090440,5,11,6,39,12,21,-1,4
83318091061,22,33,2,-5,2,-9,-5,-14
83318091061,-6,-9,3,-3,6,13,-7,11
83318104829,-8,3,-4,-21,-2,12,7,-21
83318104829,1,-5,0,22,-1,-13,0,42
83318112966,-11,-2,-2,-15,1,-3,0,24
83318112966,-1,-1,-2,-8,-2,-3,4,-5
83318127955,0,-11,0,-9,-2,7,-5,2
83318127955,3,7,-1,4,-4,-9,-6,-18
83318128565,-18,-23,-7,-17,-9,-15,-12,-15
83318128565,14,2,1,6,6,22,2,16
83318150433,2,-1,-1,-9,2,-14,2,-2
83318150433,-6,-4,-3,3,3,-1,-5,-48
83318151029,-1,-10,-4,-8,-10,2,1,52
83318151029,-14,-35,-3,8,0,-3,-17,-15
83318164785,24,24,0,-7,3,23,20,5
83318164785,9,-17,-4,0,-5,-23,3,47
83318172802,-15,-14,0,-1,1,1,3,0
83318172802,1,16,4,4,1,-14,1,8
83318187848,-21,-4,-2,-8,2,8,1,-63
83318187848,3,-2,-4,0,-6,-11,-16,40
83318188590,-2,-7,-3,-3,-1,9,2,-36
83318188590,15,1,-1,-2,-5,-4,6,35
83318210424,-15,-9,0,-6,-5,-14,-23,-27
83318210424,-1,13,4,12,8,-5,18,-40
83318211048,-6,-5,-5,-3,7,17,7,36
83318211048,-26,-10,-2,-9,-3,-7,2,11
83318224687,13,3,0,-1,-1,20,-21,26
83318224687,-18,4,-3,-4,-10,6,13,-24
83318232802,9,-37,-1,2,3,-33,-2,-9
83318232802,-15,3,0,1,3,-8,-8,-64
83318247974,16,4,0,-4,-10,-9,-2,92
83318247974,-15,-10,-5,-1,5,16,-15,1
83318248555,-8,10,3,-4,5,27,7,-34
83318248555,18,-1,0,8,-1,-7,11,26
83318270298,-21,0,-3,0,6,12,-2,-50
83318270298,32,28,8,-2,6,-8,0,21
83318271095,12,36,-2,3,-20,-48,-5,2
83318271095,-4,-5,-1,1,-1,21,-7,-7
83318284652,0,0,-4,-4,-1,25,15,-2
83318284652,11,-14,-2,2,15,-19,-4,1
83318292738,-12,11,5,-2,7,26,-7,24
83318292738,18,11,-3,-5,-19,-19,-2,50
83318307811,4,4,2,7,1,-8,3,-20
83318307811,-25,-8,0,-5,-12,-5,-5,-2
83318308508,23,-8,0,-6,-11,-1,2,-25
83318308508,-16,0,-5,-3,8,9,6,-13
83318338526,-7,-12,-3,-4,-3,-17,-4,42
83318338526,4,-22,5,5,0,29,1,-3
83318339220,-16,-5,-8,-5,3,-24,-14,-48
83318339220,5,1,-4,0,1,15,1,45
83318344606,8,4,0,-3,-2,-5,-6,32
83318344606,-5,-4,-1,2,5,-17,22,-6
83318352736,9,2,9,4,2,25,10,6
83318352736,-1,-4,4,-2,-7,-37,-9,-31
83318367855,-9,-8,-10,-7,12,33,0,13
83318367855,7,7,0,7,-3,1,-3,22
83318368535,-13,-5,-3,-8,2,-9,-32,17
83318368535,-4,1,3,7,-1,-9,30,3
83318390270,10,5,4,3,2,-7,-3,-13
83318390270,-10,16,-5,-16,-16,-14,-11,-1
83318391004,-7,-11,-1,9,10,12,10,-15
83318391004,3,-6,-14,-7,-6,9,-10,-10
83318413587,0,-1,1,-4,-19,-40,9,11
83318413587,7,3,4,10,-8,-10,-26,-18
83318414196,6,-2,-1,-6,5,15,22,-8
83318414196,-5,-1,11,20,12,-7,-18,7
83318428006,-18,-15,-15,-13,-2,18,20,-5
83318428006,6,4,4,7,13,-4,-17,-63
83318428591,-31,-3,2,14,-8,-5,0,73
83318428591,-5,-4,5,-1,5,5,-7,6
83318450467,-5,14,0,13,-5,-30,-7,-25
83318450467,-3,-8,-4,-14,-6,10,11,0
83318451009,3,-3,-4,-20,4,65,1,29
83318451009,2,2,-10,-9,2,-58,18,-5
83318464778,-7,5,2,13,4,1,-23,-11
83318464778,-8,-5,-6,-3,-10,1,2,8
83318472997,10,-6,1,18,10,15,-2,-20
83318472997,-7,-2,-6,-28,-24,-6,-15,6
83318487947,4,-3,-1,-12,8,2,-15,-14
83318487947,-2,-4,-4,25,13,22,20,23
83318488546,-4,-5,-8,-14,-20,-18,-7,-43
83318488546,2,-1,1,37,-4,8,-2,-8
83318510416,8,-13,11,-23,-14,-37,-15,-25
83318510416,-18,5,-5,-10,13,16,6,10
83318511019,-8,-1,-15,1,-4,3,-3,-22
83318511019,4,-1,-1,-10,4,-22,-4,9
83318524688,28,-3,1,34,0,17,3,7
83318524688,0,-2,-6,-59,-10,-13,3,3
83318532989,8,8,2,29,-1,-2,6,3
83318532989,-6,-7,0,-14,7,29,-1,-11
83318547954,-12,-5,-6,19,-23,-16,-6,-7
83318547954,2,1,4,-3,-3,-15,-5,1
83318548517,-4,0,2,-27,8,-23,-9,-7
83318548517,11,3,9,41,16,28,11,10
83318570389,-15,12,0,-43,-1,3,0,-5
83318570389,44,-2,-5,39,-7,2,-2,-3
83318570991,-7,-13,-4,-17,-15,-34,-10,31
83318570991,8,5,0,29,8,28,10,12
83318594931,4,2,-1,1,23,8,7,-10
83318594931,-10,-4,-10,-27,-10,-2,-1,9
83318595681,9,-1,-2,19,-4,-10,4,-3
83318595681,-7,-2,-6,6,-8,-16,-12,-12
83318607942,-8,0,-10,29,9,15,-5,-35
83318607942,18,-14,-3,-9,6,6,-6,-74
83318608545,-29,-2,6,-10,-1,-15,-1,-30
83318608545,14,2,-6,-22,-17,12,9,-7
83318630222,-33,2,-4,-27,-3,4,-1,7
83318630222,3,0,4,12,4,-4,-19,-5
83318631074,3,-3,-1,9,4,7,21,-23
83318631074,-39,-2,-3,-2,8,-2,-17,-58
83318646110,13,1,-3,-12,-7,4,19,100
83318646110,11,5,1,14,-11,12,-21,6
83318653079,-27,-2,-3,-10,-8,-38,14,-5
83318653079,-5,-9,-7,-17,2,23,-10,-9
83318667970,5,-6,-6,3,14,-3,6,-18
83318667970,-10,2,3,1,1,9,17,66
83318668596,12,7,11,0,4,15,-19,-23
83318668596,-46,-15,21,-17,-6,1,10,9
83318690454,55,3,10,3,-17,-14,-7,8
83318690454,4,-3,8,3,-17,-42,-28,-21
83318691004,23,-3,6,-7,32,9,28,53
83318691004,-48,9,5,-18,-4,-3,-24,-64
83318713564,23,7,14,14,10,36,24,64
83318713564,8,-3,4,-7,-7,-19,43,18
83318714206,8,7,11,-3,-9,-11,-13,0
83318714206,27,19,2,-1,-3,5,-12,11
83318727731,0,-24,3,-10,-9,-16,-7,-12
83318727731,-16,-16,5,0,3,8,-22,-10
83318728485,45,-5,7,-5,-8,-16,-28,-63
83318728485,48,7,-1,-1,6,7,18,49
83318750274,26,10,-7,-7,-12,-20,11,-62
83318750274,-31,-14,-17,-2,14,14,-24,5
83318751008,-32,-1,-19,7,-13,-22,30,-6
83318751008,-23,2,-7,2,2,0,-6,-28
83318773362,29,-11,-11,-5,0,-6,-10,46
83318773362,-51,19,6,8,5,-2,20,45
83318774093,-36,-17,-7,-9,-7,11,6,-48
83318774093,-23,-9,-2,-7,-5,-9,-22,29
83318787769,-22,-2,2,2,3,0,16,17
83318787769,6,13,-1,8,14,15,8,-4
83318788501,-29,1,-5,5,0,8,-33,-41
83318788501,87,30,-4,-6,-2,-2,66,85
83318810208,8,18,-6,1,-5,-5,-9,-4
83318810208,-37,-27,5,4,2,18,18,-6
83318810939,-30,-24,-3,-8,0,6,-60,-24
83318810939,-95,-11,-7,1,6,8,12,-84
83318833403,52,-2,11,0,0,-8,-6,-24
83318833403,-4,4,1,-2,-9,36,48,57
83318834237,17,11,-4,1,-2,-62,-16,47
83318834237,35,9,3,5,12,28,12,-24
83318847856,-14,-1,-2,-9,-2,-1,-30,-55
83318847856,62,11,-4,-6,0,18,-20,17
83318848505,19,15,-5,-2,-7,2,22,22
83318848505,65,-6,10,-1,-11,-38,-19,76
83318870439,-67,-7,-7,-2,-1,5,9,-76
83318870439,55,9,-4,1,3,0,49,78
83318871043,-13,9,-9,-3,2,23,-25,-61
83318871043,61,14,-3,-7,-9,-9,38,54
83318893612,-14,13,2,0,0,-17,-27,-107
83318893612,32,-14,2,-3,-1,-1,11,-44
83318894240,8,-8,4,-9,-7,10,9,-47
83318894240,-35,-3,-4,-13,-9,37,50,6
83318907977,-2,-21,-8,1,13,-30,-57,-35
83318907977,99,29,4,0,0,-4,44,79
83318908551,28,11,-7,5,-10,-15,-21,-6
83318908551,4,0,5,4,-5,15,-50,-118
83318930433,0,3,1,-7,2,29,15,-45
83318930433,-128,-35,-16,0,-1,-42,2,-128
83318931073,85,18,-3,1,9,34,3,96
83318931073,-46,-5,-5,-2,-10,-23,-45,-60
83318953704,-104,-4,2,-5,-13,0,-58,-86
83318953704,-42,-13,19,-4,-9,-30,-72,-124
83318954337,51,1,-20,-5,-14,0,-8,7
83318954337,-32,2,-39,0,15,5,-10,-32
83318967881,97,16,7,13,4,-1,62,93
83318967881,-27,7,-28,4,-3,13,-5,-8
83318968525,-16,-12,3,8,4,-14,54,23
83318968525,-12,-16,-21,-5,2,-18,18,-52
83318990238,-57,-3,10,20,14,6,-3,-9
83318990238,-45,-43,-27,-12,-4,-7,24,-61
83318991018,16,10,-9,9,15,67,39,-12
83318991018,123,-19,19,-11,2,-61,-20,103
83319013371,13,-24,4,4,7,27,69,80
83319013371,-39,35,20,20,-10,-20,-98,-128
83319014305,-31,2,14,-16,-8,-6,30,-59
83319014305,-13,-27,-16,-14,-11,10,-8,40
83319027882,-42,3,5,5,-2,-5,-20,-7
83319027882,119,7,6,-12,-3,-25,-34,121
83319028528,-104,-28,-6,-3,-3,-6,-41,-83
83319028528,-80,39,14,2,-4,12,-8,-16
83319050442,89,-2,-52,-11,-6,-23,31,127
83319050442,-38,-6,-23,4,16,44,-14,-103
83319051115,-34,-11,2,-2,-5,-16,-51,13
83319051115,-7,-31,-17,-9,-13,-8,-9,-110
83319073596,-9,-6,16,-8,-3,12,18,-26
83319073596,8,14,-21,-6,4,2,25,94
83319074188,-48,-25,-44,-3,3,-2,-25,58
83319074188,-38,-8,-38,8,3,28,-21,-40
83319087818,-91,-5,-51,5,-2,-35,-44,-75
83319087818,27,0,-4,-11,-10,1,7,34
83319088585,6,20,31,-5,0,-10,16,22
83319088585,-19,-18,44,15,2,9,16,-4
83319110438,-6,-13,30,-3,-16,-30,-19,-44
83319110438,-37,-13,19,-25,-8,1,-11,-13
83319111003,-3,2,17,7,7,11,7,-36
83319111003,45,5,34,3,2,11,-9,79
83319133541,-19,2,23,-6,1,8,16,-55
83319133541,4,5,8,11,-3,-1,4,0
83319134265,40,11,0,-6,-10,-18,0,80
83319134265,40,7,-22,-3,4,-21,8,1
83319156111,-8,-6,-14,5,6,43,25,20
83319156111,1,-2,-7,0,-6,-35,10,11
83319156763,17,18,9,4,4,13,-20,-8
83319156763,-35,14,15,4,6,2,2,-4
83319170436,-1,3,2,-9,-9,-3,0,23
83319170436,-5,-5,17,0,4,-1,-14,-40
83319171010,-12,-18,-4,-3,-3,7,21,-35
83319171010,10,-8,-13,-5,-5,-5,5,26
83319193495,23,1,-4,-9,-9,-16,0,7
83319193495,-58,-6,8,2,4,19,-16,-59
83319194244,-1,6,1,5,3,-8,9,-48
83319194244,6,-4,-3,-6,0,15,-11,6
83319207956,-16,0,10,0,-9,-27,-21,-7
83319207956,18,4,5,-1,-1,-3,1,16
83319208514,-8,-9,9,-3,-2,-1,23,-22
83319208514,0,3,16,2,8,3,-10,39
83319230284,46,8,2,-7,-3,-1,-33,15
83319230284,4,5,-3,2,-3,-8,12,4
83319231047,2,6,0,0,-1,13,-7,-23
83319231047,-27,-5,0,-2,-8,-13,-14,-49
83319253441,0,-6,2,-4,0,0,-4,-4
83319253441,-9,1,2,-1,3,1,-2,-26
83319254205,-16,-11,-4,0,-12,-18,10,24
83319254205,-7,-10,-3,-4,-1,1,-22,-48
83319267854,-16,5,-2,-1,13,14,21,30
83319267854,26,6,4,-1,-3,18,1,20
83319268592,-3,0,0,6,1,-15,4,-4
83319268592,2,-6,-4,4,-3,-31,-9,-9
83319290435,-1,0,-6,-7,-10,6,-4,12
83319290435,-2,0,0,14,0,-5,0,15
83319291077,32,-1,-6,-36,1,5,-3,9
83319291077,3,8,0,11,1,13,13,5
83319313615,9,14,2,-12,0,1,10,-29
83319313615,-17,-3,-1,2,2,10,11,13
83319314168,-9,-7,3,8,-6,-10,-44,-62
83319314168,-11,7,6,5,-1,-5,27,-24
83319327132,-12,-11,10,1,5,8,-5,17
83319327132,1,-7,9,9,-1,-10,-19,2
83319335538,-16,-8,6,2,-1,0,16,6
83319335538,-10,4,1,-5,-8,-6,-8,-9
83319350403,7,-11,-2,19,5,6,4,-8
83319350403,12,3,4,-43,-5,-6,-7,-18
83319351020,19,-4,-6,22,4,16,7,18
83319351020,-1,-3,-9,-19,-5,-14,-5,11
83319373614,4,2,-10,9,-4,-16,-8,12
83319373614,11,2,-15,-12,-1,0,-2,38
83319374195,-4,10,-10,12,9,12,10,12
83319374195,12,-3,-8,3,-1,-4,-3,4
83319387295,-5,-5,-12,-7,-6,4,1,3
83319387295,-7,0,-8,10,13,5,3,-4
83319402801,-15,1,-5,-4,-7,-13,-7,-19
83319402801,19,3,-1,18,4,2,7,79
83319410471,-16,-4,3,-8,0,11,0,-35
83319410471,-2,-10,-3,7,0,-8,7,-10
83319411084,4,-4,-5,2,-5,-2,-1,13
83319411084,-13,-7,-3,-71,-13,-2,-8,-39
83319433641,-32,-8,-2,2,0,-25,-11,-14
83319433641,27,4,-1,16,2,20,17,32
83319434213,8,1,1,6,9,-2,9,11
83319434213,-7,-3,3,11,1,10,-9,-11
83319447295,3,-9,0,-16,-3,-4,2,5
83319447295,-21,-2,-3,1,-1,-4,-5,-24
83319455465,-15,-9,-10,36,-4,-5,-6,-4
83319455465,2,-2,-2,-36,-6,-16,-8,-16
83319478620,6,-11,-8,1,-5,4,4,-47
83319478620,-9,-3,-4,27,11,-10,-5,-12
83319479270,11,0,-11,-63,-14,13,-2,0
83319479270,-5,-4,-17,-31,-8,-1,1,-4
83319493423,-1,5,-1,-16,-4,8,-7,11
83319493423,-12,-2,-1,-1,-10,-7,-13,-15
83319494244,-5,7,3,-9,1,-11,-13,-9
83319494244,7,-13,-5,36,1,-1,13,6
83319507261,-35,6,-8,-38,0,17,1,4
83319507261,12,0,-5,6,-10,-3,-7,-4
83319515440,-7,21,1,2,-8,-6,-9,-6
83319515440,12,16,11,20,2,-2,-18,-17
83319530212,2,-8,1,14,-2,-7,-7,3
83319530212,-9,-5,4,4,-1,4,0,11
83319531009,-7,2,6,-76,-5,1,-8,-1
83319531009,-6,2,13,53,11,0,2,-8
83319553669,7,-8,2,18,-4,-5,-8,-22
83319553669,1,2,6,-19,-3,-14,5,-27
83319554220,1,-10,6,-26,-3,1,13,-9
83319554220,-5,-5,-1,7,0,1,20,18
83319567158,10,4,12,-11,18,5,18,49
83319567158,-10,-12,-4,3,5,-2,17,41
83319575439,3,-3,18,90,20,4,9,28
83319575439,-4,3,4,-62,-19,-15,17,20
83319590276,25,3,5,33,13,16,5,2
83319590276,-7,0,9,-23,6,3,8,-1
83319591036,2,-1,0,22,7,-8,-3,-3
83319591036,-4,1,0,21,9,-9,-9,-23
83319613588,2,5,4,11,-2,0,5,-6
83319613588,-1,3,-1,16,1,6,7,-5
83319614208,-4,-14,-24,-18,2,11,0,-14
83319614208,7,5,-22,-1,4,-8,-10,-11
83319635200,-7,-6,-23,-20,-17,5,-14,-30
83319635200,1,-10,-18,-5,-15,-11,-14,-2
83319642872,-6,-2,-15,-2,-13,-7,-17,-9
83319642872,-25,-4,-9,0,-5,5,-19,-6
83319650414,2,11,8,5,-4,-11,-1,-9
83319650414,-8,5,-1,-12,-4,24,-12,-22
83319651026,15,11,8,16,-4,-9,1,18
83319651026,-7,-16,-4,-10,-6,3,-8,-14
83319673718,1,3,0,0,4,5,-6,8
83319673718,-16,-6,-2,-21,-12,-21,-18,-24
83319674226,1,-8,2,-5,-12,0,5,-14
83319674226,-1,-5,4,14,5,16,7,17
83319696112,9,-7,-2,-7,-7,-7,-3,22
83319696112,24,14,6,1,1,-4,9,-7
83319696804,-1,-1,4,0,3,-5,-12,17
83319696804,-9,-13,11,3,-8,-6,-17,-29
83319710476,-31,13,-4,-2,6,27,24,-39
83319710476,-1,-17,-2,0,2,-10,5,70
83319711015,-8,12,12,-1,-2,11,-6,-53
83319711015,4,-24,-7,2,3,-18,0,30
83319733480,-10,21,-7,2,0,22,4,-20
83319733480,6,1,-2,2,-5,-46,-9,-47
83319734173,-4,-13,-7,6,6,15,10,-6
83319734173,17,4,-2,-7,5,10,2,33
83319755903,24,4,2,0,-2,-3,10,-28
83319755903,-14,-3,-3,-2,-9,21,-22,33
83319757506,20,8,2,-1,5,-14,14,-33
83319757506,-5,1,6,6,3,-13,-10,-55
83319770227,16,10,-4,-5,-1,-18,1,0
83319770227,-39,7,-2,-1,-2,0,-13,-54
83319771104,-26,2,0,-5,-9,-3,-24,-65
83319771104,18,-3,0,3,0,0,21,63
83319793545,-82,-22,1,1,7,-1,-19,-87
83319793545,40,10,-19,-1,7,15,21,77
83319795042,-10,19,3,-3,-3,14,0,-25
83319795042,-19,11,-10,-6,-14,-22,-14,-50
83319815934,62,19,3,-8,-10,-19,-1,23
83319815934,11,11,4,-11,-4,41,14,8
83319816740,-1,-10,-9,-3,0,-41,-23,-20
83319816740,35,2,2,0,-8,-3,23,4
83319830214,19,-33,0,2,1,31,8,20
83319830214,25,1,11,6,-6,-42,10,-18
83319830980,5,10,16,7,17,34,42,101
83319830980,-6,15,22,9,-1,-5,-6,-58
83319853445,-37,-21,1,3,0,-1,9,-30
83319853445,27,-14,6,10,18,17,28,39
83319854217,0,-37,0,5,5,-4,7,27
83319854217,-33,7,-1,0,9,-22,-25,-65
83319876132,18,15,1,3,-4,-11,-70,-8
83319876132,-64,-8,-3,0,3,7,34,-15
83319876752,-9,1,-12,2,10,-10,-1,-29
83319876752,-92,-13,-16,-5,6,47,13,-100
83319890439,-2,-10,-23,-7,-4,-3,-2,-8
83319890439,-7,-5,-10,-4,-10,-21,-6,-70
83319890999,6,-8,-17,-12,-16,-1,1,-65
83319890999,25,9,-3,-4,-18,-49,-6,-6
83319913475,-5,7,-11,-3,8,60,5,82
83319913475,6,8,-20,-13,-1,0,2,3
83319914215,37,19,-8,0,8,12,20,61
83319914215,69,12,-10,-4,-3,5,-24,46
83319936105,6,-9,-6,-5,-16,-12,-16,-34
83319936105,-48,-23,1,10,-3,-12,-32,-42
83319936790,24,15,7,0,-2,-1,33,32
83319936790,-6,-11,0,-5,-7,-20,-22,-60
83319949647,-33,-18,17,-2,-9,-7,-7,-55
83319949647,-1,22,36,1,-2,19,-21,-17
83319958494,-1,-10,12,2,14,-34,-14,0
83319958494,-52,-11,30,-1,1,41,-13,38
83319973636,48,-19,44,-5,-4,2,38,-30
83319973636,50,15,20,-3,-3,-24,-20,55
83319975042,-99,-32,14,-8,-35,-18,-26,-111
83319975042,14,19,18,5,28,23,54,-34
83319995945,0,5,13,5,13,15,-20,6
83319995945,-22,-12,-8,-15,-33,-29,-14,-40
83319997528,49,0,5,4,5,41,31,63
83319997528,-34,2,-18,-12,-20,-50,-104,-25
83320009517,21,9,1,10,15,12,50,48
83320009517,18,9,4,2,-1,36,4,15
83320018552,-27,5,-2,-14,-4,-10,-23,-52
83320018552,69,28,-9,2,-6,-10,61,19
83320033446,7,16,-111,17,25,-26,5,54
83320033446,-16,8,-124,7,29,69,53,4
83320035059,-1,10,-128,0,9,0,-47,32
83320035059,-38,-10,-128,5,-5,23,45,49
83320055912,13,7,-76,-6,-23,-29,-30,44
83320055912,27,-16,-25,0,-5,-48,-1,-9
83320057477,-12,-10,31,-2,3,5,-101,-47
83320057477,84,8,70,-5,4,26,40,56
83320069636,-43,-3,61,0,-4,-3,0,5
83320069636,54,-8,42,-7,-8,-14,6,-22
83320078607,41,13,73,1,-1,-33,12,36
83320078607,36,-5,91,3,1,47,-21,-5
83320093459,56,8,78,-12,-17,-42,21,20
83320093459,-5,-8,67,2,26,32,28,-13
83320095034,-22,-4,45,-16,-28,9,11,-38
83320095034,-1,-9,20,11,9,-31,1,47
83320115956,-3,-12,10,-3,4,10,23,-42
83320115956,-60,-2,20,-10,-9,-8,16,-8
83320117482,5,2,-16,-3,-1,15,48,44
83320117482,5,-1,2,-4,-3,-2,-30,-44
83320129721,-71,-24,-6,-2,-4,-12,-27,47
83320129721,2,-7,-38,2,12,-7,-28,-37
83320138515,6,-7,-29,-1,-14,-10,23,-13
83320138515,-9,-11,-15,-1,-4,1,-14,6
83320153464,-7,1,-1,-2,1,-8,-12,-30
83320153464,-7,-2,-5,-6,-5,-15,-10,6
83320155024,-3,-8,4,4,5,13,-1,29
83320155024,2,-3,-8,3,12,13,-4,-39
83320175940,1,-21,-17,-11,-17,-29,-2,-16
83320175940,17,-8,5,7,2,33,-1,-6
83320177476,-3,-1,-13,0,-9,-6,-13,8
83320177476,-36,-11,3,-1,8,3,-2,9
83320189850,-12,16,-3,1,3,-6,8,7
83320189850,-3,13,12,0,-11,-8,-20,-12
83320198471,1,-5,10,0,-2,-25,3,25
83320198471,-11,-5,-21,-1,4,4,24,13
83320213457,16,2,3,0,4,-5,-3,-17
83320213457,-28,1,-5,0,-4,1,-12,9
83320214959,6,5,-15,4,10,16,-2,-1
83320214959,-13,2,5,-2,-16,-19,-16,-15
83320236067,-15,-9,-4,-6,1,7,-17,10
83320236067,7,-2,3,3,4,-21,-10,-24
83320237507,-22,3,-13,-1,-3,-4,0,-2
83320237507,39,1,-9,-3,-7,-7,6,15
83320249742,-42,2,-8,1,6,12,-16,-27
83320249742,-9,4,4,-6,-12,2,-4,-17
83320258539,37,-5,-12,-2,1,1,4,-5
83320258539,-16,8,-6,-3,3,-19,7,-33
83320273472,48,-1,-11,4,3,1,-23,-9
83320273472,-8,0,-6,-1,-4,12,-3,17
83320275070,-40,-1,8,2,-4,-45,-24,-36
83320275070,-28,2,-13,0,-2,20,32,23
83320295982,8,6,7,1,-4,-2,-3,5
83320295982,-3,2,4,-1,-5,-11,1,0
83320297565,-1,-3,-1,-2,4,14,-4,-18
83320297565,-23,-3,20,-2,-4,-3,-11,2
83320309755,-24,-7,58,-2,-2,-10,5,-17
83320309755,12,-4,16,3,2,-3,4,8
83320318603,1,-11,121,1,-1,25,39,17
83320318603,-35,-5,105,-4,-3,-31,-32,-1
83320333500,23,2,-17,-1,-1,11,20,30
83320333500,8,2,44,1,2,-2,-10,18
83320335041,15,-2,-69,-1,3,6,-1,8
83320335041,-22,-10,-97,-2,1,51,-6,-80
83320356075,-8,7,-15,-12,-27,-79,-33,-24
83320356075,-6,-9,2,6,20,15,4,2
83320357538,-30,-2,-89,-2,-4,10,-4,4
83320357538,9,-11,-81,-4,-2,-5,20,19
83320378635,-12,8,-128,-4,-5,36,4,-11
83320378635,12,-2,-128,-4,-8,-28,-38,0
83320380092,0,5,-50,6,8,15,37,1
83320380092,12,-1,-112,1,1,-5,-11,30
83320392753,-15,-12,-55,2,0,14,6,-11
83320392753,-20,8,-5,-5,-5,-4,18,4
83320399785,-3,0,36,-2,-2,2,-15,-4
83320399785,5,-9,112,-2,1,-21,-15,10
83320416149,9,9,127,4,8,14,30,-12
83320416149,-19,-10,117,-3,1,3,0,54
83320417519,-7,-12,112,-2,-3,-6,-1,17
83320417519,-5,3,127,-6,-9,-8,-14,5
83320429830,-1,7,127,-3,-12,-24,-10,1
83320429830,4,2,-6,0,12,19,-12,-39
83320438597,36,6,43,1,5,-12,-3,-6
83320438597,23,-10,53,-2,2,23,11,29
83320452946,10,-9,-86,1,-3,-19,-10,6
83320452946,-16,-4,-79,-6,-16,-5,-5,-28
83320459544,-15,10,-128,5,8,-4,5,2
83320459544,-3,-6,-128,0,6,13,11,-6
83320476113,-15,-2,-110,-7,-8,2,-24,-96
83320476113,7,19,-128,2,-1,-6,13,12
83320477541,-11,-16,-128,-3,-3,-1,-19,-43
83320477541,2,11,-105,0,-5,-12,3,15
83320489581,-9,-4,-74,0,2,16,8,8
83320489581,-26,-20,-51,-6,-2,-1,0,-11
83320498600,1,4,3,-5,-3,10,-4,12
83320498600,2,4,11,0,-5,-33,-10,-1
83320512800,7,0,25,-3,-3,-12,-3,27
83320512800,3,3,44,1,-4,-2,3,-30
83320519785,23,7,45,2,7,13,30,100
83320519785,-3,-3,18,-1,6,13,-1,-8
83320536105,1,2,24,0,0,10,5,14
83320536105,-3,7,39,-4,-11,-24,-10,26
83320537534,-18,-8,17,-2,-8,-11,-21,-40
83320537534,-16,7,-3,3,7,9,3,-4
83320558555,11,1,8,1,-2,-20,10,39
83320558555,21,-4,17,-2,1,23,2,-14
83320560072,-13,3,17,-1,7,9,-12,-44
83320560072,6,-3,20,-1,-6,-4,10,24
83320572970,-5,-3,38,-4,1,19,-6,-23
83320572970,9,0,50,1,-8,-30,-7,7
83320579638,-1,4,50,-5,-3,15,10,-12
83320579638,-14,-3,28,0,0,-12,-5,-45
83320603442,-10,-2,7,0,4,10,1,18
83320603442,-6,-8,-13,-3,-3,0,-5,-6
83320605066,13,-5,-21,-5,-4,0,4,15
83320605066,-9,7,-17,2,3,-13,-35,-23
83320618322,-3,0,-13,2,2,6,24,16
83320618322,5,-3,-10,0,-2,-9,-1,6
83320619976,-11,2,-11,-1,0,8,-8,-28
83320619976,4,-6,-13,-3,-3,-9,2,10
83320632824,-4,5,-2,2,1,-6,-12,-6
83320632824,2,0,1,2,8,31,12,2
83320639635,-3,0,5,-2,-9,-23,3,2
83320639635,5,4,-1,1,-6,-3,3,27
83320655857,0,-5,-4,-5,-2,11,0,20
83320655857,-3,-6,3,-1,-2,-20,-3,-7
83320657426,3,-1,1,5,6,17,-3,-9
83320657426,3,-1,-3,0,2,-3,4,-4
83320678591,2,0,-1,-7,-4,-3,-6,-8
83320678591,6,-2,-1,-3,-6,1,-8,32
83320680036,-2,0,2,-3,-9,-29,-6,15
83320680036,6,-2,-4,0,7,26,8,2
83320692848,-16,-2,2,3,3,4,-1,16
83320692848,-7,2,4,5,9,19,8,-12
83320699522,-4,-5,-1,-2,-5,-26,0,10
83320699522,-5,-1,1,-2,-4,8,6,0
83320715853,8,-13,-3,-2,-3,-17,-7,-25
83320715853,-1,1,-1,-4,1,1,-4,1
83320717486,-8,1,0,-2,-4,-2,-11,-23
83320717486,3,-3,-2,-3,-5,-7,9,15
83320738414,2,3,-1,3,4,10,2,-5
83320738414,-4,-2,0,0,1,1,4,-10
83320740013,3,-4,-5,-3,0,4,-12,9
83320740013,0,-1,-3,-2,-1,-5,7,-2
83320752197,1,1,1,2,-1,16,-1,-2
83320752197,-4,-2,-1,-4,-7,-35,-6,-9
83320761128,3,1,-1,-2,1,4,0,1
83320761128,-2,-4,-2,2,1,1,-7,2
83320776121,-6,-1,0,-1,0,4,2,-19
83320776121,4,1,0,0,-1,9,5,15
83320777564,-1,-1,0,0,-3,-12,2,4
83320777564,-1,-1,-1,-1,-2,1,-9,-8
83320798454,4,-2,2,-1,-1,-2,1,4
83320798454,-8,-2,-2,-3,-4,-2,-3,-15
83320800004,-3,-1,1,-1,-1,-3,-4,1
83320800004,-1,0,0,-3,-1,-4,2,0
83320812132,-4,1,-1,-1,1,-3,-5,-7
83320812132,0,-1,0,0,1,2,3,-3
83320821078,-1,-1,-1,-2,-1,6,2,3
83320821078,-5,-2,-2,0,-2,0,-3,-9
83320836163,0,-1,1,0,-1,-7,-1,-3
83320836163,-1,-2,0,-1,-2,0,-3,-1
83320837528,-1,-2,0,-1,-1,-1,-1,-4
83320837528,-1,-2,-2,-2,-1,1,-5,-6
83320858564,2,1,-1,0,0,-7,-1,5
83320858564,-3,0,0,0,-1,2,-1,-3
83320860042,-2,0,-2,-3,-1,-4,-2,-4
83320860042,-1,-1,-1,-2,-2,-2,0,1
83320872272,0,-1,-2,-1,1,0,2,5
83320872272,-6,0,0,-1,0,-1,-18,-43
83320881056,3,1,-2,-3,0,-1,10,37
83320881056,-4,-1,-1,-2,-3,1,-8,-31
83320896133,2,-1,-2,0,1,2,20,40
83320896133,-1,-3,0,-3,-1,0,4,6
83320897581,-5,-1,-2,-1,-1,-3,-18,-27
83320897581,0,0,-1,1,0,2,3,5
83320918598,-2,1,-2,-1,-1,-3,-7,-9
83320918598,1,-2,-2,-2,-2,-1,-2,3
83320920035,-1,-2,0,-1,-2,0,0,1
83320920035,0,-2,-2,-2,-1,-2,-2,5
83320932097,-3,-1,1,-2,-1,-1,-7,-14
83320932097,0,0,-2,0,0,-1,7,9
83320941047,0,-2,-2,-1,0,-1,-1,-9
83320941047,0,-1,-1,-1,0,-1,1,-3
83320956070,0,-2,-1,0,-2,-4,-2,-2
83320956070,-2,-1,0,-1,-2,0,0,-3
83320957476,-3,-1,1,1,0,0,0,-6
83320957476,-1,-1,1,0,0,-1,-1,-5
83320978472,0,-2,2,0,-1,-1,-1,3
83320978472,-9,-1,0,0,0,-1,-3,-3
83320980048,1,-2,0,-3,-1,-1,0,-7
83320980048,-1,-2,0,1,0,0,3,30
83320992212,-1,-2,-2,-2,-1,0,3,1
83320992212,-1,1,0,0,-1,0,1,4
83321001074,-6,-1,-3,-1,-2,-3,-3,-9
83321001074,-1,-2,-3,0,-1,0,3,21
83321015871,-1,0,-2,-2,-2,-2,-1,-16
83321015871,0,0,-1,-2,-1,-1,1,12
83321017582,1,-2,-4,-2,-3,-4,-6,-22
83321017582,-18,-2,-2,-1,0,-1,1,-1
83321038393,1,0,-1,-1,-2,-2,-4,-10
83321038393,4,0,-2,-2,-1,-1,-1,-2
83321040016,-6,-1,-2,1,-1,0,-4,-4
83321040016,-4,1,-1,0,-1,-2,-2,-12
83321052052,8,-3,-3,0,1,-1,2,7
83321052052,-5,-2,-5,-2,-2,-5,-7,-30
83321061037,-13,-1,-1,0,0,0,-4,-2
83321061037,5,14,3,-1,1,1,12,13
83321076061,-18,-15,-1,0,0,-1,-7,-7
83321076061,28,2,-1,2,0,0,4,23
83321077543,-8,1,-2,-4,0,-3,1,-10
83321077543,32,4,-1,-1,-1,0,-4,39
83321098417,-29,-11,-1,-2,-2,-2,-3,-16
83321098417,-20,-5,0,-2,0,-1,-7,28
83321100065,-1,1,-2,-2,-2,-2,7,4
83321100065,16,-4,-1,-3,-1,1,2,9
83321112267,21,-12,-3,0,-1,-2,-4,-7
83321112267,-5,1,-1,1,-1,-1,-1,7
83321121064,4,-13,-3,3,0,1,0,1
83321121064,3,4,-2,-9,-4,-3,-3,-13
83321136099,4,-23,-5,-5,-4,-3,-6,0
83321136099,4,-6,-7,-4,-4,-2,3,21
83321137578,-30,-6,-1,-2,-1,-1,-2,-63
83321137578,7,-24,-6,1,-1,0,-2,17
83321158607,10,26,7,4,3,3,4,-8
83321158607,20,9,3,1,-1,0,-3,-26
83321160040,22,18,2,1,0,-2,2,9
83321160040,-19,9,0,1,-1,-1,-5,-17
83321172298,-3,5,-3,-3,-2,-2,-2,11
83321172298,4,0,1,1,-1,1,4,-1
83321181096,13,11,2,-1,-1,1,2,21
83321181096,-10,2,-2,1,1,-2,-5,-23
83321196110,-13,5,-2,-2,-1,-3,-7,9
83321196110,-9,-4,-4,-2,-1,0,4,-31
83321197580,-1,-7,-2,-1,-2,-3,1,21
83321197580,-13,-3,-1,-3,-2,-2,-6,-48
83321218663,-2,-1,-2,-2,1,0,-2,-3
83321218663,-13,-1,-1,-1,-1,-2,-3,6
83321220072,-2,-2,-1,-1,0,-1,-3,1
83321220072,-5,-7,-2,0,0,-2,-4,4
83321232103,5,22,1,-1,-3,-2,1,-22
83321232103,-5,-17,-1,-1,-2,-1,-3,0
83321241120,20,-5,-4,-5,-3,-2,-5,23
83321241120,4,-2,-2,0,-1,0,6,-8
83321255908,-25,-15,-5,0,-3,-2,-2,42
83321255908,10,8,3,0,-1,0,-2,-1
83321257555,-19,-4,-1,0,0,-4,-4,-11
83321257555,-7,-1,0,1,0,-1,-4,-20
83321278586,6,4,-3,-5,-3,-3,-2,22
83321278586,-17,-4,-4,-1,0,0,0,-20
83321279979,-7,-5,0,-2,0,-1,-4,-12
83321279979,30,9,1,-2,0,0,2,19
83321292081,-3,2,2,2,1,1,3,-19
83321292081,-8,-3,-3,-2,-1,-1,-2,1
83321308519,0,-17,-4,-2,-2,0,0,-2
83321308519,-2,-4,-2,-3,-3,-3,-2,3
83321316144,0,-3,-3,-1,1,-2,-7,-15
83321316144,-10,0,-1,-1,0,-4,-4,-23
83321317510,1,3,1,0,0,0,0,6
83321317510,-11,-2,0,-1,-2,-1,-2,-6
83321338424,0,-1,0,-1,-1,0,1,-3
83321338424,25,-3,-1,-2,-4,0,0,7
83321339995,-6,1,-3,-2,-2,-2,1,1
83321339995,-7,-4,-1,-1,0,-3,-3,2
83321352255,7,1,0,-1,-2,0,0,1
83321352255,3,-1,-2,0,0,-1,-1,3
83321360989,0,1,0,1,0,2,3,4
83321360989,3,-1,-1,-1,-1,-1,-1,12
83321375958,0,1,-1,-1,-1,-1,1,-1
83321375958,-11,-3,-1,-3,-2,-3,-2,-8
83321377573,8,2,0,0,1,0,-3,4
83321377573,-8,-1,-4,-2,0,0,-1,10
83321398599,-1,-1,-1,-1,0,-2,0,7
83321398599,-8,1,1,0,1,0,1,-3
83321400012,11,3,1,0,0,-1,0,16
83321400012,6,-3,0,1,-1,1,0,-9
83321420934,-3,-4,0,-1,-1,-2,0,-25
83321420934,-7,1,0,-1,0,0,1,50
83321422551,-5,-1,-2,-2,-3,0,1,-5
83321422551,-7,-2,-1,-1,0,-2,-2,13
83321436112,6,-1,-2,0,-1,0,1,1
83321436112,-3,0,-1,0,-1,-2,-1,-11
83321437557,-4,-2,-1,-2,-1,-2,0,-6
83321437557,1,0,-3,-2,-1,-2,-1,0
83321458430,1,1,-1,-1,0,-2,0,-1
83321458430,-4,-1,-1,0,0,0,-2,-6
83321460091,-7,-2,-1,-1,-2,-1,-2,-2
83321460091,-3,-2,0,-1,-1,-1,-2,-17
83321472053,2,-2,-2,-2,-1,1,-1,4
83321472053,-4,-1,-1,-2,0,-1,-1,-12
83321481050,2,-1,-1,-1,-2,-1,0,2
83321481050,-8,-1,-1,-1,-1,-2,-1,-5
83321496168,0,-2,-1,0,-1,1,0,-1
83321496168,6,-1,-1,0,-1,-1,0,11
83321497528,0,2,0,0,-1,0,1,0
83321497528,4,-2,-1,-2,-1,-2,-5,0
83321518595,-7,0,-1,-1,-2,1,0,-12
83321518595,11,-1,-3,-1,-2,0,0,-9
83321520036,-22,-3,-1,-1,0,-1,-4,-43
83321520036,0,0,-2,-1,-1,0,3,12
83321540950,-2,0,0,0,0,-2,-2,-6
83321540950,10,-1,-2,-1,-2,-1,-1,22
83321542426,-2,0,1,-2,-1,-1,0,-3
83321542426,-6,-1,-1,-1,-2,-1,-2,-48
83321556000,2,0,-1,0,2,0,2,17
83321556000,-4,-2,-1,-3,-1,0,1,-8
83321557536,6,-1,-2,-1,-2,-3,1,16
83321557536,-1,-1,0,0,-2,-2,-2,-8
83321578354,4,-2,-1,0,0,-1,-3,5
83321578354,-16,-3,-2,-2,-1,-2,-4,-2
83321580032,3,1,-1,-1,0,0,0,4
83321580032,0,-2,-1,-2,-1,0,-1,7
83321600910,0,-2,-1,-1,-2,-2,-2,-3
83321600910,1,-1,0,-1,-2,-1,-1,-1
83321602508,0,5,-2,-2,-4,0,-2,3
83321602508,-6,-2,2,0,-1,0,-1,1
83321615891,5,0,-2,-2,0,-2,-2,-6
83321615891,11,-2,-1,-1,-2,-1,-1,27
83321617501,1,-1,0,-1,0,-1,-1,12
83321617501,-9,-1,-1,-1,-1,-2,-3,7
83321638399,4,1,0,-1,-1,-1,0,-3
83321638399,-4,-2,-1,-1,-2,0,-3,-9
83321640011,3,-2,-2,0,-3,0,-1,-7
83321640011,-5,-1,-2,-1,-1,-1,0,13
83321660887,3,-3,-2,-2,-3,-2,-1,5
83321660887,2,1,0,-2,0,-2,-1,-20
83321662519,1,-2,-1,0,0,1,1,12
83321662519,3,-1,-2,-2,-1,0,0,-7
83321675859,-5,-1,-2,0,0,0,0,2
83321675859,-4,-1,-1,-1,0,-1,-1,-10
83321677535,0,-1,-1,-3,-1,-2,-3,-1
83321677535,-1,-1,-2,-3,-2,-2,-2,-3
83321698310,11,-3,-2,-2,-3,-3,0,7
83321698310,0,-1,-2,-1,-3,-2,-1,0
83321699953,-2,-1,-1,0,0,0,-1,-1
83321699953,-2,-1,-2,1,-1,-1,1,-2
83321720873,-5,0,0,0,0,1,-1,7
83321720873,-2,0,-1,-1,0,-1,-3,-10
83321722476,0,-1,0,-2,1,-2,-3,0
83321722476,0,-1,0,-2,-2,-1,-2,-17
83321735223,1,1,-1,-2,-2,-3,0,13
83321735223,-3,0,-1,1,-1,-2,-1,-2
83321742110,-1,0,0,0,-1,0,0,-2
83321742110,1,-2,-1,-2,-2,-2,-2,4
83321758364,-5,-2,0,-1,-1,-1,-1,-14
83321758364,-10,-2,0,0,0,-1,-1,-18
83321759944,-1,0,-2,-1,-1,-1,2,12
83321759944,12,0,0,-1,0,0,0,4
83321780972,-7,-2,0,-2,-1,-2,-2,5
83321780972,-8,-1,-1,-2,-1,-1,-1,-4
83321782637,-2,-3,-2,-3,-3,-1,-1,-8
83321782637,-2,-1,-1,-2,-1,-1,-1,3
83321795257,-7,1,-2,-2,-2,-1,-3,-4
83321795257,2,-1,-2,-2,0,-1,2,-1
83321801957,-2,-1,-1,1,-2,-1,1,5
83321801957,4,-3,-3,0,-1,-1,-1,4
83321818371,-4,-2,-1,0,-2,0,-1,-4
83321818371,0,-1,-1,-1,-2,0,-1,3
83321819971,1,-2,0,-1,-1,0,-1,-3
83321819971,-15,-2,-3,-1,-1,-1,-1,-2
83321840851,0,-2,-2,0,1,0,-2,-5
83321840851,-3,-1,-2,-3,-1,0,0,0
83321842414,-3,-2,-2,-3,0,-1,-4,1
83321842414,-1,-1,0,0,-1,-1,-1,-3
83321855234,1,-2,-2,-1,-1,-2,-1,-1
83321855234,-2,-1,-1,-2,-1,-1,-1,1
83321862021,-2,0,-1,-2,0,0,0,-8
83321862021,0,-1,0,0,-2,0,1,3
83321878484,2,0,-1,-1,0,0,-1,22
83321878484,2,1,-1,1,1,-2,0,-14
83321880197,2,-1,-1,1,-1,-4,-1,2
83321880197,-2,-1,-1,-1,-3,-1,0,-1
83321900968,-1,0,-2,-1,-2,1,2,-2
83321900968,-6,-1,-2,-1,0,-1,-1,1
83321902516,-7,-2,-2,-1,-2,-2,-2,-8
83321902516,12,-2,0,-3,-1,-1,1,21
83321915457,7,-1,0,-1,-1,0,-1,-13
83321915457,5,-1,-1,-1,-1,-1,-1,9
83321922119,-1,-1,-1,-1,1,-1,0,-5
83321922119,-6,-1,-3,-2,0,-2,-1,-8
83321938500,-1,0,0,0,-1,-2,-2,-6
83321938500,2,-2,-1,-2,-2,0,0,-2
83321940082,-2,0,0,-1,-1,0,1,-1
83321940082,4,-2,-3,-2,-2,-2,-2,-3
83321961072,-6,-1,0,-3,0,-2,-2,-4
83321961072,-2,-2,-1,1,-1,-2,-2,-1
83321962542,-1,-2,-4,-1,0,-3,0,0
83321962542,-3,0,-1,-1,-1,-1,0,7
83321975227,-5,-2,-1,-2,-1,-1,-1,-5
83321975227,0,-1,-1,-2,-1,0,-1,2
83321982021,-2,-1,-2,-2,-2,-2,-1,-4
83321982021,5,-1,-2,-2,-2,-1,-1,1
83321998413,-3,-2,-1,-1,1,-1,-2,-3
83321998413,-13,-1,-1,-1,-1,1,-2,2
83321999960,4,0,0,-2,0,0,-1,2
83321999960,-5,-1,0,-2,0,-1,0,-10
83322020854,-12,-4,-2,0,-2,-1,-1,-19
83322020854,1,0,0,0,-1,-2,-2,-4
83322022394,-2,1,-3,-1,-2,-3,-2,-2
83322022394,-4,-2,-1,1,0,-1,-1,-5
83322034657,1,1,-3,0,-2,-1,-1,4
83322034657,1,-1,-1,-2,-1,-2,0,0
83322043576,0,-2,1,0,0,-1,0,-3
83322043576,0,-1,-1,-2,0,-2,-2,-2
83322058339,0,-2,-1,-3,-1,-3,0,3
83322058339,-1,-1,-3,-1,-3,0,0,-8
83322059994,2,0,0,-1,0,1,-1,6
83322059994,-4,0,0,-2,-2,-1,-3,-2
83322081020,0,0,-1,-1,-1,0,0,0
83322081020,-1,0,-2,-1,-1,-1,-1,-3
83322082536,-8,-3,-1,-1,-1,-1,-2,-9
83322082536,0,0,0,0,-2,-1,0,1
83322094750,-1,2,-2,-1,0,0,0,-3
83322094750,-8,-2,-1,-3,-2,-1,-1,8
83322103451,-2,0,-2,0,-2,0,1,-1
83322103451,-3,1,-1,0,-1,-1,0,-4
83322118413,0,-2,0,1,-2,-1,-2,-1
83322118413,2,-1,0,1,-2,-3,-2,5
83322120046,1,-2,0,-4,-1,-1,-1,1
83322120046,-3,0,-4,-1,-1,-3,-2,-1
83322140995,0,1,1,-1,-1,1,-1,-2
83322140995,2,-1,-3,-1,-1,-1,-1,-3
83322142514,-1,-2,-1,-2,-4,0,0,0
83322142514,0,-2,0,0,-1,-2,0,-2
83322154656,-2,2,-1,-1,-3,-2,0,-2
83322154656,0,-3,-1,-1,0,0,0,0
83322163564,6,-1,0,-1,-1,-2,-2,15
83322163564,-2,-2,-1,-1,-2,0,1,-15
83322178416,1,-1,0,0,-2,-1,0,4
83322178416,-5,-1,-1,-1,-1,-1,-2,-9
83322179982,2,1,-2,0,0,0,2,5
83322179982,5,-1,-1,-1,-2,-1,-1,3
83322200871,-1,-2,-2,-3,0,-3,-1,-2
83322200871,-1,0,0,0,0,0,-2,-5
83322202513,5,-1,-1,-1,1,-1,-1,-10
83322202513,-3,1,0,0,0,-1,0,1
83322214777,0,-1,-5,-4,-2,0,-2,0
83322214777,1,-2,2,-2,0,1,-1,3
83322223505,-3,-1,-1,-1,-3,-1,-1,-6
83322223505,-4,-1,-1,-1,-2,1,0,-2
83322238595,-2,-4,-2,0,-1,-1,-3,-1
83322238595,2,0,-2,-2,-3,-3,-3,0
83322239981,-3,-1,-2,-2,-2,-1,-1,-2
83322239981,-5,-2,-3,1,-1,-1,-2,-4
83322261096,1,-3,-2,-2,0,-1,1,5
83322261096,0,0,-1,-1,-1,-1,-1,-8
83322262575,-5,-2,0,0,-1,-1,-1,-1
83322262575,-3,-2,-3,-2,-1,-1,0,3
83322274522,-1,-2,1,-1,0,0,2,0
83322274522,2,-1,0,0,-1,-2,1,1
83322283610,-2,1,-2,-2,-3,0,-1,-5
83322283610,3,-1,-1,0,-1,0,-1,19
83322298649,-5,0,-1,-3,-2,1,0,-19
83322298649,2,-1,-1,0,0,-1,0,4
83322300082,-4,-3,0,0,1,-1,0,1
83322300082,8,1,-4,-2,-1,0,-2,-3
83322320846,3,-2,0,1,-1,-1,-1,11
83322320846,1,1,-2,-1,-1,-3,-1,2
83322322408,-3,0,-1,-1,0,-1,-3,-12
83322322408,1,-1,0,-1,-1,-1,-1,-4
83322334562,0,0,-1,1,0,-2,0,3
83322334562,-2,0,-1,-1,-1,1,0,-9
83322343501,3,-1,-1,-2,-2,-1,1,9
83322343501,-5,-2,0,0,0,0,-1,-7
83322358364,-3,-2,-1,-2,-1,-1,-2,0
83322358364,1,-2,-3,-1,-2,1,0,4
83322359990,-4,0,-2,-1,-1,0,-1,-7
83322359990,-5,-2,0,-1,-3,-3,-2,-3
83322380840,-2,-1,0,-2,0,-1,-1,-2
83322380840,-4,-2,-1,-1,-2,-2,-1,-2
83322382488,-3,-3,-1,-3,-1,-1,-3,-3
83322382488,-2,-2,-1,-3,1,1,0,0
83322394514,3,-2,-1,-1,-2,-1,0,3
83322394514,-3,-2,-2,1,-2,-1,0,0
