timestamp,emg1,emg2,emg3,emg4,emg5,emg6,emg7,emg8
82550555899,3,3,-2,-1,-3,-1,-1,-2
82550555899,-13,-7,-1,-1,-2,1,-1,2
82550559904,5,-2,-1,1,0,0,-1,17
82550559904,0,-2,-1,-3,0,0,1,-14
82550560788,-4,1,-2,-2,0,0,0,0
82550560788,3,1,0,1,-1,-2,-2,-1
82550562347,4,1,0,0,-1,0,-1,0
82550562347,0,4,0,1,-1,-1,-2,5
82550567275,-1,-4,-1,-2,0,-1,-3,-5
82550567275,2,-1,-1,-1,-1,0,-1,-6
82550574354,-3,-2,-2,-2,-2,0,-1,-6
82550574354,-15,-12,-5,-1,-4,-2,-3,-1
82550592128,-5,-7,-1,-1,-2,0,-3,-3
82550592128,3,5,-1,-2,-1,-1,-2,0
82550595789,2,-13,-2,-2,-1,-2,-2,-4
82550595789,2,0,0,-2,0,-1,-1,0
82550607227,8,2,0,1,0,0,0,-1
82550607227,-11,-4,-2,-1,-1,-1,-1,8
82550627140,3,8,0,-2,0,-1,-1,-4
82550627140,-10,-9,-3,-2,-2,0,0,-2
82550628742,7,1,-1,0,-2,-2,-2,23
82550628742,7,0,-1,0,1,1,1,-12
82550673978,13,-7,-1,-1,-1,-2,-1,2
82550673978,-6,3,0,0,0,1,0,7
82550674749,-7,-21,-2,1,0,0,0,-2
82550674749,0,0,0,1,-1,0,-1,-1
82550675548,2,19,1,0,0,-1,0,-2
82550675548,3,-14,-4,0,-2,-1,0,-5
82550678005,0,3,-1,-2,-1,-1,-2,1
82550678005,3,5,2,-1,0,-2,-2,-1
82550686159,1,6,0,-2,-1,-1,-3,-1
82550686159,-3,2,-1,-1,-1,0,-2,-2
82550692994,5,7,1,1,-2,-2,-1,-2
82550692994,-9,-11,-2,-1,-2,0,0,-3
82550700481,3,-1,-2,-1,-2,-1,-1,-5
82550700481,5,9,0,0,0,-1,0,9
82550715514,4,-4,0,-1,-1,-1,-2,-1
82550715514,13,2,-2,0,-1,0,-1,-1
82550723719,4,2,1,0,0,0,0,2
82550723719,-5,1,1,-1,-2,-2,-1,-6
82550746971,-3,2,-2,-1,0,-1,-3,-2
82550746971,4,-1,-1,-2,-2,-2,0,24
82550747948,-5,-4,0,2,1,0,0,-11
82550747948,2,1,0,-1,-2,-1,-1,-3
82550761435,-3,3,-1,0,-1,-1,0,-1
82550761435,-7,-3,-3,-4,-1,-1,-1,-3
82550762104,-6,-4,-1,-1,-2,0,-2,1
82550762104,4,-37,-4,-3,-1,-3,-2,-1
82550784577,-17,-5,-1,-1,-1,0,-1,-2
82550784577,-6,0,-2,-1,0,-1,1,-6
82550785207,-5,-5,-2,-1,-1,-1,-2,-7
82550785207,0,12,-1,-5,-1,0,-1,-5
82550807096,6,10,0,-1,-1,-2,-1,1
82550807096,-2,-7,-3,0,-1,-2,-3,-8
82550807816,-6,-3,-2,0,-2,-2,-2,5
82550807816,-5,4,-1,1,0,-1,-2,-2
82550821260,3,-3,-1,-1,-1,-2,0,-1
82550821260,-2,4,-2,-2,-1,-1,2,-6
82550822127,2,4,-1,1,-2,0,-1,1
82550822127,-3,-1,-1,-2,-1,-1,0,-2
82550844482,0,-4,-1,-1,-1,-2,-1,1
82550844482,8,2,-1,-1,-1,0,-1,-5
82550845198,-13,-7,-1,-1,-1,-2,0,-1
82550845198,-5,-2,-1,-1,-3,-2,0,-1
82550867098,-8,2,1,0,-1,-1,-1,-6
82550867098,3,1,-1,-3,-3,1,-1,-1
82550867775,-1,17,1,-2,0,-1,-2,-1
82550867775,0,-7,0,-1,0,0,-2,-2
82550881390,-3,-7,-3,-3,-3,-2,-1,0
82550881390,1,-1,0,1,0,-2,0,20
82550881993,6,-1,-2,-2,-1,0,1,-9
82550881993,-5,-4,-3,0,0,-1,1,2
82550904573,0,-3,0,-1,0,-1,-1,-2
82550904573,-5,-4,-1,0,-1,0,-1,-2
82550905256,3,-4,-3,-2,0,-1,0,-3
82550905256,0,4,-1,0,-1,-2,-1,-2
82550927103,3,-2,-2,-2,0,0,0,3
82550927103,1,4,0,-1,-1,-2,-3,-8
82550927788,-16,-13,-2,-1,-1,-1,-1,2
82550927788,-16,0,-2,-1,-1,0,-3,-6
82550941218,2,7,0,-2,-2,0,1,0
82550941218,2,-4,-2,-1,0,-3,-2,-5
82550942002,-4,-4,0,-1,-2,-1,0,-2
82550942002,1,0,-1,-2,-2,-1,-1,2
82550964640,2,13,2,-2,0,0,-3,-3
82550964640,-1,11,0,-1,0,0,0,-4
82550966058,1,-31,-2,0,-1,-1,-1,3
82550966058,2,4,0,1,-2,0,-1,-2
82550986959,2,-1,-2,2,-1,-1,-3,-1
82550986959,-6,-2,-2,-7,-1,-2,-2,-4
82550988506,7,19,1,1,-2,-2,-1,3
82550988506,3,1,1,0,0,-2,-2,-1
82551000516,-14,-7,0,-5,-8,-1,-2,-7
82551000516,3,-2,-2,2,1,1,-1,-1
82551009536,-22,-1,-3,-8,-6,-1,-1,-4
82551009536,3,-3,0,0,0,-1,-1,1
82551024395,7,7,2,3,-1,-1,-2,0
82551024395,-15,-16,-3,-2,-3,-2,-2,-5
82551026010,5,0,-3,-1,0,-2,-1,1
82551026010,10,1,-2,-1,-2,-3,-1,-2
82551054614,-4,-2,-2,-4,1,-1,0,1
82551054614,1,0,-1,1,-2,-2,-1,1
82551056055,-1,-3,2,1,2,1,-1,-2
82551056055,-2,1,-4,-4,-1,0,1,-1
82551060579,0,-7,-4,-4,-3,-1,1,-1
82551060579,-2,1,1,-2,-3,-2,0,-1
82551069525,3,0,-4,-5,-3,0,-2,1
82551069525,-2,-1,0,3,2,-1,-5,-4
82551084412,1,-1,-1,1,1,-6,2,2
82551084412,0,0,2,0,-1,4,0,-1
82551086020,-1,-2,1,0,-1,1,-4,0
82551086020,-6,-3,-1,0,-1,0,0,-3
82551107069,-1,-6,-3,-1,-2,-2,-2,-3
82551107069,-3,-3,0,4,-3,-5,-4,-1
82551108500,5,1,-1,-2,1,-3,-1,-2
82551108500,0,1,-1,-2,0,-1,0,2
82551120566,5,0,0,0,3,5,1,4
82551120566,0,-2,0,-4,-2,0,2,-2
82551129548,-6,-5,-5,0,-2,3,-3,-9
82551129548,-3,0,1,8,5,-9,-2,-2
82551144595,-16,-3,-1,-5,0,-7,-4,-5
82551144595,-1,-1,0,1,-3,-1,-3,-3
82551146075,3,-2,0,-6,-2,6,5,4
82551146075,6,0,-3,13,11,-2,0,2
82551167077,6,1,-4,-13,-28,-3,-4,-3
82551167077,4,-3,0,-6,0,2,-1,-3
82551168546,7,0,0,1,-1,-17,-4,1
82551168546,-16,6,-1,-10,4,7,0,-7
82551180709,5,-13,-4,22,12,-3,-3,-1
82551180709,5,1,0,5,4,6,0,2
82551189523,-3,15,1,-4,-10,-4,2,4
82551189523,13,-6,0,2,-5,-2,0,4
82551204348,2,3,-5,-47,1,12,0,-3
82551204348,-20,12,-6,-8,-8,-29,-7,1
82551205981,3,-5,0,17,4,-4,4,-4
82551205981,6,7,-3,-23,-3,4,-3,6
82551226875,-10,-6,1,13,5,5,-4,10
82551226875,5,9,6,19,10,13,7,-8
82551228609,22,10,-2,-17,-8,-3,10,20
82551228609,52,-1,0,13,-6,-2,-2,3
82551240458,-92,-12,-4,4,-9,-2,-14,-54
82551240458,-33,-13,-7,-19,-3,-27,-3,6
82551249552,-11,-4,0,13,9,-1,2,8
82551249552,-2,3,4,8,5,10,-1,-3
82551263735,50,7,0,-16,-3,18,11,40
82551263735,16,0,0,17,9,-9,-7,-4
82551270490,20,-8,-1,-24,-15,-11,-4,-35
82551270490,-55,-2,-4,-11,-5,-8,3,4
82551286858,28,18,3,26,10,-4,-5,0
82551286858,-46,-10,-2,-8,-3,6,2,-3
82551288425,2,-1,0,7,4,11,-12,-17
82551288425,11,-4,-5,-37,-15,-1,8,-12
82551300542,6,0,0,8,-16,-12,-3,9
82551300542,12,-4,1,11,7,15,1,10
82551309480,1,2,-3,1,1,-26,-1,12
82551309480,-3,1,-1,-14,-4,0,-5,1
82551323894,-12,-3,0,0,2,-11,0,-26
82551323894,26,3,1,-15,-6,19,-5,-27
82551330572,8,-6,2,32,17,19,10,47
82551330572,-67,-12,-4,-6,-11,-12,-25,-51
82551346873,14,-2,-4,-12,10,9,31,16
82551346873,14,0,4,-12,-15,-6,-13,-4
82551348438,-31,-7,-9,-11,-3,-1,-3,-37
82551348438,14,-16,2,19,2,10,-3,31
82551369415,-23,-3,7,16,9,8,-5,-20
82551369415,-5,-3,-15,-20,-10,-20,8,8
82551371071,0,0,1,-9,-2,-3,-20,-9
82551371071,25,6,1,17,-6,-22,-6,13
82551383962,-10,-10,-5,-8,-1,-5,-5,3
82551383962,25,1,2,-7,4,36,23,25
82551390718,-25,-2,3,35,16,2,0,1
82551390718,-11,0,-4,-5,11,19,1,23
82551407003,14,3,4,-4,9,-9,5,24
82551407003,-6,4,2,-6,-19,-13,-7,-28
82551408529,16,-15,-8,0,-31,-11,-5,-4
82551408529,5,1,0,-32,-9,-13,-8,3
82551420783,9,-5,4,54,12,1,-19,5
82551420783,-14,-2,-2,-10,11,10,7,-4
82551429630,-11,3,-4,0,24,6,16,24
82551429630,37,20,6,9,-29,3,19,-24
82551443835,-6,-9,-10,-33,-25,-22,-12,2
82551443835,-7,-4,0,32,17,9,-10,5
82551450639,26,4,4,-20,-5,-12,5,20
82551450639,-22,-2,-11,-5,11,-1,-4,-1
82551466990,-4,2,3,7,9,-2,-6,-15
82551466990,4,-3,3,7,-5,-3,-14,-4
82551468551,-33,-1,-8,-14,-5,-3,11,11
82551468551,-17,-8,-5,-16,-10,4,-38,-23
82551489479,2,-2,-3,24,3,7,30,13
82551489479,22,0,-2,-15,5,-17,-12,8
82551490987,34,7,3,0,1,13,22,19
82551490987,-19,-6,0,-7,-13,-26,-14,-26
82551503784,3,-1,-4,7,13,18,4,-20
82551503784,13,2,-1,4,6,-3,-5,-4
82551510785,-20,-1,5,-25,-20,3,-12,-20
82551510785,0,-19,-1,20,-5,6,6,6
82551527109,-8,2,3,7,-2,-20,10,9
82551527109,8,-1,-10,17,12,-4,-31,1
82551528600,-7,-1,2,-22,-18,13,29,3
82551528600,4,2,1,23,-11,-10,27,42
82551549613,-4,-1,-5,-26,-6,-11,-10,-11
82551549613,21,-2,-2,3,-5,9,-2,4
82551551079,-52,-7,-5,-3,32,7,-11,-43
82551551079,-4,0,2,17,-12,-1,-11,9
82551563818,24,10,-3,-35,-14,2,-1,13
82551563818,-7,-2,0,30,-8,-8,13,7
82551570797,32,2,-3,-4,17,4,-29,-3
82551570797,-28,13,-4,-13,15,3,20,-13
82551587142,-8,-6,-2,2,2,-3,-11,-21
82551587142,-8,-1,-8,-63,-12,-5,9,-5
82551588519,-3,-12,1,77,-5,-10,0,-65
82551588519,24,4,3,-14,20,7,8,27
82551609660,0,0,1,18,-10,-1,-7,11
82551609660,-37,-12,-10,-34,-5,-2,3,-1
82551611010,9,-18,-5,1,3,-9,-19,33
82551611010,21,-1,-2,-22,-34,3,22,13
82551623191,-25,-12,-11,-18,4,1,-3,-6
82551623191,4,6,5,19,9,0,24,-10
82551632097,-7,-3,5,5,-22,-10,-33,-13
82551632097,12,-4,0,7,11,4,0,9
82551645577,16,5,2,6,5,1,5,6
82551645577,-11,2,5,23,7,-4,-12,23
82551654591,-4,5,-9,-86,-26,-3,-3,-23
82551654591,-37,13,5,76,43,4,-12,-17
82551669605,25,-12,-4,-28,-10,1,35,50
82551669605,-9,-1,1,6,-36,-2,1,4
82551671050,-2,8,-1,-8,20,0,4,15
82551671050,-5,-11,-3,-3,5,1,-5,-56
82551692084,-6,-7,-1,2,-15,-7,-6,14
82551692084,4,-3,0,-7,1,2,1,6
82551693506,13,10,1,-5,12,6,13,24
82551693506,4,1,1,15,-16,-2,-9,-18
82551705656,16,-4,1,15,8,-6,-25,-65
82551705656,-47,-11,-5,-35,-23,-1,0,-53
82551714558,-6,11,-4,7,-2,-2,1,12
82551714558,5,1,2,33,21,-5,-3,-14
82551728778,-4,12,3,-5,4,10,-5,-43
82551728778,47,10,4,1,10,-11,-5,63
82551735713,-17,-5,-4,10,-16,1,-6,-17
82551735713,-57,-19,-8,-43,-9,-4,8,36
82551752010,31,-8,-6,4,-2,2,-2,-12
82551752010,34,-4,7,18,27,2,11,-25
82551753512,-37,-9,-2,-8,-6,-7,-25,13
82551753512,104,15,5,-17,2,4,17,45
82551765682,-90,-14,0,-9,0,-6,-29,-73
82551765682,25,0,-15,3,-8,-2,9,43
82551774645,70,-5,2,13,2,-1,-7,14
82551774645,-20,-5,-4,-10,-3,-19,-12,-5
82551789107,18,12,-2,-13,2,17,5,-6
82551789107,-44,1,7,6,8,-3,1,12
82551803257,-21,-1,-1,17,-18,2,-3,14
82551803257,28,-2,-12,-30,-10,-9,-2,-37
82551812004,-36,-2,-2,2,9,-19,2,0
82551812004,21,-10,-3,-14,-40,10,-4,35
82551813624,-85,-18,-1,2,12,-4,-5,-27
82551813624,46,31,10,8,5,15,5,-4
82551825663,4,-17,-8,-14,-11,-21,8,41
82551825663,61,-8,3,27,13,8,-7,-34
82551834556,-56,-5,0,-26,2,2,9,-15
82551834556,-5,-11,-3,-26,-28,-4,0,-4
82551848903,14,9,2,27,21,1,15,47
82551848903,-77,19,-2,-12,7,-1,-15,-67
82551855632,51,9,0,-3,-2,5,13,11
82551855632,-31,-9,-1,-9,-27,-28,-15,3
82551872103,11,6,2,39,19,23,-33,5
82551872103,-23,0,2,18,13,-24,35,29
82551873584,50,6,-3,-36,-26,35,1,-1
82551873584,-40,-10,1,34,43,26,-25,-41
82551885680,67,15,-4,-42,-42,-42,2,35
82551885680,-75,-17,-2,37,4,-3,-9,-41
82551894549,4,0,1,-10,20,9,-63,-46
82551894549,37,3,1,-5,14,28,103,105
82551908975,12,-2,2,1,-12,8,-14,-1
82551908975,2,-9,-5,-25,-21,-11,-12,-10
82551915587,1,3,-4,-9,-11,-30,15,9
82551915587,-11,-8,-3,24,25,-12,-37,-19
82551932109,-22,-3,2,-29,-28,-5,2,-4
82551932109,0,4,-1,-5,-7,32,20,20
82551933513,8,-9,1,52,31,-31,-11,-24
82551933513,6,0,0,-8,-1,-2,-25,-10
82551954646,-19,1,0,-4,0,21,35,12
82551954646,16,3,-1,-12,6,2,-20,-18
82551956017,18,0,-1,-4,-10,16,23,64
82551956017,-16,-9,-2,7,-7,-21,-20,-13
82551968981,1,-1,-2,-22,-2,-10,-18,-15
82551968981,-16,-4,1,-32,1,0,-1,-7
82551975655,-4,1,3,75,12,3,2,-10
82551975655,-15,-4,-13,-106,-47,-8,10,17
82551992033,-3,-1,8,111,49,8,-13,0
82551992033,34,4,0,-20,-2,-4,-13,-3
82551993500,-31,-8,-8,-6,-15,-9,11,-40
82551993500,9,17,2,1,-6,-9,-15,-11
82552014664,12,1,-2,-38,-9,10,11,5
82552014664,9,2,-2,19,7,-6,-14,-3
82552016119,-12,-7,-8,-9,5,2,12,-35
82552016119,-4,1,1,22,11,15,15,27
82552028963,-13,3,-2,-12,4,6,11,25
82552028963,6,-1,-2,2,-14,-5,0,0
82552035561,15,5,-2,-29,-16,-6,-8,20
82552035561,-11,-1,4,26,14,1,-12,-21
82552053317,0,-3,-2,-1,1,-14,9,18
82552053317,-1,-6,1,4,8,7,-4,21
82552054945,14,0,1,-17,-26,-2,1,-20
82552054945,-3,3,-5,7,13,2,0,2
82552074477,-44,-31,-4,-4,-4,1,-2,-20
82552074477,4,2,-1,11,-7,-7,-5,-1
82552075984,2,0,0,-14,-8,-5,-6,17
82552075984,-4,-3,4,25,21,7,10,-24
82552088309,-8,21,0,-19,3,-2,-11,-18
82552088309,3,-2,-1,18,6,-1,10,48
82552097114,-12,-1,1,6,5,3,14,16
82552097114,26,-9,-6,-2,-26,-4,-15,-16
82552112031,-62,-2,-4,0,3,-3,-3,-18
82552112031,18,4,-6,-32,-1,-4,-5,9
82552113559,14,3,5,12,5,-1,2,30
82552113559,-15,-17,-8,-8,-4,2,-7,-1
82552134407,30,1,1,-6,-19,0,3,2
82552134407,-7,-2,1,-8,-2,-3,-8,-10
82552136065,-4,5,-2,6,6,-2,9,12
82552136065,14,-17,-1,-12,-4,-1,-11,-14
82552148268,26,-17,-7,7,0,-1,-6,9
82552148268,-9,7,0,-5,0,-2,-3,-5
82552157038,41,13,0,-5,9,0,-6,-41
82552157038,2,-1,-2,5,-8,-6,-1,30
82552172073,-3,10,-5,-20,-17,-8,-6,2
82552172073,-23,-6,1,-6,8,1,2,-26
82552173452,50,4,3,-7,16,4,3,17
82552173452,-56,4,-1,27,-2,-4,-12,26
82552194441,62,20,2,-3,-13,2,10,2
82552194441,-14,-2,-8,-18,-11,-5,7,0
82552196072,-21,7,-3,6,4,-1,-5,-26
82552196072,11,-23,2,-3,11,5,4,20
82552208095,8,18,5,0,2,3,6,37
82552208095,85,-25,-10,5,-1,0,13,72
82552217017,-48,-13,-1,2,3,-1,-7,-60
82552217017,26,10,8,-35,-14,-2,5,-7
82552232052,-55,-31,-24,16,3,-5,-18,-98
82552232052,-26,16,13,-3,-11,-4,-2,-35
82552233533,-20,-19,-15,0,-9,-6,-6,6
82552233533,68,15,0,-17,2,4,7,-5
82552254452,-78,-21,0,17,3,-3,-7,-14
82552254452,27,15,-8,-17,2,2,12,2
82552255995,-5,-11,3,17,1,-5,-4,8
82552255995,-34,1,-6,-10,-3,-5,-13,-45
82552268003,-7,19,8,-36,-19,-5,5,19
82552268003,-8,3,-5,35,7,4,0,51
82552277010,23,7,13,-6,0,12,8,23
82552277010,-10,-16,0,14,-4,-23,-15,-38
82552291883,58,-4,3,25,18,7,4,25
82552291883,-9,-1,0,-15,-9,8,10,-7
82552293512,-5,-6,-10,-34,-2,3,2,2
82552293512,-5,22,5,46,8,0,-14,-1
82552314311,13,-9,-6,-5,-25,-14,6,0
82552314311,-26,-11,-4,-16,1,-11,-20,-50
82552316048,5,7,6,6,3,17,3,20
82552316048,29,-1,-4,12,1,6,23,5
82552328051,-48,1,7,13,22,-12,-13,-20
82552328051,25,-2,4,17,7,5,-28,-37
82552337137,17,-3,0,-18,-17,3,52,52
82552337137,-43,-3,-2,-2,-1,2,3,-19
82552359466,29,3,1,-19,-11,-8,6,20
82552359466,30,3,0,-3,0,-10,-16,-19
82552361039,-72,-15,-6,8,-8,-14,-34,-45
82552361039,17,-1,-5,-10,6,-2,7,13
82552374427,15,2,-3,-3,-4,12,-7,-5
82552374427,-11,-5,-3,-4,10,1,0,-10
82552376036,22,6,1,0,-15,-5,-6,0
82552376036,-10,0,1,-10,14,6,2,13
82552388092,15,-2,1,-8,0,4,-7,-1
82552388092,-18,-2,2,1,-7,3,2,-5
82552397017,3,-16,-5,15,7,-11,0,1
82552397017,-17,2,-1,-19,-16,-4,-10,-9
82552411909,-3,1,1,23,11,1,-2,-3
82552411909,-1,-3,0,-5,-10,-5,7,1
82552413508,-1,6,1,1,5,-2,-8,-1
82552413508,1,-2,-2,-12,-9,2,-2,-3
82552434566,24,0,-1,-25,1,4,2,1
82552434566,-26,-6,-3,37,5,-5,4,-6
82552435979,7,3,-3,7,-1,-4,-10,1
82552435979,-10,-1,-4,5,1,3,0,-2
82552448117,17,1,-1,-4,-9,0,5,4
82552448117,7,6,1,-11,1,0,0,0
82552456959,25,0,-2,-15,-9,-5,-3,2
82552456959,-32,-3,0,7,5,0,0,-4
82552471930,-44,-2,-6,-5,-6,0,-4,-11
82552471930,3,11,5,-4,0,0,0,-2
82552473491,15,4,-1,3,3,-2,-2,13
82552473491,4,3,1,4,-1,-2,4,9
82552494599,12,1,-2,-18,-7,4,1,-11
82552494599,-13,-2,1,15,6,-9,-6,-2
82552496055,0,-7,2,9,1,0,2,8
82552496055,-3,1,-3,-6,0,7,-2,-15
82552508092,-9,-2,0,4,5,1,-4,-4
82552508092,7,-8,-4,-15,-10,1,4,3
82552517016,-6,8,3,14,4,-16,-6,-9
82552517016,-1,-7,-4,-5,-6,-5,-5,0
82552532093,13,-2,-1,-2,0,-2,1,6
82552532093,-11,-22,-2,-2,-1,2,-2,-6
82552533484,1,-2,-4,-12,1,4,-1,-7
82552533484,2,6,1,-9,-8,-4,-1,-16
82552554437,-13,-11,-4,7,5,1,1,17
82552554437,5,6,1,-9,-6,-2,-1,-3
82552555994,-27,3,0,4,-5,-12,-7,9
82552555994,11,-3,2,1,11,3,-2,-1
82552568074,4,1,-2,-3,0,10,-2,-3
82552568074,-8,-1,-3,2,2,-1,4,1
82552577035,6,-3,-1,-11,-3,-1,-5,-5
82552577035,-3,-4,-2,-4,-4,-6,-3,7
82552592083,5,3,0,-3,-4,-7,-4,2
82552592083,-7,-3,-1,6,0,0,-1,1
82552593550,-2,26,0,-6,1,7,4,-7
82552593550,1,-12,-3,2,-13,-9,0,4
82552614409,4,1,1,3,4,4,0,-5
82552614409,2,0,-2,-2,-2,-3,-1,-3
82552615995,-9,-3,-3,-6,-3,-1,-4,-8
82552615995,3,4,1,-3,2,4,2,3
82552628255,-3,-3,1,1,-2,-5,0,3
82552628255,-4,3,1,3,-2,-2,-2,-2
82552637061,0,-8,-2,-1,0,2,0,-2
82552637061,-7,-2,-2,-6,-3,0,0,1
82552652146,21,1,3,1,-1,-2,-3,-2
82552652146,3,0,1,7,0,1,2,3
82552653565,23,-7,-3,-29,-7,1,2,8
82552653565,-45,-3,3,42,8,-1,-6,-19
82552674475,-2,7,-4,2,1,-2,0,0
82552674475,-20,6,-7,-43,-10,-2,-5,-26
82552676020,-28,-7,5,21,16,3,-3,-27
82552676020,47,3,-8,-54,-12,2,10,50
82552688127,4,-1,3,15,4,-1,-1,-4
82552688127,28,24,4,15,-4,-2,-4,9
82552697054,-23,-23,-2,-8,1,-7,-1,-18
82552697054,5,1,-3,1,-3,7,0,1
82552711202,-8,3,-3,-2,-3,8,-6,-7
82552711202,4,-5,3,13,-5,-19,3,24
82552718106,7,15,-4,-45,-6,1,-7,-15
82552718106,14,7,6,27,6,9,11,5
82552734482,-5,-5,-4,48,7,-6,1,7
82552734482,-7,-9,9,63,15,7,-9,-15
82552735995,-7,5,-15,-74,-31,-10,2,7
82552735995,-27,-6,-1,5,-13,-15,-7,-12
82552748205,28,4,-11,-45,-12,-11,-2,2
82552748205,-10,-2,2,21,6,10,0,2
82552757037,-16,-17,12,92,28,8,1,1
82552757037,10,1,0,15,-14,0,1,19
82552771453,-10,-5,-8,28,-11,-8,-6,-10
82552771453,1,-7,-8,7,-9,-13,2,-3
82552778170,14,-3,-15,47,-10,6,-3,4
82552778170,-6,-29,6,15,17,2,-8,-3
82552794582,-9,-5,-1,0,3,-6,3,6
82552794582,-7,-6,1,-37,4,6,1,-2
82552796066,26,14,7,2,7,9,7,18
82552796066,0,8,0,-39,-1,-3,-1,-20
82552808082,-6,3,9,28,11,2,-2,3
82552808082,-8,-19,-11,-58,-10,-2,-6,-14
82552817012,-7,-2,2,72,10,-4,-1,2
82552817012,-6,0,-6,-11,-2,-3,-1,-6
82552831201,-5,8,3,-25,3,3,0,2
82552831201,3,-13,1,71,9,2,9,7
82552838051,-4,-2,-1,-33,-3,0,-3,-5
82552838051,-6,-1,0,99,8,0,-2,-6
82552854489,-19,12,-8,-44,-12,0,0,-9
82552854489,-1,-2,-2,-43,-6,-8,-4,-4
82552856035,6,5,7,2,2,8,1,4
82552856035,9,31,-4,-11,-1,0,1,-3
82552868275,-5,-12,-6,-16,-13,-2,-3,-2
82552868275,-4,14,2,35,0,0,-4,2
82552877072,-3,-9,-7,-83,-13,-6,1,5
82552877072,1,6,6,33,6,3,-2,-7
82552891465,6,-6,4,-24,0,-2,-1,1
82552891465,-6,-1,-1,-33,-2,1,0,5
82552898230,-9,-3,0,60,-2,-5,-2,-5
82552898230,-6,-10,-3,-35,-5,-4,-3,-2
82552921881,3,-3,5,29,9,-2,-4,1
82552921881,2,-5,-9,-106,-18,0,1,0
82552923471,-4,20,5,-5,4,0,-6,-10
82552923471,0,13,-2,-6,0,-3,-4,11
82552937010,-2,-6,4,25,3,0,3,4
82552937010,4,10,2,43,7,1,-2,-1
82552938585,4,-1,-5,21,-1,-5,0,1
82552938585,7,22,-3,-22,-5,-1,-3,-9
82552951444,23,5,13,25,11,4,2,2
82552951444,-9,-5,-11,-12,-14,-6,-3,-4
82552958134,8,4,-1,-18,-1,-2,-1,1
82552958134,1,-9,0,5,3,-1,0,-4
82552974437,-9,-9,-6,-15,-3,-1,0,-5
82552974437,-1,-6,-1,7,2,0,-1,0
82552976014,0,-7,1,-1,-3,-1,0,0
82552976014,-3,-33,-3,-1,1,0,-2,-4
82552996906,-3,-4,-6,3,-6,-2,1,-1
82552996906,0,2,0,5,2,0,-1,16
82552998398,-11,-8,-2,11,-1,0,0,-3
82552998398,1,-3,-1,-9,-1,-2,-1,-4
82553011460,-2,0,-2,7,-1,-1,-3,-1
82553011460,-11,-5,-4,-27,-5,-1,-3,-16
82553018029,2,-2,-3,-27,-6,-2,-1,3
82553018029,-6,-9,-2,16,-1,-2,1,0
82553034609,-3,-1,0,8,5,0,-1,-3
82553034609,-2,2,-2,-15,-8,-2,-1,-4
82553036005,5,16,0,-22,0,-1,-1,-2
82553036005,-6,-22,-5,-6,-5,0,-2,-4
82553057026,3,-2,0,-6,-2,-2,-2,-5
82553057026,2,0,3,42,10,3,3,3
82553058520,-6,-2,-6,-56,-13,-4,-3,-6
82553058520,3,3,1,8,1,-1,3,8
82553070635,-1,2,-2,-6,-6,-1,-3,-3
82553070635,3,-3,-2,14,2,-2,1,-1
82553079570,-8,-10,3,21,4,0,-1,-1
82553079570,-2,3,-5,-18,1,-2,-2,-5
82553094558,-6,-1,-4,-10,-7,-3,-2,-1
82553094558,7,-12,-1,17,-1,-2,-4,-4
82553095966,2,-4,-1,8,-2,-1,1,1
82553095966,-9,-3,1,7,2,-2,-1,-3
82553117096,8,9,1,-17,-6,-1,1,3
82553117096,2,0,1,11,1,0,-1,-1
82553118524,-2,-6,-4,-5,1,-2,1,4
82553118524,-6,-3,-3,-1,-3,-3,0,-3
82553130543,8,5,0,-31,0,0,0,-1
82553130543,2,5,0,-9,3,1,1,2
82553139529,-3,-9,-2,-6,-3,-2,-1,-2
82553139529,-2,1,-3,-5,-1,-2,-1,-1
82553155817,-5,-8,-2,22,0,0,-1,0
82553155817,-2,1,-1,-13,-3,-1,-1,-4
82553157454,0,-13,1,16,5,1,0,-1
82553157454,2,0,-1,-11,-6,0,-3,-1
82553177019,-6,-3,-2,6,1,0,-1,0
82553177019,16,3,1,-10,0,0,0,2
82553178520,-20,2,-2,23,1,-3,-3,-1
82553178520,0,-1,-1,-11,-2,-3,-2,-3
82553190585,-4,-9,-2,6,2,-1,-1,0
82553190585,-7,3,2,2,-2,0,-1,-2
82553199512,5,1,-1,5,-1,-2,-1,-2
82553199512,2,2,0,6,2,-1,-1,0
82553214661,-10,-11,-5,-27,-12,-2,-3,-1
82553214661,-4,-1,-1,37,6,0,1,-2
82553216119,1,-1,-4,-34,-9,-1,-1,-1
82553216119,-3,9,2,12,-1,-2,-2,-1
82553237062,3,0,2,9,3,-1,0,-1
82553237062,-1,0,-6,8,3,-1,-1,-1
82553238435,-1,-8,-7,-20,-6,-2,-1,-2
82553238435,-7,4,2,16,1,-1,-1,-1
82553250561,-4,-5,-2,-14,-8,-1,0,-2
82553250561,2,1,1,22,2,0,-1,1
82553259635,-5,3,0,20,3,-1,-1,-2
82553259635,4,-6,-2,-15,-4,-2,-2,-1
82553274401,-7,-36,-3,-3,1,1,-2,0
82553274401,-3,-5,-1,-25,0,-2,0,0
82553276018,3,-2,-3,10,-6,-3,-2,-3
82553276018,2,-3,-3,7,-2,-1,0,0
82553296419,-1,7,1,26,6,0,2,-1
82553296419,-1,6,1,-40,-7,-2,0,-2
82553304508,-12,-10,-2,18,1,-1,0,-2
82553304508,-10,-5,-2,-31,-5,-2,-2,-3
82553310509,-1,8,-3,5,4,-2,0,-2
82553310509,-1,1,-4,10,-8,-3,-4,-7
82553319535,3,-13,2,28,7,1,-2,-1
82553319535,-1,-3,-2,-13,-5,-1,-3,-3
82553334340,-2,4,-2,3,0,0,0,0
82553334340,2,-7,1,-9,1,-1,-1,-3
82553335974,-3,3,1,-5,1,0,0,2
82553335974,-6,-2,-3,-1,-1,-1,-2,-3
82553356883,6,12,1,12,-2,-1,0,-2
82553356883,-5,-4,-3,9,-3,-1,-2,2
82553358496,-1,9,-1,5,-3,-3,-4,-4
82553358496,-1,-3,-1,5,4,2,1,1
82553370478,1,-22,-3,-18,-1,-2,-3,-1
82553370478,-1,-2,3,9,3,0,1,-2
82553379456,5,8,4,-2,0,-2,0,1
82553379456,1,0,0,-6,-1,-1,0,9
82553394378,2,15,-2,0,-4,-3,-1,-1
82553394378,0,1,0,-4,-1,0,-1,-3
82553395957,3,-7,-2,-15,-3,-1,-1,7
82553395957,5,4,1,-10,-2,0,-3,-10
82553416954,-16,5,0,4,-1,-2,-5,-50
82553416954,7,-3,-1,-11,-4,-1,4,31
82553418684,-3,29,2,-5,0,-1,-3,-10
82553418684,11,-13,-2,5,1,-1,0,0
82553430806,9,1,-1,-3,-1,-2,-12,-69
82553430806,7,3,1,2,2,3,9,62
82553439511,10,13,4,3,1,0,6,31
82553439511,-25,19,1,-7,-2,0,3,-18
82553454369,19,0,-2,-5,-3,-4,0,26
82553454369,8,-12,-3,-4,-2,-2,-3,33
82553455984,-24,-13,-3,-5,0,0,-7,-75
82553455984,3,4,2,3,0,2,4,23
82553476893,-5,19,6,-4,2,-1,-4,-57
82553476893,-26,8,2,-2,-1,-1,-3,-31
82553478415,-11,-23,-7,-2,-2,-3,-4,7
82553478415,-5,-12,-4,-3,-1,-4,-5,-16
82553490522,-15,-7,-3,-6,-1,0,0,5
82553490522,6,-6,-6,0,-1,-2,-2,-24
82553507068,9,-1,-3,-3,-2,-2,-2,-18
82553507068,8,-5,-2,-2,-1,-2,3,35
82553514473,20,1,0,-5,-2,0,3,53
82553514473,-7,2,-1,2,0,0,-2,-24
82553516114,34,4,0,-1,0,1,6,46
82553516114,0,11,-3,1,-1,-1,-5,-8
82553536941,-4,8,3,-1,-1,0,3,28
82553536941,4,1,-1,-1,-3,-3,-6,-27
82553538519,-25,-1,0,-1,-1,1,-1,-14
82553538519,-4,-3,-2,-1,-2,-1,-2,-14
82553550613,-14,-6,-3,-3,-1,-1,2,14
82553550613,-2,4,1,0,-1,-2,-4,-28
82553559524,-10,-4,-1,0,-1,0,-4,14
82553559524,-2,-1,-1,-21,-2,-2,-1,-10
82553574429,4,-5,-4,2,-4,-2,-1,14
82553574429,-1,-33,-6,-1,1,-1,1,2
82553576105,0,-2,-1,-1,-3,-3,0,41
82553576105,15,5,0,3,-1,-1,-3,-1
82553596896,0,-12,-3,-6,0,-1,0,2
82553596896,-21,10,-1,-1,-1,-2,0,21
82553598542,10,4,1,3,0,-1,-1,-10
82553598542,-13,-12,-3,0,0,-3,-3,2
82553610655,-16,9,-1,0,-2,-1,1,-9
82553610655,1,-5,-3,0,-2,-4,-6,-43
82553619582,3,-1,-1,-2,0,1,1,4
82553619582,7,3,-2,-4,-1,-2,1,5
82553633729,-3,-6,-3,-5,-2,-1,-2,-11
82553633729,1,4,-2,-4,-2,-2,-2,-10
82553640490,1,-1,-1,-1,0,-1,-3,-16
82553640490,-7,2,0,4,-1,-1,1,-6
82553656846,6,-7,-3,-2,-2,-2,-1,5
82553656846,9,0,1,-1,-2,-2,0,-1
82553658391,5,0,1,-1,-2,-1,4,24
82553658391,-1,2,-1,3,0,-1,-2,-8
82553670528,-20,-7,-4,-1,-1,-2,-4,47
82553670528,-7,4,0,0,-1,-1,-2,0
82553679517,-5,-4,-3,-6,-1,-2,-4,-23
82553679517,0,-8,-4,-3,-3,0,-1,5
82553693724,3,-1,1,1,-1,0,-1,-12
82553693724,7,0,-2,-2,0,0,-1,13
82553700546,7,-2,-2,1,-2,-1,-3,-8
82553700546,2,2,0,2,-1,-2,-2,-25
82553716845,11,-26,-3,-2,0,-1,2,52
82553716845,10,6,0,0,0,0,-1,9
82553718432,7,8,0,0,-1,-1,-2,-27
82553718432,16,-2,0,0,-1,0,1,36
82553730489,-20,5,-1,0,0,-3,-2,-24
82553730489,1,20,1,0,-1,-1,-5,-34
82553739571,22,-8,1,0,0,1,8,53
82553739571,3,-6,-3,-1,-1,-2,-3,-7
82553753715,-3,5,1,-1,0,0,0,-10
82553753715,-14,-8,-2,-3,-3,-3,-1,-11
82553760441,-5,3,0,4,0,-1,-1,-2
82553760441,-10,-3,-1,-6,-2,-1,-2,-1
82553776932,10,2,-1,-1,1,0,1,-4
82553776932,-33,-19,-3,-2,-2,-1,-2,-21
82553778413,-18,-6,-3,-2,0,-1,-1,-8
82553778413,11,-4,1,2,-2,-1,1,53
82553790734,6,0,-2,-2,-2,-1,0,-20
82553790734,-13,-8,-5,-2,-1,-1,-2,1
82553799472,-6,-3,-1,0,0,0,0,-12
82553799472,5,3,0,-1,1,-2,-1,25
82553814418,-1,3,-3,-1,-2,-2,-3,-7
82553814418,7,0,2,1,0,-1,1,22
82553815990,0,-13,-4,-4,-3,-2,-6,-22
82553815990,-33,-2,-2,1,0,-1,-2,-28
82553836924,-3,1,0,-2,-2,1,-1,-8
82553836924,4,-4,-2,-1,2,0,1,-13
82553838471,9,2,-1,-3,-3,-3,-2,19
82553838471,5,25,3,3,2,2,1,-19
82553859618,8,-8,-1,-1,-2,0,-2,-10
82553859618,-3,-5,0,0,-1,0,1,11
82553861033,-16,5,-2,-1,0,-2,-1,9
82553861033,-1,-8,-2,-3,-2,-3,-3,-18
82553874511,-3,5,0,0,0,0,-1,-36
82553874511,37,7,0,-3,-3,0,5,57
82553876051,-4,4,1,-3,0,-2,-2,-13
82553876051,0,-13,-2,4,0,-1,1,-3
82553897371,-11,1,-4,-7,-4,-2,-4,2
82553897371,-2,-4,-1,-1,-3,-3,-2,-2
82553899009,17,3,-1,-1,1,-1,1,-7
82553899009,0,2,-1,-3,-2,-1,-2,-37
82553919680,-8,-4,-1,0,-1,-2,-1,3
82553919680,4,6,-2,-1,-2,-1,-1,-1
82553921010,-1,-5,-1,-1,-1,1,-4,4
82553921010,-6,-3,0,0,0,0,1,-10
82553934421,14,-20,-3,-1,-2,-1,1,20
82553934421,-2,-2,0,-2,0,-2,-1,41
82553938347,-2,-13,1,-1,0,0,-3,-34
82553938347,-1,-6,-2,-2,-1,-1,-1,-10
82553956846,-6,8,0,0,0,-1,-1,5
82553956846,-29,-4,-1,-2,0,0,1,-2
82553958462,2,-4,0,-1,-2,-2,-3,-2
82553958462,-3,4,-3,-1,-2,-2,-3,13
82553979390,1,3,-2,1,-2,-2,-2,-1
82553979390,0,0,-1,-1,-1,-1,-2,-20
82553981020,-11,5,-3,-1,-2,0,-2,1
82553981020,-3,-7,-1,-3,-1,-1,-2,-1
82553994461,18,15,-2,-3,-2,-4,-2,8
82553994461,4,12,3,2,1,0,-1,-29
82553995925,-7,-10,-2,-1,0,-2,-1,1
82553995925,4,-7,-1,-1,-2,1,1,7
82554024370,-9,0,1,-2,-1,-3,-2,-39
82554024370,-27,0,-3,-3,-1,0,-5,-23
82554025988,-4,-13,-2,-1,-3,-1,3,2
82554025988,-4,4,0,1,1,0,-1,-5
82554039455,-9,-4,0,2,0,0,-1,-8
82554039455,7,-13,-4,1,-2,-2,-1,-1
82554041002,0,3,-1,-2,-1,-1,-3,-35
82554041002,3,2,2,0,1,0,3,37
82554053948,-8,-5,1,-1,1,1,1,19
82554053948,3,-9,0,-1,0,-2,1,-12
82554060726,-18,8,-1,1,1,-2,1,32
82554060726,15,-16,-3,-1,-2,-2,-3,-6
82554076913,-8,-27,-3,0,1,-2,-1,7
82554076913,16,11,0,0,-3,-2,-2,4
82554078453,8,6,0,-2,-1,-1,4,11
82554078453,-8,-5,-3,-2,-3,-1,-2,-14
