timestamp,emg1,emg2,emg3,emg4,emg5,emg6,emg7,emg8
117216556576,1,3,-2,-10,-5,-3,-4,-14
117216556576,3,-5,0,-1,-1,-1,-4,8
117216557412,-1,0,0,6,-1,0,-1,-2
117216557412,-7,1,0,2,0,-2,1,-3
117216558046,4,1,-1,-2,-1,-2,3,1
117216558046,-1,1,-1,-1,-2,-1,0,-3
117216558817,2,-2,1,2,-2,0,-2,2
117216558817,-3,-2,-1,-1,-2,0,-5,-2
117216569385,0,-1,0,5,1,0,-1,1
117216569385,-10,-2,-3,3,0,-3,0,-3
117216578346,2,-3,-4,-22,-4,-3,-1,-1
117216578346,-4,2,-2,0,-1,-3,1,-3
117216585944,-9,-7,-3,-7,-3,-2,-2,-1
117216585944,-16,12,2,6,1,1,-5,-23
117216600156,17,-4,2,5,0,0,0,16
117216600156,6,-1,-1,-6,-1,-1,-1,-1
117216608074,-4,-3,-1,3,0,1,1,7
117216608074,1,1,-1,0,-2,-2,2,-2
117216614500,-11,-1,-1,-3,-2,-3,1,-2
117216614500,-10,-9,-1,-2,0,-3,0,0
117216629464,-2,7,2,4,1,0,0,0
117216629464,8,-3,-2,-6,-2,-1,-4,3
117216638296,-15,-4,-4,-5,0,0,-3,-8
117216638296,5,5,-1,4,-1,0,-1,2
117216677753,1,-1,-3,0,2,1,1,-5
117216677753,0,-1,-1,-1,-5,1,-2,-2
117216678517,-1,-4,-2,-11,-2,1,-1,0
117216678517,-3,-7,-2,-16,-2,1,-2,-2
117216679350,-2,-2,-2,-3,-4,0,-1,-1
117216679350,-8,-6,-1,14,3,-2,0,-6
117216682479,2,1,0,-8,2,-1,1,-3
117216682479,-4,1,0,10,-1,-3,-2,-10
117216689260,-1,-1,1,4,0,-2,-1,7
117216689260,4,0,-2,2,0,-2,1,0
117216696720,-1,-3,1,9,1,-6,1,-6
117216696720,-1,-1,-1,0,-2,-6,-1,15
117216705657,-1,5,0,-5,-3,-2,-1,-1
117216705657,8,0,0,14,-2,-4,-2,1
117216719923,1,3,-1,-2,-1,2,1,2
117216719923,14,8,0,-1,-2,-1,3,-3
117216726751,-11,-2,1,6,-2,-1,-3,-4
117216726751,-8,-1,-3,-18,-3,-1,-3,-1
117216742422,-1,-2,0,-1,-3,-3,-1,-1
117216742422,1,5,-2,-5,-2,-1,2,-1
117216749213,2,-1,0,-4,0,-2,-2,-1
117216749213,-4,-3,-7,-6,-1,-5,-3,-6
117216756707,-2,-2,-2,2,0,4,-5,4
117216756707,-6,-5,0,16,3,2,-4,-2
117216765752,5,-2,-3,-22,-3,2,2,2
117216765752,-2,1,3,-5,-5,0,1,-3
117216779949,-1,-1,-1,-3,-3,-4,1,8
117216779949,-5,-6,-2,26,-2,-1,0,1
117216786709,-3,-3,-2,-13,-3,-8,-4,-6
117216786709,1,-2,1,10,7,5,-2,-5
117216802546,-2,8,-4,-11,-7,1,-4,-7
117216802546,-6,-1,-1,-5,0,0,-3,-7
117216809240,16,-5,0,14,-3,7,6,15
117216809240,-9,3,1,-14,3,-14,-6,-6
117216816767,1,-2,-4,4,1,6,-1,-3
117216816767,-8,-2,-2,-12,-1,-4,0,5
117216825730,0,-8,-7,11,-3,-2,-3,-1
117216825730,4,8,1,1,-1,1,1,5
117216839972,2,11,2,9,2,3,-6,4
117216839972,-6,-17,0,-9,-4,-9,-2,-85
117216846708,7,-1,2,0,1,3,5,38
117216846708,7,-4,-1,8,3,19,0,21
117216854197,-1,-1,-1,-2,3,-15,-1,8
117216854197,-7,1,-4,-8,-9,5,-1,-5
117216869193,8,5,-6,-4,1,-15,-3,-14
117216869193,-20,0,-3,-13,-5,8,2,-5
117216876726,-7,-2,-1,0,-5,-15,-7,-12
117216876726,1,11,0,-5,-7,-21,-17,-50
117216885741,3,-22,1,5,13,25,28,83
117216885741,-15,-33,-4,-1,3,6,3,33
117216900380,12,-11,0,4,-2,-6,-1,-6
117216900380,9,9,-2,3,0,5,12,25
117216908225,-15,5,-8,-7,-8,-14,-11,-39
117216908225,7,10,0,2,5,7,-7,-29
117216914212,-5,-10,1,-2,-1,34,15,24
117216914212,-4,-9,-1,-7,1,-28,-17,-14
117216929255,2,5,3,1,0,1,0,27
117216929255,-4,2,-2,-5,-7,-9,-8,-26
117216936788,-4,1,-2,-1,-5,-11,-5,-25
117216936788,19,14,2,1,0,17,5,19
117216945706,-12,-3,-1,0,2,-8,-8,-34
117216945706,-9,4,1,4,-5,24,0,-13
117216959986,-5,-7,-6,-9,-8,-49,8,18
117216959986,-7,11,-1,0,5,20,-3,-20
117216966841,25,23,11,3,4,-24,3,23
117216966841,-3,-3,-3,-3,-8,-10,-5,-22
117216974363,1,5,5,0,-2,16,-23,-17
117216974363,-3,-2,-2,-10,-4,-13,1,37
117216989338,-10,-24,-10,-3,1,12,10,-45
117216989338,21,-7,11,8,20,17,26,40
117217005637,0,2,-12,-9,-4,30,2,5
117217005637,4,-5,0,3,-5,-56,-10,56
117217007178,-5,6,-8,-9,-13,19,-13,-39
117217007178,12,8,4,-3,-2,-17,13,46
117217020478,-5,-6,2,7,10,8,0,-22
117217020478,-1,-12,3,-2,-4,-6,-17,-13
117217026821,-6,3,-2,0,-3,-3,-4,9
117217026821,5,-1,-9,-2,-10,-6,3,35
117217034447,-3,1,4,5,-4,-4,0,-5
117217034447,-2,-4,0,-6,7,18,-1,10
117217049494,-1,5,5,-9,10,49,12,16
117217049494,7,6,3,9,-2,-65,-20,-43
117217056874,-20,4,2,-5,1,21,-4,-11
117217056874,3,-17,-2,-17,-7,-5,20,-8
117217065774,-30,-6,-2,24,-4,-37,-33,29
117217065774,22,8,-5,-26,-8,23,6,-12
117217080118,7,-1,-2,7,-5,-16,-8,-4
117217080118,-9,1,-8,-15,-2,47,-11,-9
117217086977,-11,0,2,23,17,-6,15,-15
117217086977,-4,1,4,-1,10,-10,6,-4
117217102583,2,-1,1,9,-7,-31,13,23
117217102583,-3,-1,4,-5,4,30,-2,-19
117217109256,4,-1,-2,6,-19,13,-16,2
117217109256,-11,-3,-10,-14,-4,-30,-2,2
117217116982,5,2,4,20,13,-7,0,-24
117217116982,1,-2,-5,-51,0,5,-10,15
117217125715,3,-3,-8,-10,-14,-5,21,-11
117217125715,-9,-4,-2,40,-9,0,2,-1
117217139957,-4,1,1,-18,-1,16,-3,3
117217139957,3,0,-2,45,6,-22,-6,-11
117217146869,7,2,4,-21,6,6,2,3
117217146869,6,-5,-4,-4,-16,20,-12,-27
117217162446,3,-2,5,8,-5,-21,-4,-4
117217162446,4,-7,0,21,8,25,22,25
117217169364,-5,0,8,2,20,-17,-11,-48
117217169364,5,-2,-1,11,-12,0,-5,35
117217176797,0,-7,-11,-24,-2,7,-5,18
117217176797,-7,3,1,-9,-4,-16,-14,0
117217185856,0,0,-5,-2,3,4,6,-12
117217185856,-5,-3,0,0,2,3,-10,-3
117217208291,-1,-2,-2,14,10,20,16,6
117217208291,-7,6,-5,35,-1,-39,-15,-12
117217209787,-2,-4,-15,-81,-8,7,-11,-12
117217209787,4,-3,1,32,6,-1,11,22
117217222395,-12,-1,8,-32,-14,-9,-5,-44
117217222395,0,2,15,12,0,-14,8,22
117217229388,-1,-3,4,44,-3,-18,-9,-27
117217229388,-8,1,-21,-53,10,39,12,35
117217236949,4,-2,-14,8,-8,-9,-1,15
117217236949,-5,-6,-15,-24,-12,1,4,-9
117217245796,3,3,10,18,6,2,-12,-6
117217245796,-10,-1,-3,-49,-21,-25,-5,-30
117217259913,2,0,3,33,26,29,-20,-11
117217259913,14,3,7,27,2,-3,9,81
117217266723,-7,-1,-9,-25,-4,9,18,11
117217266723,-7,1,2,8,-6,-15,-17,-31
117217282421,6,0,0,-12,-17,-16,-23,8
117217282421,-2,-10,9,-11,1,8,20,-56
117217297420,13,4,28,7,-6,-9,-4,29
117217297420,-2,5,42,4,8,-26,-11,9
117217298169,4,-7,41,-7,-3,16,4,2
117217298169,-26,-2,34,-6,-3,-2,-7,-27
117217305740,34,3,41,18,0,-26,2,1
117217305740,-12,-11,1,-2,-4,1,-17,-44
117217319932,-4,2,7,-9,1,12,10,5
117217319932,24,-2,19,-5,-9,2,4,-8
117217326719,-27,0,20,0,2,11,-2,-3
117217326719,2,8,29,-7,-7,5,-11,-34
117217342562,19,8,-13,-5,-6,-18,5,-6
117217342562,-28,-21,-25,0,4,18,5,10
117217349447,20,10,17,-2,-5,-5,-9,-32
117217349447,15,-1,25,11,-4,13,-7,2
117217356936,-62,-10,-16,3,7,-6,11,-52
117217356936,-2,5,-11,-9,-4,10,-17,23
117217371948,-12,-3,-16,7,10,-8,-2,20
117217371948,-56,-9,9,2,1,-1,-12,-96
117217380133,30,1,2,-5,-4,-2,23,72
117217380133,-5,-2,-16,-4,-16,-10,-3,-27
117217386948,-14,2,-14,2,10,22,22,17
117217386948,-52,-18,-35,3,-1,-19,-36,-61
117217402885,93,30,-35,13,2,9,39,69
117217402885,-47,21,-45,-4,12,6,2,3
117217410756,-47,-19,1,-6,-25,-14,4,8
117217410756,-10,-14,-10,2,13,5,26,82
117217416836,-50,-10,-28,5,6,0,-42,-128
117217416836,91,-16,-7,5,1,8,14,70
117217431975,43,38,4,-2,-6,-5,-40,-45
117217431975,-2,12,4,-2,-2,16,29,20
117217440009,-6,-7,-4,-6,-13,7,42,81
117217440009,3,-2,-31,1,16,-2,-41,-75
117217446829,-43,-28,-56,-8,-13,-13,-73,-98
117217446829,63,-14,-47,-2,3,15,98,90
117217462473,5,13,-25,-1,-7,-19,-38,-32
117217462473,-24,9,-29,-7,-3,3,39,-22
117217469513,20,-9,-32,10,19,15,21,21
117217469513,-61,5,-26,4,1,-2,-72,-103
117217477058,-34,-14,13,-1,4,-8,-94,4
117217477058,20,12,22,0,-3,22,34,17
117217500692,18,-11,-13,-16,-15,-25,-17,1
117217500692,-39,-8,-12,7,11,12,-6,9
117217501499,44,-9,1,-6,5,29,58,-97
117217501499,-62,8,19,1,3,-25,-15,-49
117217506778,8,-7,-9,-8,-13,4,19,70
117217506778,-11,-2,7,-1,-19,-45,13,-56
117217522718,45,-2,-2,2,20,26,-5,53
117217522718,-79,-5,1,-4,2,-14,-70,-116
117217529285,91,-15,-17,-3,6,27,98,75
117217529285,-54,12,-3,0,-6,-5,-78,-39
117217536979,-1,-5,-41,0,-13,-17,38,76
117217536979,63,-5,-71,6,-2,-6,-2,3
117217552008,-82,-27,-79,-12,-4,-21,-68,-128
117217552008,40,-6,-65,-1,1,6,-77,-28
117217559939,11,15,-29,-4,-6,-6,69,20
117217559939,80,-13,-40,-2,-15,-6,-58,29
117217574321,-21,13,86,20,10,6,91,-50
117217574321,-6,3,49,-5,3,-10,13,-68
117217582629,-78,-10,83,-11,-10,-23,-51,-87
117217582629,-5,3,57,3,3,2,9,49
117217589501,27,10,24,-5,2,-6,-14,-42
117217589501,4,4,87,8,-2,15,36,95
117217597066,20,10,-109,3,0,-26,3,11
117217597066,-68,-17,-103,-14,-6,27,-46,-61
117217611733,-81,-3,-128,-9,-8,-21,-116,-98
117217611733,119,-2,-99,3,11,0,46,71
117217619992,-35,-23,13,7,5,36,25,-27
117217619992,28,12,20,-5,-4,-15,-8,5
117217626733,43,-2,31,4,9,-9,0,79
117217626733,15,-26,-11,-22,-15,-9,-78,-77
117217642533,38,4,32,-20,-10,-18,5,61
117217642533,-64,14,43,15,3,24,14,59
117217649354,-10,11,42,8,6,0,106,64
117217649354,-42,6,30,1,1,-9,16,-17
117217665016,-106,-1,47,-18,-6,2,-41,-122
117217665016,70,7,42,-14,4,-8,29,-23
117217671965,-11,1,31,-49,-5,15,12,-10
117217671965,24,6,33,47,6,32,40,57
117217688105,-4,-8,38,-41,-12,-34,-26,-3
117217688105,-17,-5,46,8,8,7,36,-4
117217689800,0,1,40,-46,-2,20,-12,26
117217689800,-9,1,44,-23,-3,6,19,-14
117217702692,46,2,76,54,-8,2,5,51
117217702692,-4,-6,87,-25,-6,-36,-2,-14
117217709269,17,3,64,36,0,-2,-51,-11
117217709269,0,3,52,5,5,-5,41,30
117217725033,-15,1,25,9,1,2,-17,-50
117217725033,46,7,23,7,0,-3,5,33
117217731835,-47,-2,26,15,-9,-8,-11,-39
117217731835,-21,11,-17,-31,-3,40,-6,-6
117217748312,-1,0,-9,-1,-5,-41,-35,-25
117217748312,-9,-4,-3,7,1,4,16,1
117217749916,-21,-4,-7,1,-2,1,-13,-23
117217749916,-20,-3,-14,3,3,1,-1,-76
117217761849,6,-1,-15,-9,3,2,7,50
117217761849,20,-2,0,4,5,8,33,45
117217770803,8,4,-5,14,2,-4,-20,-10
117217770803,17,0,-18,-1,5,-11,-13,22
117217785117,-20,-16,-18,4,16,21,18,5
117217785117,-23,-6,-6,-3,-9,-9,2,-30
117217791801,25,6,-1,6,-13,-10,-18,13
117217791801,14,6,-10,-9,-10,-12,8,19
117217808187,-2,1,-8,-7,13,29,-7,-25
117217808187,-7,3,-5,-3,-2,7,5,23
117217809753,-7,-8,-6,2,-1,2,11,-19
117217809753,41,5,-1,9,-8,-11,-8,35
117217830619,0,2,-11,8,-10,-31,-2,-14
117217830619,6,-7,-3,0,6,9,6,50
117217832231,11,1,-3,3,4,1,0,40
117217832231,-14,-14,-6,-11,-15,-25,-22,-2
117217844762,-2,-3,-18,0,-1,-9,11,-14
117217844762,-5,0,0,1,-1,-5,-7,-26
117217853308,-11,2,-11,-1,-1,0,7,15
117217853308,5,1,-7,1,7,8,8,30
117217868090,-14,10,-2,-2,-4,11,-12,-8
117217868090,8,-6,-16,-2,-7,-12,10,-21
117217869732,0,0,-4,10,4,0,0,12
117217869732,-9,-3,-8,1,0,7,-7,-27
117217881750,10,5,39,1,3,6,-12,10
117217881750,-6,-3,6,-2,-6,-8,-7,-2
117217890739,2,-4,-11,0,-3,-6,-5,-5
117217890739,8,-2,-20,2,4,6,25,46
117217905196,6,0,-19,-5,2,2,0,-19
117217905196,0,2,-13,-8,-8,-4,-24,22
117217911779,0,0,-11,1,0,7,40,-6
117217911779,8,5,-4,-8,-5,-2,-5,-11
117217928168,-25,-28,-12,1,-3,-8,-15,-36
117217928168,-5,0,-3,6,-2,1,5,-9
117217929670,-8,-17,-8,-11,-6,-3,-16,5
117217929670,18,-6,2,23,11,-17,-4,-12
117217950114,13,9,2,10,0,5,1,14
117217950114,-10,-4,-4,-19,-12,-5,-6,-28
117217950704,-19,0,0,12,1,-4,7,14
117217950704,-2,6,-1,-2,-6,-6,-6,-45
117217965759,2,7,3,22,5,5,-4,3
117217965759,0,-6,-12,-2,6,3,1,-11
117217979983,4,3,-3,7,-8,8,-1,-11
117217979983,2,1,12,37,11,-16,-13,-45
117217987405,11,0,-22,-76,-8,13,13,45
117217987405,-4,0,-4,-4,-9,0,11,-7
117217988216,-4,-3,-3,-6,6,-3,-4,-7
117217988216,-13,0,-7,-9,-3,17,2,5
117218010368,2,1,0,20,-14,-12,-1,0
117218010368,-2,8,28,15,13,-5,-4,-13
117218016822,13,0,-12,-47,-19,-6,-5,2
117218016822,-19,-14,-5,-20,-20,9,11,24
117218025737,17,2,-6,-39,3,-21,6,9
117218025737,-4,0,-5,10,4,18,6,11
117218031746,-10,-1,4,42,-1,-10,-7,0
117218031746,2,4,4,-6,3,-11,-7,14
117218047604,4,-7,-2,-19,9,19,17,-2
117218047604,-4,-7,-8,79,14,-8,-21,-28
117218048284,0,-4,-6,-102,-7,2,5,25
117218048284,-6,6,-4,43,3,2,-4,8
117218069873,-4,2,11,48,3,11,4,6
117218069873,-8,1,-9,-19,-4,-8,2,-2
117218070705,4,1,7,80,4,3,7,2
117218070705,-2,-1,1,-46,-4,-1,1,9
117218085717,0,2,1,-10,1,-3,-5,1
117218085717,-4,-5,-3,-15,5,6,-2,-6
117218091725,0,1,-3,-20,-16,-3,-7,-7
117218091725,-1,1,-2,-19,0,-5,-4,3
117218107389,-7,-8,-6,14,-18,-8,-2,-4
117218107389,11,5,-5,-13,-10,6,-1,0
117218108194,10,2,2,8,11,-2,1,7
117218108194,-1,4,1,-9,-4,-3,3,-5
117218129973,-4,-6,-10,35,8,7,1,-9
117218129973,4,-3,6,-21,-12,-6,0,-6
117218130735,1,-4,-3,1,-11,-4,-2,-3
117218130735,-5,-10,-9,8,0,-2,-2,6
117218145750,-1,12,-3,-18,-8,8,-11,-9
117218145750,-4,-13,-3,0,0,-3,3,6
117218151894,1,-2,1,9,3,-5,-4,-4
117218151894,2,8,-7,7,7,5,6,-26
117218167397,-14,4,-6,4,3,0,-5,3
117218167397,35,-12,-30,-15,-5,-8,-4,-7
117218168243,-13,9,-8,-1,9,16,5,11
117218168243,-3,-3,-6,0,-4,0,-5,-4
117218189984,6,-4,0,-5,3,4,1,-45
117218189984,-11,9,13,4,-1,-18,5,66
117218190701,8,-13,-7,-3,2,-5,-3,20
117218190701,-8,-12,2,-9,-1,4,4,12
117218205853,-14,-1,1,4,6,-12,-10,-63
117218205853,-23,7,0,-10,1,16,6,-25
117218211737,43,14,8,8,6,19,8,46
117218211737,-33,-6,-3,-5,-7,-14,-1,18
117218227592,-10,-4,-1,-1,-4,-11,-26,-61
117218227592,14,8,15,8,2,13,24,47
117218228344,-14,4,-6,-8,-3,-28,-18,-83
117218228344,-31,9,9,-3,-4,11,7,-40
117218250036,31,7,-10,1,6,-11,17,46
117218250036,-21,12,-1,3,13,17,-1,-21
117218250745,12,-12,-8,-4,-12,8,-17,-31
117218250745,-15,-22,-8,-14,-7,-9,-1,-13
117218265812,48,1,8,-7,-6,8,31,91
117218265812,-24,-7,2,-18,-16,-15,1,-55
117218271992,-17,-3,-9,-2,1,21,-15,12
117218271992,-14,-11,5,41,3,-19,5,-23
117218287439,0,4,1,-73,-13,-21,-24,8
117218287439,-2,-1,-6,8,8,-6,-24,-87
117218288285,-26,-4,-3,0,10,28,9,-48
117218288285,51,21,10,13,-3,-10,-8,65
117218311410,-35,-15,-3,18,1,17,2,-26
117218311410,5,-10,1,-1,-6,1,-28,13
117218312305,1,20,-4,-5,-5,-40,14,5
117218312305,16,10,0,-2,-4,10,-38,-27
117218325716,-18,-15,-21,6,11,-3,26,-55
117218325716,-1,-2,-6,-12,0,16,-4,3
117218331964,1,-10,10,15,0,6,7,25
117218331964,-28,-2,-12,-16,-1,-13,-5,-2
117218346951,-30,-16,-3,-3,-13,25,-37,-47
117218346951,-3,-1,14,9,-5,-61,-20,-24
117218354279,11,-32,-1,-4,-2,-1,12,52
117218354279,-9,-2,-1,-8,7,36,-13,-67
117218369941,54,-16,-28,-1,-22,-26,19,87
117218369941,-15,-24,-71,2,16,16,2,-26
117218370731,-21,0,-21,6,-8,-41,-43,-18
117218370731,68,11,-16,-5,24,23,66,31
117218385748,-59,5,2,16,12,18,-31,13
117218385748,0,-15,55,-2,-12,41,55,48
117218391944,-41,11,26,1,12,-15,-36,-58
117218391944,45,3,-2,-18,-13,6,-35,26
117218406958,35,22,8,-4,-16,-71,-4,96
117218406958,-60,-1,-7,-4,-1,-7,-57,-39
117218414272,32,-4,-25,-1,15,34,64,5
117218414272,-45,-18,-5,1,-11,2,-14,-73
117218429902,-9,5,31,7,21,11,-4,-122
117218429902,-60,-12,9,-17,-22,-15,-36,-15
117218430680,-13,9,16,-5,-22,-8,-4,-9
117218430680,-38,19,42,9,20,14,-18,-35
117218445756,70,6,104,-14,-4,-19,29,47
117218445756,-15,14,79,5,5,-4,-51,-100
117218451969,18,-21,113,-4,4,16,-4,-48
117218451969,-24,-9,60,-4,-13,-29,9,24
117218466978,-64,-15,47,-2,-8,-7,-70,-67
117218466978,107,-6,107,1,25,12,94,72
117218474404,15,35,64,3,2,35,-19,0
117218474404,8,-16,85,-6,-1,9,58,56
117218490165,64,27,36,15,14,-5,-4,87
117218490165,23,-14,-16,-19,-29,1,-13,-6
117218490811,-18,-4,-73,2,-3,-15,-27,-22
117218490811,12,6,-76,-4,-30,-22,-48,-31
117218505851,13,-21,-128,14,-2,14,43,-38
117218505851,-34,-9,-128,5,3,5,4,24
117218511992,-15,-3,-116,-8,-13,-13,-33,-17
117218511992,-50,5,-128,8,25,5,27,-16
117218527012,35,6,-128,0,1,14,-2,17
117218527012,-115,5,-106,2,-18,8,-28,11
117218534554,90,5,-118,3,40,4,13,40
117218534554,-21,-20,-127,1,1,4,39,-65
117218550132,-61,-7,-76,4,-6,8,-5,-61
117218550132,50,34,2,10,15,7,26,52
117218550755,-77,1,73,-7,-32,-18,-18,-11
117218550755,20,-4,127,-3,2,-38,-54,9
117218565882,-53,0,127,4,25,43,14,19
117218565882,-10,23,99,-8,1,-26,21,-21
117218571874,-44,-19,44,-7,-1,-11,14,33
117218571874,39,-12,8,-3,-6,-4,-6,15
117218586786,-34,-2,94,-4,-2,19,-12,-22
117218586786,12,-10,70,3,4,-19,23,18
117218594356,-48,-1,56,-3,-4,2,1,-60
117218594356,-35,-2,7,-8,-3,24,0,6
117218609974,2,-17,-18,-3,-21,-44,-23,-9
117218609974,21,-4,-16,7,0,10,-14,-10
117218610725,31,-5,-10,11,-4,23,48,19
117218610725,50,7,-20,8,11,-7,24,23
117218625776,-23,-1,27,5,-3,3,-2,-15
117218625776,8,-5,8,-12,-10,-6,-10,-21
117218631941,21,4,9,-6,-7,-3,9,-1
117218631941,-28,-4,12,-7,-16,-30,-30,10
117218646955,3,1,-41,3,9,31,-11,5
117218646955,21,0,-51,3,-5,-11,4,-7
117218654287,23,-7,-23,-1,4,-4,3,3
117218654287,26,-1,-10,-7,4,32,7,25
117218669949,34,4,-29,-4,-4,-36,10,10
117218669949,16,-2,-28,-13,-16,-18,-45,-13
117218670749,0,-2,-9,1,-7,-5,15,-2
117218670749,-21,2,6,1,7,-14,-11,9
117218685777,-17,0,-20,-1,-1,-1,9,-3
117218685777,10,-1,-6,2,-3,-9,-3,4
117218691755,-11,6,1,-4,-1,-2,-15,-25
117218691755,0,-5,7,-3,-9,-34,-15,-10
117218706998,1,2,3,3,1,30,27,-16
117218706998,1,1,-18,6,20,27,18,-6
117218714350,-10,-4,0,4,-2,-2,7,13
117218714350,17,1,4,-2,-9,-3,16,9
117218729777,-2,0,-5,-10,-4,-5,24,0
117218729777,-14,-9,3,0,-3,-14,12,-8
117218745761,-20,-4,10,2,2,7,-10,-15
117218745761,-20,-3,12,4,5,15,-15,-35
117218747198,16,-4,11,-6,-4,-13,17,14
117218747198,3,-4,5,0,7,3,11,3
117218751806,20,1,-1,2,-1,-13,-1,25
117218751806,-10,9,3,5,0,1,9,-13
117218766853,6,-2,3,-3,-11,3,-3,5
117218766853,-51,1,-7,-4,-12,-18,-9,11
117218774382,7,1,-8,1,9,-33,-13,-35
117218774382,14,-10,-7,1,-3,16,-11,2
117218789943,-26,-4,1,0,-4,-2,-13,-12
117218789943,51,7,0,-2,-9,17,19,37
117218790705,-17,-3,-10,-4,-2,7,-12,17
117218790705,-20,-17,-22,-10,-11,-24,-28,33
117218812448,14,22,-112,5,21,22,-23,-35
117218812448,6,4,-83,6,7,-3,0,-28
117218813215,-16,-1,-126,1,-3,-8,21,-3
117218813215,1,9,-90,3,5,17,6,35
117218826713,-41,-12,-105,-4,-5,14,-17,-4
117218826713,11,-2,96,-1,-7,-16,2,3
117218834226,-24,3,54,-8,-2,-14,-25,-5
117218834226,-9,1,127,-13,-6,-3,-4,-25
117218850129,23,1,92,-6,-4,4,5,48
117218850129,-48,4,-25,-5,0,7,-36,-8
117218850739,13,-8,1,2,-2,12,32,42
117218850739,10,6,-10,8,5,-3,3,-12
117218865700,-9,4,-1,3,1,-17,-9,-6
117218865700,17,1,-13,3,7,12,-4,-11
117218871784,24,-1,-101,6,-3,14,-7,6
117218871784,-13,-2,-128,-5,-1,-13,-4,-4
117218886756,-7,-2,2,2,-1,-10,2,2
117218886756,-6,0,-44,-1,-3,10,3,1
117218894316,-4,-2,-38,-1,11,2,2,-30
117218894316,-7,4,-56,3,11,13,1,-30
117218909891,-11,-4,-4,-3,-5,-15,1,63
117218909891,2,2,11,-7,-4,-19,-10,-9
117218910654,-1,4,115,-5,-4,6,-1,-6
117218910654,20,-2,127,-3,-3,4,5,-6
117218925748,-6,18,127,0,1,-2,-1,-24
117218925748,-6,-6,113,2,-7,11,0,-13
117218931695,13,-1,121,3,3,-17,-16,19
117218931695,10,7,127,2,3,6,11,-2
117218946745,3,-9,71,-5,1,4,2,-25
117218946745,2,-11,38,-3,2,-4,8,-28
117218954222,1,4,13,-6,-6,2,-4,4
117218954222,7,4,-13,1,0,-10,-10,16
117218969890,-2,-1,-36,0,-5,-3,9,-15
117218969890,-1,0,-56,1,10,18,-10,-8
117218970656,3,-4,-42,0,-7,-31,-16,-6
117218970656,-5,-4,-51,10,2,12,1,1
117218985744,-2,-5,-44,-2,-1,6,0,-55
117218985744,4,-2,-33,0,0,5,6,11
117218992007,-7,-6,-6,0,-8,3,4,-19
117218992007,-5,-3,-12,-3,-13,-4,3,6
117219006792,-9,-2,-10,-5,-1,-10,-9,-23
117219006792,17,4,-7,3,-1,-6,6,63
117219014266,-2,1,5,3,7,13,2,-13
117219014266,-5,0,-3,1,1,2,6,-11
117219029914,10,-4,-8,-4,-3,-6,-3,22
117219029914,-2,-2,-18,-24,-4,-12,-2,-10
117219030796,0,1,-3,1,-1,5,1,8
117219030796,-3,-3,-7,-6,-3,-12,-1,3
117219045801,-3,13,4,8,-6,-3,-7,-11
117219045801,5,-8,-6,0,9,4,5,7
117219051967,-7,0,2,14,7,0,-2,-16
117219051967,-4,-3,5,19,7,14,11,-7
117219067012,0,-3,-6,-29,-12,-3,-4,5
117219067012,-3,-1,-6,33,-11,-6,1,-19
117219082739,-7,-4,-7,-14,-9,4,5,-1
117219082739,0,-6,-7,7,-5,-2,-13,-18
117219090051,9,4,-12,18,5,-24,2,13
117219090051,2,3,1,21,11,10,5,21
117219090763,-3,-2,-3,-33,-1,1,4,-11
117219090763,2,1,-1,20,1,10,3,-2
117219105867,-6,-4,0,-24,-3,6,-7,-26
117219105867,-3,-2,-7,19,-5,-9,-10,-6
117219111838,3,1,-7,-62,-9,-2,3,9
117219111838,-3,1,-6,-35,-8,-11,2,-3
117219126728,0,-4,-2,41,11,1,0,2
117219126728,-1,3,-2,-29,2,-9,-2,-11
117219151261,1,-3,-7,31,-3,-1,0,5
117219151261,0,-1,-2,48,15,-2,-2,7
117219152900,-3,-6,-2,-2,-7,-3,-4,6
117219152900,0,1,-3,-8,1,7,-1,-5
117219153661,-3,-2,-9,36,-7,0,-1,-6
117219153661,-3,-4,-7,-61,-9,-3,-1,-6
117219165759,-4,0,-5,4,5,4,3,8
117219165759,-2,1,-5,16,-1,-8,-2,-8
117219171854,1,-1,0,16,3,0,1,0
117219171854,0,-2,-2,-11,-8,-6,1,-1
117219186725,1,-5,-4,2,1,9,2,3
117219186725,-2,-4,-6,-51,-10,0,-1,-9
117219194285,-2,-2,-1,15,4,-2,-2,2
117219194285,-1,1,-3,23,-2,-2,1,8
117219209639,-4,-1,-6,-43,-8,-2,0,2
117219209639,-2,2,-2,22,3,0,-2,-9
117219216781,1,-1,-4,-3,0,4,1,2
117219216781,-4,-1,-2,-26,-8,-2,9,-3
117219225748,-1,-1,2,11,3,1,4,3
117219225748,-3,-2,-5,13,7,-4,-12,-7
117219239995,2,0,-3,-29,4,-1,-18,-1
117219239995,-1,0,1,7,1,0,-7,0
117219246936,4,-2,0,0,-6,-5,1,1
117219246936,-8,-4,-3,-8,-10,-2,1,-4
117219254262,-4,0,0,10,-2,-1,0,-7
117219254262,9,0,-4,-1,-1,3,0,5
117219269425,5,0,0,12,-4,-1,2,5
117219269425,-1,-1,-3,-5,1,-3,7,-5
117219276896,-2,0,1,-5,0,3,5,2
117219276896,4,2,-1,-7,-4,0,3,25
117219285870,0,-3,-1,-3,-2,3,-1,-3
117219285870,3,-1,-1,-4,-3,-2,-1,-3
117219291828,-2,-2,-2,0,-3,-7,1,0
117219291828,-13,-3,-3,2,-1,-3,-7,-47
117219306974,26,16,-1,0,3,3,-5,37
117219306974,-33,-7,-4,-7,2,-1,-1,16
117219314355,-25,-11,-8,-2,1,-3,-4,-17
117219314355,0,-2,-2,0,1,0,1,-2
117219329215,-17,-5,-2,1,-5,-4,-4,-5
117219329215,18,18,5,-1,-4,0,0,12
117219336787,-3,-13,0,-4,-1,2,0,-42
117219336787,-10,19,1,-4,1,1,-6,15
117219345759,4,-27,-8,-4,-1,2,-7,-16
117219345759,11,-1,-5,1,-3,-1,0,7
117219351924,-6,-7,-4,2,-5,-8,3,9
117219351924,-9,-10,-2,12,-4,-5,-2,-4
117219367030,-5,10,2,-26,-8,0,-1,-10
117219367030,-2,-10,1,-3,-2,0,-6,-14
117219374304,14,10,5,0,3,0,-1,8
117219374304,-5,-1,-1,4,6,-4,0,-15
117219389234,-5,-4,-4,-9,-2,-4,1,47
117219389234,-4,-8,-8,-8,-4,-1,-1,-17
117219396787,-2,21,-1,-6,-3,3,1,21
117219396787,0,-2,-1,-2,1,2,2,-14
117219405759,6,-3,0,11,5,1,2,19
117219405759,-11,-3,-3,-7,-1,-5,-4,-20
117219412008,-3,0,5,-3,-1,2,0,8
117219412008,-20,-23,-6,-3,-4,0,-3,-6
117219426728,1,-3,-1,8,0,-2,0,-23
117219426728,-4,25,6,5,1,1,-2,4
117219434261,9,-3,-1,3,1,1,-1,2
117219434261,-24,-1,0,1,-3,-2,-3,-3
117219449242,1,-3,5,2,-4,2,-1,-5
117219449242,4,-11,1,-2,-2,-2,2,7
117219456845,3,5,-4,-5,-1,-3,-5,-2
117219456845,5,5,-3,-8,-2,-7,-4,29
117219472376,-8,7,-2,1,1,-4,-4,-20
117219472376,9,-4,-1,-3,1,-2,-1,13
117219473145,0,-2,-2,-1,4,0,1,6
117219473145,10,-5,-3,-1,0,2,2,-4
117219486847,-13,8,-1,5,5,5,-3,-15
117219486847,13,-5,-1,0,-3,2,1,11
117219494495,-5,-3,0,2,-2,0,5,-15
117219494495,18,12,-2,-7,-2,-2,4,8
117219509337,-7,-2,-2,-1,1,-2,2,5
117219509337,0,-10,-1,2,-1,0,-4,-8
117219517030,7,-6,-7,0,-6,-4,-5,6
117219517030,5,2,-1,-3,-5,-3,-3,-8
117219532537,-2,0,0,2,-2,-5,-1,-1
117219532537,1,-1,-3,-3,-3,-3,1,-3
117219533304,-4,6,4,0,-1,0,-2,-3
117219533304,-7,-10,-3,-2,-1,-2,-2,0
117219546752,-1,-5,-3,2,0,-1,-4,-11
117219546752,-4,-1,0,-1,3,0,-1,-22
117219554389,-5,-6,-3,2,-4,-2,2,25
117219554389,2,-1,-1,-4,-3,-2,2,4
117219569463,10,-13,0,0,-1,4,-1,9
117219569463,-7,2,-1,3,-3,3,4,-16
117219577602,1,-1,2,-4,3,-1,-2,-15
117219577602,-3,-8,0,-1,2,-5,-1,-1
117219592388,0,1,-2,-2,4,-6,-1,4
117219592388,-2,-3,1,-5,-1,-1,-2,7
117219593156,10,2,-2,3,-2,0,-3,-8
117219593156,-1,-2,0,2,-2,-2,-4,-33
117219606941,-9,-1,1,1,-2,3,3,28
117219606941,1,1,-2,-14,-4,3,-1,7
117219614352,16,8,-1,-7,-1,0,1,5
117219614352,1,3,-1,-3,2,-1,-1,-3
117219629333,12,1,-5,1,1,-3,-3,-13
117219629333,3,0,-3,-2,1,-2,-4,-4
117219645014,-21,-10,-5,-1,-2,1,-5,2
117219645014,1,-3,1,1,-1,-1,-1,15
117219652512,-2,-1,-1,-1,0,-6,-1,-4
117219652512,0,6,1,5,1,-1,2,20
117219653255,-8,-13,-4,3,-3,-3,-1,-7
117219653255,3,11,-3,2,-5,-1,-1,5
117219666897,-11,-10,-5,-3,-6,-2,-1,-12
117219666897,5,-2,-1,-3,-3,-4,0,0
117219674344,2,-1,2,-2,0,0,0,-1
117219674344,-1,4,3,0,0,1,0,-15
117219689319,1,6,0,1,0,-1,1,-9
117219689319,-3,-9,-7,0,1,-5,-3,-8
117219697676,-4,0,1,-3,1,-5,-4,-4
117219697676,7,-5,-2,-2,-2,-2,0,10
117219712603,10,5,1,5,-2,-1,-3,-13
117219712603,-2,3,0,-4,-4,1,-2,-3
117219713238,-2,1,1,-3,-1,1,0,3
117219713238,6,-3,-1,-4,-3,4,0,-2
117219726873,-15,-3,-1,0,-1,4,-3,8
117219726873,-7,1,-2,3,-1,1,-3,-6
117219734413,-6,-6,-2,-2,-3,-4,-3,-4
117219734413,2,4,1,-5,-1,-2,-3,6
117219749417,-7,-4,-5,-6,0,-2,-1,-11
117219749417,3,2,-2,0,2,-1,2,1
117219757435,14,-15,-2,-2,1,-2,1,0
117219757435,-4,-6,0,1,2,-1,-1,4
117219772416,-2,-1,3,3,-4,1,-5,-1
117219772416,4,7,2,2,-3,-3,-8,-2
117219773205,-1,10,-2,0,1,-1,-2,-2
117219773205,-3,-9,-3,0,-1,-3,-2,9
117219794992,18,3,1,-2,3,1,4,-5
117219794992,1,-5,-1,0,0,0,4,-1
117219795834,-1,1,0,3,-2,-2,4,4
117219795834,-2,0,0,-4,0,-2,0,3
117219809269,-5,-1,-1,-4,-5,-1,-3,-8
117219809269,-6,-3,-1,1,-2,-4,0,4
117219817755,-3,5,-1,0,2,0,0,-2
117219817755,0,-4,-3,-1,0,0,1,7
117219832488,-1,-2,-3,-4,-2,1,2,-8
117219832488,4,1,-2,-2,-1,3,0,-1
117219833396,-1,-2,2,-1,-3,0,-2,-2
117219833396,8,-1,1,-2,0,0,0,5
117219846911,-10,-2,-3,-1,-1,-2,-5,-5
117219846911,-9,-6,-6,4,-5,-3,-3,-3
117219854297,-2,3,0,4,-2,0,-1,-1
117219854297,-6,-1,0,-2,-2,0,0,-9
117219869302,6,-19,-2,-1,3,-3,2,14
117219869302,-4,-7,-4,-3,1,-8,1,4
117219877406,1,10,-2,-2,3,-5,-2,10
117219877406,-6,-8,-1,1,-6,1,-1,3
117219892784,-6,4,3,1,-7,-1,-2,-9
117219892784,4,1,2,5,-3,1,-4,9
117219893275,4,-1,1,-2,-3,2,-1,9
117219893275,-9,4,2,-3,2,0,-4,-9
117219906771,-8,2,-3,-6,-3,0,-2,0
117219906771,-4,-5,-3,-4,-2,-4,-2,-7
117219914212,1,-2,-4,-2,-4,-5,-1,-1
117219914212,-1,-3,-4,2,2,-4,-1,1
117219929432,2,0,-1,2,3,-2,0,-1
117219929432,-3,2,4,-2,4,5,1,-5
117219937503,3,-6,-3,-4,-1,1,3,-12
117219937503,-7,3,2,0,-6,-2,0,1
117219952678,-1,1,-1,-2,1,-7,3,-6
117219952678,-6,0,-2,0,-2,-5,1,-4
117219953291,4,-4,-3,4,-1,3,0,4
117219953291,1,0,-1,-1,1,3,-1,-5
117219966965,63,-6,-3,-2,-1,-1,0,37
117219966965,-4,5,4,1,0,0,2,-8
117219974502,-4,2,-1,-2,-4,-1,-8,-8
117219974502,1,-9,-2,0,0,0,-5,-8
117219989201,-12,1,-2,-2,1,-2,0,-7
117219989201,-1,-4,-2,-1,-3,-4,0,0
117219997444,-1,-2,0,-1,-4,0,-2,1
117219997444,6,2,-4,-3,-4,-1,-2,7
117220012372,-18,-1,-1,-5,-3,3,1,-6
117220012372,0,-4,-2,-1,-3,-1,0,-1
117220013217,-17,-2,1,-2,2,0,-3,-16
117220013217,-2,2,4,-1,-3,-1,0,4
117220026799,-12,1,-1,3,1,-1,-1,-8
117220026799,-2,1,-1,1,2,-6,-4,-2
117220034235,9,-3,-5,-3,-1,-4,-4,0
117220034235,-4,0,-4,1,0,-1,-2,-6
117220049280,-4,1,-1,1,-3,-1,-1,-1
117220049280,0,2,-1,-1,-1,2,-1,-2
117220057430,-3,-2,-2,0,1,0,1,1
117220057430,2,-2,-2,-5,3,-1,-1,-3
117220072404,-21,-11,-8,-6,-1,-3,-5,-14
117220072404,4,0,3,-3,-3,2,0,0
117220073188,-1,-1,0,1,-4,-2,3,0
117220073188,0,1,-1,1,-2,-1,3,-1
117220086681,1,1,-2,-1,-5,-2,-3,2
117220086681,-4,-4,-2,-2,-3,-4,-1,-7
117220094541,-4,-2,1,-3,-1,0,-2,11
117220094541,-1,-4,-2,-2,-4,-4,-3,-2
117220109438,2,3,3,3,1,-1,-5,-3
117220109438,-2,-4,-3,-2,0,2,-5,0
117220117598,-1,5,-3,-2,-3,0,2,-8
117220117598,-2,-11,-1,-2,-2,-3,3,-3
117220132462,-6,0,6,1,-1,1,3,-4
117220132462,-2,-3,-3,2,0,-3,0,3
117220133233,-1,7,-1,3,2,-4,1,-3
117220133233,1,-11,-5,-2,0,0,-3,3
117220146720,-4,-1,0,-1,0,0,0,-5
117220146720,-1,-1,2,-1,0,2,0,-4
117220154233,-4,-1,2,-6,-1,-2,-1,-2
117220154233,0,4,-2,-3,-1,-2,-2,1
117220169435,2,0,3,-2,1,-4,1,1
117220169435,-2,-5,-1,-3,-5,0,-1,6
117220177397,3,-7,-4,-1,-1,0,-2,2
117220177397,8,3,-1,1,-1,0,1,0
117220192398,-8,3,-1,4,-1,-3,-4,1
117220192398,18,20,1,1,3,0,-4,1
117220193201,-4,20,3,2,3,-1,-1,-2
117220193201,24,-19,-2,-2,-3,1,-3,3
117220206760,-12,5,-1,-4,-8,1,-3,-7
117220206760,7,0,2,-1,-5,1,1,7
117220214305,9,8,1,-2,-1,1,3,-4
117220214305,-27,-20,-2,1,0,-5,1,-4
117220229227,-7,14,2,-1,3,-1,1,5
117220229227,-3,-9,-3,-1,1,-5,-3,-3
117220237355,-1,-16,-2,-4,-1,-1,-5,-1
117220237355,-9,9,-3,-2,-3,0,-3,-5
117220251708,3,-7,-5,-1,-5,-2,-1,-2
117220251708,-14,-3,-2,-2,-1,-2,-1,-1
117220259935,-2,-2,-2,1,1,-2,2,5
117220259935,1,13,-1,4,2,-5,0,-2
117220274905,1,-2,1,1,0,-1,-1,2
117220274905,3,0,-2,-4,-2,-1,-2,-6
117220275665,-9,-10,-3,-3,-6,1,-2,-4
117220275665,0,4,1,0,-1,4,2,4
117220289249,5,-8,-1,0,-1,4,1,-4
117220289249,-9,-6,-3,-1,-1,3,0,-3
117220297387,1,-4,-2,-1,-1,1,2,-2
117220297387,-4,4,-2,-4,-1,1,-4,-7
117220311753,3,-2,-4,-2,-2,-5,-3,1
117220311753,0,0,0,-4,1,-4,0,0
117220319884,-4,-2,-1,-4,1,-4,-4,-3
117220319884,7,3,2,-1,1,-2,1,12
117220326736,-2,0,3,1,-1,0,-3,0
117220326736,11,9,-1,2,-4,-2,1,-3
117220334274,-6,-8,-1,0,0,-2,2,7
117220334274,-4,-3,-4,-5,0,-3,-2,-6
117220349189,1,-3,-2,-4,-3,-3,2,-4
117220349189,-2,-1,-4,-2,-2,1,0,3
117220357408,-1,1,1,0,-4,-4,-5,-7
117220357408,-9,1,-2,1,-1,-3,-2,0
117220371742,7,5,0,-2,4,-1,-6,5
117220371742,-1,-6,-1,-4,-5,2,0,-3
117220379889,-3,-4,-3,-4,-3,0,2,-1
117220379889,-1,1,-1,-2,-1,-2,-5,-3
117220386721,1,-4,-3,2,-1,-5,-2,-3
117220386721,-14,-5,-4,1,0,-2,0,-3
117220394210,0,-2,-3,1,0,-1,-2,1
117220394210,1,0,1,1,-1,0,2,0
117220409168,-3,-9,-1,0,-3,2,2,-1
117220409168,0,-2,1,-1,-5,0,-3,-1
117220417409,-2,-3,-2,-3,-4,0,-3,-2
117220417409,0,3,-1,-2,-1,0,1,-3
117220431709,-3,0,-3,-3,0,-1,-2,-1
117220431709,-4,-15,-1,-3,1,-5,-3,-1
117220439908,-1,-1,1,-1,-2,0,-3,0
117220439908,3,0,1,-1,-2,-1,-5,0
117220454895,-5,-5,1,0,3,-2,1,-5
117220454895,6,1,0,-3,2,-4,1,-6
117220455679,2,0,0,-2,1,-2,2,2
117220455679,1,1,0,0,-4,0,0,-2
117220478073,-2,-4,-2,0,-5,0,-1,1
117220478073,5,5,-1,1,-1,1,-2,-16
117220478843,-16,-2,-5,-2,-5,-2,-2,-2
117220478843,2,0,0,0,-4,0,-1,-1
117220491727,-3,-4,-3,-1,1,0,2,-1
117220491727,6,19,0,0,1,0,0,3
117220499884,0,-21,-4,-1,-3,1,-1,2
117220499884,-2,-1,-3,0,0,1,0,-1
117220514845,-1,0,-1,-1,2,2,0,-2
117220514845,-2,3,1,-2,1,-2,-2,2
117220515663,1,6,-2,0,-1,-5,0,-5
117220515663,-4,-1,0,-2,-3,-5,-5,-3
117220529218,1,-5,-1,-5,-7,-3,-2,-2
117220529218,-5,-2,-2,-1,-1,-3,1,1
117220537383,0,3,3,0,1,-1,0,-3
117220537383,-5,-3,2,0,-3,0,-2,-3
117220551717,0,4,1,-4,-4,3,-1,4
117220551717,-3,-7,-5,-2,1,0,-1,3
117220560017,3,1,-6,-2,2,-2,-2,-6
117220560017,0,-1,-4,2,4,-1,0,6
117220574875,0,-2,-1,3,-2,0,0,2
117220574875,-4,-7,1,1,-4,-3,0,1
117220575711,5,-2,0,2,2,-3,2,0
117220575711,5,1,-2,-5,-3,-2,1,-6
117220589217,-9,1,0,-2,-1,-3,-1,3
117220589217,10,-1,-2,-4,0,-1,-1,0
117220597456,-3,1,-2,-2,-2,2,-1,12
117220597456,1,2,0,-1,0,2,-1,-2
117220611710,2,-2,-3,-3,-2,4,-2,0
117220611710,-7,-4,-5,-1,-3,-1,2,-3
117220619936,0,1,1,1,0,-3,0,-3
117220619936,-1,1,-5,0,1,-2,3,2
117220634823,-2,0,1,2,1,-1,0,0
117220634823,-4,-6,0,2,-1,0,-4,-2
117220635664,-6,6,-3,-1,-4,2,-4,-7
117220635664,-4,-28,-1,-2,-1,-1,-3,2
117220649227,0,-2,-2,-2,-1,-3,-4,-3
117220649227,0,-3,0,-2,-1,-2,-3,1
117220657446,1,-1,3,-1,-6,-4,-1,-8
117220657446,0,5,0,-3,-2,-1,0,1
117220671696,-2,1,-1,-5,-1,1,0,-1
117220671696,-4,-5,-4,0,0,-4,-1,2
117220679978,0,-3,-4,1,3,-2,-1,-3
117220679978,3,3,-4,1,1,-4,1,0
