timestamp,emg1,emg2,emg3,emg4,emg5,emg6,emg7,emg8
116960037188,-1,-1,-1,-1,0,0,0,-2
116960037188,-2,-1,0,4,-1,-3,0,-3
116960037998,-2,-1,-1,0,1,1,0,-2
116960037998,-1,-1,-1,1,-1,-1,-2,-1
116960042220,-1,-1,0,0,0,0,0,0
116960042220,-1,-2,-4,-8,-1,-1,-1,-2
116960045870,-1,0,-1,2,-2,-3,-1,-3
116960045870,0,0,1,6,1,0,-1,0
116960047898,-2,-2,-4,-4,-2,-2,1,-2
116960047898,0,0,1,-4,-2,0,0,-1
116960059296,-1,-4,-2,-6,-3,-2,-3,-1
116960059296,0,0,-3,-2,0,1,0,-2
116960071630,0,0,0,2,0,0,-1,0
116960071630,-2,0,-2,4,-2,-1,0,0
116960079299,-1,-1,0,1,2,1,-1,1
116960079299,0,-2,-5,-5,-4,-1,1,0
116960086503,-1,0,-1,-5,0,-1,-2,-1
116960086503,1,0,3,4,0,2,1,1
116960108613,-1,-1,-3,-4,-6,-14,-3,1
116960108613,-4,-3,-4,-3,3,7,-1,-4
116960109390,0,2,3,3,-1,-7,-2,-1
116960109390,-3,-2,-2,-7,-7,4,-3,-2
116960156071,-1,0,-1,-6,-10,-6,-3,-1
116960156071,-1,-2,-7,-6,2,2,0,-2
116960156871,-1,0,-1,-3,1,1,2,1
116960156871,-1,-3,0,6,-1,-3,0,0
116960157689,1,16,4,1,0,-4,-3,-2
116960157689,1,0,0,-2,-1,-3,-3,-1
116960160739,-2,-1,-2,-1,2,-5,-4,-1
116960160739,1,-2,-2,-4,-6,10,1,-4
116960167595,0,-2,4,4,2,-8,1,2
116960167595,-2,-2,-3,2,4,1,2,0
116960183964,0,-1,-2,-1,0,-7,-4,0
116960183964,0,3,1,1,3,1,0,-2
116960185588,-1,-5,-4,-7,-1,19,-2,-3
116960185588,-2,1,5,6,-7,-21,4,-2
116960198281,0,-5,-6,-7,-1,6,2,1
116960198281,-2,-2,-4,-8,-5,-14,-4,0
116960205162,-5,-6,-3,0,1,-3,-2,-7
116960205162,1,-1,1,0,-1,1,-9,-1
116960220158,-3,0,-3,-2,-5,-3,0,-5
116960220158,1,0,0,-1,-1,2,2,-2
116960229206,6,-1,0,3,3,-2,-4,4
116960229206,2,-1,-2,-1,0,-9,4,-2
116960243363,-9,0,1,-1,2,12,-1,-3
116960243363,-9,-5,-2,1,-1,1,2,-2
116960250294,-3,-5,-5,-6,-8,12,0,-2
116960250294,5,-1,0,-4,-8,-18,3,8
116960266707,49,7,0,-1,3,-5,-7,18
116960266707,-30,-6,-2,0,-3,-10,-5,-4
116960268209,-21,-2,2,6,15,17,-7,-15
116960268209,-2,-1,-6,-3,-3,20,5,-1
116960289009,-6,-7,-4,-10,-24,-31,0,-12
116960289009,15,5,2,10,20,22,7,19
116960290629,21,4,0,-10,4,-5,5,18
116960290629,-12,-4,-1,5,10,34,-1,-22
116960303354,7,4,1,1,-5,-20,-16,10
116960303354,15,-11,-4,-7,-6,2,7,10
116960310221,-43,2,-4,4,-2,-29,14,-4
116960310221,9,5,1,-2,-1,-15,-22,-3
116960334008,-12,-1,0,0,-2,5,14,-23
116960334008,-2,0,-1,-8,-12,-12,2,3
116960335540,22,-1,-4,-6,-1,19,-18,9
116960335540,2,10,3,-1,-7,-29,4,3
116960348941,-42,-17,-3,3,1,23,-20,-34
116960348941,3,-10,8,1,21,36,21,4
116960350559,13,7,-9,3,-8,9,23,21
116960350559,-8,3,-5,-15,-9,-22,-9,0
116960363339,-3,11,-3,10,4,-2,0,-13
116960363339,6,-11,1,-2,-8,-21,-9,7
116960370191,24,1,1,-6,0,23,-5,-7
116960370191,-77,-7,-7,-10,-21,-29,-15,-23
116960386508,1,10,0,-6,6,-2,10,9
116960386508,1,-16,-4,1,2,-2,-16,-21
116960388175,-13,1,2,9,-3,-24,-2,-11
116960388175,20,-3,4,9,17,20,4,14
116960409045,-10,2,2,-4,-12,10,2,4
116960409045,2,15,4,-1,2,16,-4,-8
116960410589,-35,-18,-1,-3,3,-32,-3,-16
116960410589,16,-3,-9,1,1,17,6,-29
116960422851,-11,-27,-5,8,0,-20,-10,34
116960422851,28,25,3,-1,-4,-27,-17,8
116960431811,6,4,2,0,-1,32,4,-13
116960431811,5,-7,-2,-10,-13,-24,4,22
116960446649,-1,-5,0,4,13,20,9,-24
116960446649,-9,13,-1,7,-4,-18,4,15
116960448229,-4,5,-2,-23,-19,9,0,-11
116960448229,28,-8,-9,-4,-4,9,5,28
116960468996,5,6,-4,-9,-15,2,-17,-29
116960468996,-14,-5,-6,-5,-4,-20,-23,17
116960470604,-39,-8,9,21,25,-20,0,-42
116960470604,-17,-15,-2,-13,-22,25,6,7
116960482682,26,2,3,5,15,1,5,16
116960482682,-28,-10,-4,-9,-2,48,0,-19
116960491634,12,-10,-3,-5,-11,-69,5,22
116960491634,7,4,4,7,14,17,-9,9
116960505760,4,-7,-4,-2,2,-6,-1,-19
116960505760,-10,-8,-1,-3,-13,12,-6,-17
116960506578,12,-5,-5,-3,-6,-11,2,26
116960506578,-23,5,4,4,12,26,-1,-37
116960528280,10,-1,5,1,-1,-35,-18,17
116960528280,45,10,-1,-10,-15,-8,8,36
116960529060,-67,-3,-1,-8,-1,9,7,-49
116960529060,54,-2,-1,9,-2,-12,3,46
116960550889,-56,-4,-6,-4,0,12,-2,-48
116960550889,-8,-7,-9,-1,1,-16,-9,-15
116960551717,32,10,10,6,-1,6,-4,18
116960551717,-1,-4,-13,-6,13,12,4,-7
116960566015,3,0,2,-3,-14,21,8,-5
116960566015,-3,6,-3,-5,2,-15,1,-24
116960566621,9,-19,-6,1,-2,-6,-17,40
116960566621,-26,-9,4,7,5,-13,-8,-6
116960596672,17,2,-4,0,-1,11,2,15
116960596672,4,6,11,11,9,-7,-4,-18
116960597354,11,-3,-15,-8,-6,31,-3,5
116960597354,-16,-4,-2,-4,-10,-34,-9,-12
116960610879,28,3,2,-1,11,-4,15,75
116960610879,-29,-8,3,9,5,23,5,-30
116960611628,7,3,-8,-8,-6,-8,-8,11
116960611628,-4,-2,1,0,1,4,-1,-25
116960625842,-5,5,1,-2,-5,-9,1,0
116960625842,-6,2,-5,1,1,-8,1,-3
116960626653,14,-1,-1,7,5,8,-10,4
116960626653,7,12,2,-8,-6,1,4,26
116960648473,-12,-2,7,9,-5,-5,-2,-43
116960648473,1,-5,4,-1,6,1,0,9
116960649187,13,0,-17,-12,-9,-11,-1,14
116960649187,-4,2,3,-2,11,12,2,-13
116960671006,-24,-14,4,2,-3,-4,-9,-15
116960671006,-7,-6,-11,-2,-2,-8,4,0
116960671605,-10,4,3,0,-3,-3,-1,-6
116960671605,5,3,5,15,3,-2,0,8
116960685947,10,2,-7,-15,-4,7,9,24
116960685947,1,-3,-1,0,-7,-7,-5,-13
116960686739,-2,5,5,3,6,3,-4,-2
116960686739,7,0,8,12,-3,0,0,-2
116960709781,-10,1,6,0,5,-1,-2,1
116960709781,2,-3,-8,-12,-11,-8,-4,7
116960710552,-10,-4,-1,5,1,4,-1,-17
116960710552,-3,8,6,-4,2,-5,-2,-9
116960730834,18,3,-3,-7,-4,2,7,25
116960730834,-13,-1,7,14,1,-1,-2,-3
116960731548,-4,-10,-10,1,8,9,4,-5
116960731548,4,6,2,-7,-4,-2,3,-5
116960745970,-2,-11,-5,13,1,-1,-2,4
116960745970,-15,3,8,-2,-5,-4,1,8
116960746816,14,0,19,13,2,1,0,-9
116960746816,-28,-17,-31,-34,-13,-5,-1,-6
116960768364,-10,6,2,-2,-2,-2,1,-13
116960768364,-20,-12,-12,-8,3,2,6,9
116960769188,28,-3,19,13,-7,-3,-3,50
116960769188,11,7,3,6,6,3,-2,-5
116960790837,-21,-4,-5,-7,-6,-6,-27,-25
116960790837,3,-7,-12,2,-3,0,20,-4
116960798615,-18,-2,-6,-6,-11,-19,-18,0
116960798615,-17,4,9,13,0,9,-10,-20
116960805925,20,-14,-17,-17,3,3,12,14
116960805925,34,2,8,9,0,-15,-4,14
116960806659,25,5,-2,-12,-4,7,-7,-19
116960806659,0,-1,-11,-1,4,0,12,9
116960828510,1,5,5,24,6,11,-3,-10
116960828510,10,3,-9,-72,-14,-14,-19,-4
116960829136,-10,-1,-20,-27,-9,-8,19,-4
116960829136,2,-1,20,21,17,0,-10,34
116960850875,33,7,-2,2,12,30,-29,5
116960850875,-9,1,0,18,-2,-10,19,-16
116960851827,-36,-8,-10,8,-13,7,-10,-24
116960851827,18,2,-4,-9,11,3,-16,-43
116960865914,-30,-9,-1,2,4,64,-12,11
116960865914,11,8,1,18,-5,-55,66,63
116960866655,25,14,15,17,8,-19,-34,-9
116960866655,-20,-8,-2,-2,-10,-23,-36,-48
116960889906,-1,5,-4,-8,3,-3,42,16
116960889906,4,-3,0,-4,-6,37,-17,-11
116960890775,-28,2,-6,-13,-7,-8,31,-4
116960890775,6,-9,-9,-7,-13,-5,-12,-1
116960911025,-1,-1,4,-2,-11,-32,-20,-15
116960911025,9,6,2,-4,10,15,2,5
116960911611,3,-5,-8,-3,4,-3,-5,2
116960911611,2,1,5,3,3,5,14,13
116960925934,-9,-1,0,-9,-16,-14,-1,-13
116960925934,-3,-4,0,10,15,9,-11,0
116960926836,-5,-5,1,-6,2,10,-1,-12
116960926836,7,-3,-4,6,-5,0,2,6
116960948458,5,-2,0,1,6,-25,11,7
116960948458,-13,-3,-4,7,0,5,-37,-27
116960949185,6,-12,7,5,4,12,32,4
116960949185,-3,-1,-6,-17,-10,-9,7,1
116960971037,3,3,5,7,4,-12,-9,-5
116960971037,-6,-8,-9,-10,0,7,3,6
116960971643,-8,5,3,-2,-2,3,-14,-25
116960971643,6,-1,3,4,0,-10,10,15
116960985957,-4,-1,-1,-2,-7,-9,1,-16
116960985957,-5,-5,-4,-8,-6,5,-14,-9
116960986711,1,13,11,12,5,0,1,8
116960986711,0,-9,-6,-14,-7,-1,5,6
116961008446,4,4,12,11,12,-1,1,-3
116961008446,-1,3,-2,-1,-2,6,-7,-8
116961009127,0,0,-4,-3,1,-7,-6,1
116961009127,-7,2,-6,1,-1,7,-4,-13
116961031043,6,0,-2,-10,-4,-8,-7,19
116961031043,0,1,6,9,5,-1,0,-13
116961031638,-15,-9,2,1,2,2,8,6
116961031638,18,2,-4,-5,-4,-1,-2,6
116961045817,-22,-2,-5,-8,-9,-9,0,-18
116961045817,5,3,-3,-2,-5,-5,-1,28
116961046841,-31,-9,-11,-8,-1,0,-24,-75
116961046841,5,-1,-2,3,0,5,11,19
116961068536,-10,-1,-9,-11,-7,-6,6,6
116961068536,10,1,7,6,1,0,-8,-10
116961069181,8,2,7,8,0,1,-1,15
116961069181,-6,-5,-6,-5,-1,0,1,8
116961091489,3,1,9,8,3,1,2,-6
116961091489,-8,-4,-13,-13,-4,-5,-5,-8
116961092106,13,-2,-6,-1,4,2,6,24
116961092106,-8,4,7,7,-1,1,0,-14
116961106005,8,-11,-4,0,-2,-1,5,16
116961106005,-11,-1,7,1,-1,-1,-3,-31
116961106648,25,1,-5,-6,-3,-2,-1,15
116961106648,-19,-3,-2,-2,-4,-3,-6,-24
116961128302,-2,9,6,1,-6,-3,-5,-15
116961128302,-1,-5,-3,3,1,4,3,8
116961129052,-2,-4,2,11,7,2,5,6
116961129052,-1,-9,-11,-20,-13,-5,-6,-9
116961150880,6,0,-4,-1,3,-1,2,3
116961150880,0,0,1,-3,-4,-3,-2,-7
116961151664,-3,1,0,6,2,2,1,7
116961151664,16,-2,0,-1,-3,-2,6,21
116961173621,-19,8,13,17,4,-1,-6,-25
116961173621,-3,-2,-7,-11,4,-1,-6,1
116961174195,-5,-6,-16,-13,-5,-3,-1,-7
116961174195,-2,7,5,5,-5,-11,-7,2
116961187777,-11,-8,-12,-17,-7,-3,-50,-84
116961187777,12,8,0,21,10,-2,35,72
116961196058,11,5,6,-8,0,10,10,23
116961196058,-7,-14,-8,-6,3,3,-4,-10
116961211052,23,2,-5,1,-1,4,15,10
116961211052,-10,-3,-11,-13,-12,-1,-32,-57
116961211723,21,4,0,-3,-10,-28,2,37
116961211723,3,5,2,4,2,0,22,35
116961233390,17,3,-5,2,8,9,15,49
116961233390,5,-1,14,16,4,-4,15,-6
116961234113,11,-6,-11,-12,3,15,-20,39
116961234113,-22,-1,9,6,-9,11,27,-25
116961248306,-16,-5,-8,-11,-10,-38,-27,-38
116961248306,11,6,2,4,22,53,56,63
116961249183,-9,2,18,14,9,-7,-1,-21
116961249183,1,-2,-10,-20,-7,0,-41,7
116961270838,-1,0,-2,-7,-9,1,21,25
116961270838,-6,-13,0,3,-12,-22,2,-15
116961271561,-11,-4,-3,-6,-6,-7,-8,-38
116961271561,1,2,0,2,8,6,-2,3
116961293289,-4,-3,-5,-6,-5,-7,-12,8
116961293289,-4,-2,-4,-5,-5,-10,-24,-18
116961294065,-4,-1,-3,6,-2,3,4,5
116961294065,0,0,-3,-6,-1,-6,-6,1
116961308360,-3,-4,-3,-3,1,6,14,14
116961308360,-3,1,2,5,-1,-3,-14,-13
116961309071,-9,-2,-8,-17,-8,2,1,-13
116961309071,-3,0,-3,-1,-2,-6,1,-11
116961330780,2,-1,3,5,6,6,7,4
116961330780,-2,-3,-8,-13,-5,-2,-11,-7
116961331569,-4,0,0,-4,-2,-4,-7,-10
116961331569,2,1,4,7,-2,-3,0,-3
116961353260,1,0,-1,-7,1,2,7,17
116961353260,-2,0,-2,3,-3,-6,-11,-5
116961354066,-5,-1,1,2,0,-1,3,-8
116961354066,-1,-1,-2,1,2,-1,-3,-3
116961369165,0,0,1,14,4,6,5,7
116961369165,-2,1,3,13,-2,-5,-8,-8
116961375826,-3,-2,0,-18,-2,3,1,-7
116961375826,-4,-15,-14,-26,-5,3,-1,-1
116961390829,0,-1,-4,2,-5,-11,-2,4
116961390829,0,1,2,27,7,1,-5,0
116961391583,-1,-3,-2,-4,-2,13,3,3
116961391583,-7,1,-2,19,-3,-27,-6,-4
116961413324,2,-2,-6,-33,-4,9,3,1
116961413324,-3,-2,0,10,-6,-11,-2,-4
116961414177,0,3,4,36,8,22,2,-4
116961414177,-2,1,0,-32,2,-20,-10,0
116961444102,-4,1,5,34,-2,9,2,-14
116961444102,-3,-4,-15,-65,-19,6,-2,-4
116961444875,-11,-7,-7,-9,-8,-32,-13,-21
116961444875,6,6,4,-15,7,25,8,26
116961450771,3,1,5,-27,9,1,9,8
116961450771,-2,-3,-5,56,0,-2,-2,1
116961451577,-7,-5,-11,-34,-11,19,0,2
116961451577,15,10,6,20,9,-25,-8,-11
116961473251,3,0,23,88,17,-14,-4,2
116961473251,-17,-4,-12,-75,-16,10,4,4
116961474021,8,-3,-3,-30,-3,-17,-1,8
116961474021,1,6,13,34,14,27,6,-3
116961487689,-1,0,-12,-4,-13,-4,-4,3
116961487689,5,-15,4,29,7,-13,-9,-6
116961495855,-2,-4,-4,-12,0,-9,-1,-3
116961495855,-12,-5,-2,0,-8,4,1,-7
116961510781,5,-1,0,-48,0,3,-1,1
116961510781,1,18,7,20,4,0,-2,-5
116961511540,0,1,4,42,1,-1,2,-1
116961511540,0,-4,0,5,0,-2,3,-1
116961533350,-6,0,-13,-68,-14,0,-11,-1
116961533350,3,2,-2,29,5,16,5,-3
116961534048,-2,0,2,44,1,-21,4,0
116961534048,3,2,8,28,10,7,-1,-3
116961547626,-4,-6,-14,-12,-11,8,2,3
116961547626,-1,0,11,22,9,-13,-6,-2
116961555824,2,15,5,2,-1,16,-1,-5
116961555824,-3,-10,-12,41,-11,-2,4,7
116961570708,1,4,9,20,9,-20,-2,2
116961570708,2,-7,-7,38,0,6,-1,-7
116961571540,0,3,10,85,16,6,-1,8
116961571540,-13,0,-8,-41,-13,2,3,-4
116961593334,13,-2,-1,-10,-2,5,0,-3
116961593334,-15,-3,9,54,0,-10,-4,-5
116961594207,7,3,-3,-75,-10,-7,-6,-2
116961594207,5,-1,-6,6,-2,4,-3,-10
116961607633,5,0,-5,22,-3,-7,-6,12
116961607633,-17,-2,-8,-66,-1,2,5,1
116961615807,5,-4,0,7,-3,-12,1,1
116961615807,-10,-2,2,-56,-3,-4,-9,-13
116961630826,7,-3,2,35,10,8,8,1
116961630826,10,3,0,-1,-11,-18,-20,-6
116961631604,2,-2,-2,-25,-1,14,11,7
116961631604,-3,-3,-3,31,2,9,1,5
116961653332,-8,0,-4,-3,-8,-11,-2,-5
116961653332,-1,-17,4,42,4,4,-4,4
116961654165,0,-2,-1,-12,4,3,0,-2
116961654165,7,5,3,25,3,-11,-3,2
116961667661,-17,-1,4,16,7,16,5,-2
116961667661,3,5,-8,-31,-14,-6,3,-6
116961675780,-2,-5,-3,68,-4,-11,-10,3
116961675780,-10,-2,-1,-56,0,4,2,1
116961690817,-8,-19,-3,-16,-5,0,-3,-7
116961690817,-27,-2,-2,-20,-10,-9,1,4
116961691585,3,0,0,59,6,-4,0,-18
116961691585,15,12,1,44,6,3,0,5
116961721490,23,2,4,22,0,1,3,4
116961721490,9,2,-2,-17,6,-2,5,3
116961722340,6,6,-1,-69,-10,4,-6,3
116961722340,-12,-13,-3,-11,-6,-7,-2,-1
116961736462,6,8,-3,16,1,12,-2,-3
116961736462,7,13,2,-12,-4,-5,2,1
116961737323,9,8,3,19,5,-15,-4,-2
116961737323,-10,-2,-2,14,-2,-9,-5,-8
116961750754,-9,-3,-6,-1,-13,-2,-4,-3
116961750754,17,5,6,-4,13,19,2,6
116961751543,-18,-8,-13,-84,-26,-3,0,-2
116961751543,21,-3,0,3,7,-5,-2,-2
116961773365,-12,-3,-4,32,-4,-10,-3,-6
116961773365,-1,-3,-1,15,7,1,-4,-3
116961774209,0,-15,-5,-10,-3,4,-2,-7
116961774209,3,-2,-2,-28,-4,2,5,2
116961796441,-1,4,-7,-60,-5,-2,-1,2
116961796441,-16,-22,-10,-7,-9,-16,-8,-12
116961797219,-7,0,4,-33,2,6,3,4
116961797219,-13,16,-1,90,3,5,-2,-3
116961810797,-8,-5,0,2,1,-9,-1,-1
116961810797,10,-5,1,-2,-1,3,-2,-2
116961811558,-20,-13,-6,11,-2,-1,-3,-3
116961811558,-9,6,5,65,7,-2,1,-2
116961833278,7,-2,-8,-68,-12,-4,-3,-2
116961833278,3,-13,-1,19,2,0,0,3
116961834059,6,2,-4,10,-3,1,1,-1
116961834059,1,1,-1,-52,-11,-4,-1,3
116961856496,-1,13,-1,35,0,-1,-2,-3
116961856496,9,8,2,-43,1,1,0,2
116961857246,-1,-10,-6,-34,-15,-7,-3,0
116961857246,5,0,-2,1,2,1,-3,-1
116961870761,8,-8,2,-18,5,-1,-2,1
116961870761,-25,10,-1,-6,-5,-1,1,-1
116961871545,-7,-21,-1,25,3,0,-2,-6
116961871545,10,-13,3,-19,-2,0,1,11
116961893309,2,0,-2,2,2,0,0,2
116961893309,4,-1,-1,14,-8,-4,-3,-1
116961894087,-10,-1,-1,19,8,1,-3,2
116961894087,-31,-9,-6,-32,-9,0,0,-4
116961924016,5,-1,2,34,8,-1,1,-1
116961924016,7,1,-3,-3,-2,-1,0,0
116961924830,6,13,4,3,6,0,2,1
116961924830,11,9,-2,-61,-14,-3,-2,-5
116961930775,0,-8,1,13,0,-2,-2,-4
116961930775,-6,0,-7,-47,-7,-1,-2,-6
116961931615,6,6,2,22,3,-1,0,3
116961931615,9,-1,0,40,7,1,-3,-4
116961953254,-13,-4,-1,-48,-9,-4,-3,-14
116961953254,8,4,1,4,0,1,2,7
116961954077,-13,19,2,-1,-1,-3,-6,-5
116961954077,-9,-24,-5,3,-6,-1,-3,-2
116961976497,-10,4,2,19,-1,-2,-1,-1
116961976497,3,5,-1,22,5,0,0,-4
116961977257,2,-4,-6,-26,-5,-3,-2,0
116961977257,3,3,3,22,0,1,-1,0
116961990759,-5,-8,-10,-47,-11,-3,-5,-2
116961990759,2,0,3,23,3,-1,0,0
116961991578,4,-21,3,9,0,0,-3,1
116961991578,-7,-5,0,-4,0,-1,1,-4
116962013639,11,0,-3,7,3,-1,-1,-1
116962013639,26,-4,2,20,4,1,0,8
116962014205,-15,-8,-8,-54,-14,-3,0,-8
116962014205,4,8,2,-1,2,-1,0,9
116962036701,-21,-5,0,11,1,0,0,0
116962036701,-10,6,-6,-10,-3,-2,-2,-5
116962037314,3,1,0,19,3,0,-3,-4
116962037314,-2,-5,-3,6,1,-1,-2,-6
116962051031,-6,-13,-2,12,-7,-2,-3,-1
116962051031,-2,15,0,-34,-5,-2,-2,1
116962051656,15,13,3,19,1,1,-1,1
116962051656,-3,-22,-5,-19,-3,-2,-2,-4
116962073517,-11,3,3,21,3,0,1,1
116962073517,-1,0,-1,16,6,1,0,-3
116962074141,7,-1,3,-23,-9,-3,-1,-6
116962074141,-1,16,0,-4,0,1,0,4
116962096576,25,2,-4,-3,-3,-2,-1,1
116962096576,-20,-33,-8,-11,-5,-4,-3,14
116962097539,-16,25,1,21,8,1,-1,-9
116962097539,8,-1,-1,-1,-1,0,0,-2
116962110851,-12,-10,-4,-22,-1,0,-5,-63
116962110851,6,0,0,-3,0,0,2,10
116962111612,18,3,-5,24,2,0,0,11
116962111612,-14,-1,0,-18,-5,-5,-4,-11
116962133468,-10,5,1,11,2,0,1,5
116962133468,1,3,-3,-5,-3,-2,-3,-12
116962134168,-5,-6,-2,9,1,0,0,2
116962134168,-13,-1,-1,-1,-1,0,-3,-10
116962156471,4,15,3,-2,-2,-3,-2,16
116962156471,5,-2,-2,0,-3,-2,1,-1
116962157273,-17,-6,3,6,5,3,0,-1
116962157273,-7,-17,-6,-5,-3,-2,-3,5
116962170184,3,8,1,7,3,1,1,8
116962170184,4,12,2,-3,-1,0,-2,1
116962185839,4,-6,-4,2,1,-3,0,-3
116962185839,6,4,-1,0,-2,0,-1,-6
116962193278,5,-1,3,7,1,1,-2,31
116962193278,-25,-28,-10,-12,-8,-5,-3,-14
116962194079,3,2,0,3,2,-1,-1,-2
116962194079,-6,1,-3,-1,-1,-1,-1,3
116962216494,2,-21,-6,-1,-4,-5,0,2
116962216494,-5,11,1,-3,0,-2,-2,-3
116962217293,-8,-3,-1,2,-1,-1,0,-19
116962217293,-3,-5,-6,-6,-3,-3,0,0
116962230740,-9,-1,0,0,2,1,-1,-4
116962230740,-2,5,3,-2,1,0,1,-5
116962231532,-2,-14,-2,-7,-1,1,0,7
116962231532,-1,-9,2,1,1,0,-2,0
116962253296,-9,-2,-4,-10,-4,-2,-2,-9
116962253296,4,9,0,1,1,-4,1,13
116962254115,2,-19,1,-4,1,0,0,8
116962254115,-4,-24,-10,-2,-4,-3,-3,-6
116962276967,16,6,2,0,0,1,1,8
116962276967,2,12,3,10,-6,-2,-2,-9
116962277769,-3,-3,-2,-9,-3,-2,-1,26
116962277769,6,14,4,2,1,1,3,-9
116962290229,-18,-23,-5,2,-1,-1,0,-21
116962290229,-20,-12,-1,-6,-1,0,2,-3
116962298340,5,6,-2,9,0,-1,-2,-1
116962298340,3,11,1,1,-3,-2,-2,6
116962313288,16,19,-4,-5,-2,-2,-2,-2
116962313288,26,6,2,-2,0,-1,0,3
116962314085,-5,1,0,-4,-2,-1,0,-2
116962314085,0,-3,0,-7,0,-2,-2,-4
116962335502,-23,-27,0,-3,-1,0,-4,1
116962335502,-5,-5,-5,1,-4,-2,-3,-2
116962343358,1,7,2,4,-2,-1,-1,-1
116962343358,10,10,1,-2,-1,-1,-1,12
116962350113,8,17,1,-6,-2,-2,-2,-15
116962350113,-12,-20,-5,5,1,-1,-2,1
116962358259,-4,1,-4,-13,-4,-2,-1,-8
116962358259,18,8,-2,-2,-1,-2,-2,3
116962374026,0,7,4,8,2,0,-1,5
116962374026,0,-14,-5,4,0,0,-1,-9
116962374833,18,2,1,4,-2,-3,2,19
116962374833,-4,1,2,1,0,-1,1,-8
116962396468,-8,0,-4,-4,-2,-1,-3,4
116962396468,11,22,6,-1,0,2,1,-1
116962397227,-6,-7,-2,3,1,0,-4,-5
116962397227,-4,6,-3,-3,-3,-2,-2,-4
116962410188,10,3,0,8,-2,-1,-1,9
116962410188,-4,0,-3,-7,0,0,-2,-5
116962418284,1,9,-2,-1,0,-1,0,-14
116962418284,4,3,-1,-4,-1,1,-1,-3
116962433906,-35,-30,-9,13,-1,-1,2,-21
116962433906,-2,-4,-4,8,2,-2,-2,-2
116962434713,-1,6,-1,2,-4,-1,-2,-1
116962434713,13,1,3,10,1,-2,1,4
116962456467,-13,-1,-4,-22,-3,-1,-1,10
116962456467,7,-15,0,11,2,0,-1,-1
116962457363,-15,-11,-3,0,-3,-2,-2,2
116962457363,-5,7,-2,-3,-1,0,-2,18
116962470177,-9,-6,0,12,-3,-3,-1,5
116962470177,3,-1,-3,-12,-3,-3,0,-2
116962478302,2,36,2,9,0,-1,1,-1
116962478302,-2,-8,0,-4,-3,1,-2,-7
116962493906,10,-4,-5,-10,-2,-2,-3,2
116962493906,5,-7,-1,-5,-4,0,-1,4
116962494749,-24,-9,2,4,1,0,-1,-34
116962494749,14,5,1,-1,0,0,2,2
116962516483,13,14,5,3,-2,-1,0,4
116962516483,-23,-3,-3,-7,1,-1,-1,2
116962517260,-5,-16,-1,-2,1,-1,-2,4
116962517260,-4,-3,-2,-4,1,-3,1,-6
116962538959,3,2,0,1,1,-1,1,-5
116962538959,3,7,-3,-13,-6,-4,-2,-7
116962539789,-3,-8,-3,1,1,-4,0,4
116962539789,-4,-15,-3,4,1,-2,-3,-5
116962554385,8,11,0,-2,-1,0,-2,6
116962554385,-3,-11,-1,-1,-1,1,-4,-3
116962555259,7,-1,-4,-2,1,-1,-2,2
116962555259,16,8,0,-1,-1,-1,1,1
116962576478,13,7,2,1,-1,0,-1,-8
116962576478,-5,3,1,-4,-2,-2,2,-14
116962577301,4,9,1,-3,0,0,1,-3
116962577301,-9,-15,-3,-1,-3,-2,0,27
116962590095,-30,-19,-2,-6,0,-1,0,-3
116962590095,1,2,2,-2,2,0,-3,7
116962598296,8,-5,-2,-2,-1,-1,-3,-4
116962598296,-5,-5,-1,-3,0,0,-1,-10
116962613953,5,4,-3,-5,-2,-4,-4,1
116962613953,-3,6,1,1,-1,-1,0,3
116962614739,-5,-9,-2,-5,-4,-2,-4,-1
116962614739,2,1,0,6,0,-2,-2,-12
116962636459,-10,1,2,15,-1,-1,-2,-11
116962636459,6,2,-3,-13,-3,-1,-2,-4
116962637289,4,2,-5,1,-1,-1,2,0
116962637289,-10,-9,1,0,-4,0,-1,-30
116962650090,13,2,1,7,0,-1,6,34
116962650090,-19,2,0,6,-1,-1,-4,-6
116962658286,-14,-24,-9,-6,-6,-3,-3,-7
116962658286,-4,21,1,-1,0,1,-2,9
116962673240,0,-2,1,-7,-1,0,0,-8
116962673240,1,1,-5,-1,-5,-2,-1,5
116962674020,-1,0,-1,-5,-3,-2,0,-8
116962674020,26,28,3,-2,-3,-3,-3,-2
116962696453,10,6,-1,-7,-1,-2,-1,-1
116962696453,1,2,2,0,1,-2,3,-3
116962697232,23,1,-5,5,2,-3,-2,9
116962697232,-23,-35,-2,-1,-3,0,0,-2
116962718977,2,6,-5,-6,-3,0,0,-4
116962718977,9,0,2,2,-2,-2,-3,5
116962719782,-9,0,-1,-5,-2,-1,-3,-1
116962719782,0,-1,-4,-5,-2,-1,0,5
116962741458,3,-6,-1,0,-4,-2,-2,-3
116962741458,-4,-2,0,1,1,-1,-2,4
116962743117,7,5,2,-2,-1,1,-1,16
116962743117,2,4,-1,-2,1,1,3,-14
116962756446,-5,-9,1,-4,0,0,1,2
116962756446,-1,3,-4,-3,-5,-2,-2,-13
116962758064,-24,-7,-2,-7,-3,-3,-3,0
116962758064,-4,-6,-2,-1,1,-4,-5,3
116962779000,-15,-3,0,1,0,0,0,-2
116962779000,-7,-9,-2,1,3,0,-1,2
116962780545,7,-4,1,-2,0,0,-1,-8
116962780545,-8,-6,-1,-3,-1,-1,-3,7
116962792580,1,18,2,-4,-1,-2,-6,-9
116962792580,-16,-7,-7,-3,-2,-3,-1,0
116962801636,1,-5,-1,10,0,-2,1,-2
116962801636,-11,0,-2,3,0,0,0,-3
116962816464,0,-1,1,0,-2,0,-2,1
116962816464,-11,8,1,-2,-1,1,1,1
116962818074,4,0,1,-6,-1,0,1,0
116962818074,0,1,-1,-1,-2,-2,-2,18
116962838981,16,2,-2,2,0,-1,0,-5
116962838981,-18,-10,-3,-2,-3,-2,-2,-12
116962840644,-1,-6,-2,1,-1,-2,-1,-4
116962840644,1,-6,-3,-2,-2,-1,-1,2
116962852618,6,2,-2,-1,1,4,-1,3
116962852618,13,-9,-2,-1,-2,1,-1,-4
116962861673,-19,6,1,7,0,1,-1,-1
116962861673,4,2,-2,-7,1,-1,1,-1
116962876513,-5,-4,-7,-6,-1,-3,0,-5
116962876513,-5,-6,0,-2,0,0,2,4
116962878041,8,4,2,0,0,-1,-2,1
116962878041,-5,-4,1,-1,-2,-3,-2,-6
116962898939,-11,6,-2,-4,-1,-1,-2,-4
116962898939,10,-3,2,2,2,0,2,-15
116962900626,-8,-12,-1,5,2,2,1,27
116962900626,3,6,-2,-7,1,0,-1,-6
116962913292,7,9,1,-1,0,-1,1,4
116962913292,7,-2,-5,-1,-2,-1,-2,12
116962920187,5,6,4,1,1,-1,-1,-7
116962920187,-5,-13,-2,1,-3,-2,0,-8
116962944012,13,4,1,-1,-3,-3,1,9
116962944012,13,5,3,0,1,-1,0,0
116962945583,6,16,2,-3,-2,0,-2,-2
116962945583,-9,-1,-3,-1,-1,0,-1,3
116962958967,-4,-14,1,1,2,1,0,-11
116962958967,0,-2,-3,-2,-1,-1,-1,1
116962960590,3,-5,-4,-4,-4,-3,1,-3
116962960590,-7,-9,-1,4,-3,0,-4,-32
116962973269,-13,-4,-4,1,-2,-3,-3,-7
116962973269,14,2,0,2,-2,-1,-3,2
116962980210,-9,-15,-8,-5,-1,-2,-2,0
116962980210,1,11,1,2,0,-1,-1,3
116962996460,-1,-22,0,-4,-2,-3,-1,3
116962996460,-14,-8,-2,-3,-3,-3,-4,-4
116962998013,-19,-1,-4,-4,-3,-3,-4,-7
116962998013,8,12,-1,-3,-1,-3,-2,4
116963018955,0,-33,-4,1,1,-2,-2,5
116963018955,-11,-5,-1,0,-1,-2,0,3
116963020586,13,3,3,-1,1,0,2,-4
116963020586,-8,-12,-1,-2,-2,0,2,4
116963033329,-6,4,-4,-1,-3,0,0,0
116963033329,0,-1,2,0,-1,-1,-2,-1
116963040085,4,0,-2,1,-3,-2,-6,13
116963040085,1,-1,-2,-1,0,0,0,-4
116963056468,-7,13,0,-2,-2,-1,-2,-3
116963056468,1,8,1,-3,-4,-2,-1,1
116963058084,-5,9,1,1,1,0,1,1
116963058084,1,-2,-2,-2,0,-1,-3,3
116963078995,-3,-4,-2,0,0,0,-4,-1
116963078995,-1,-3,-3,0,-1,0,1,2
116963080634,6,1,-1,2,0,1,0,-14
116963080634,-6,-5,-5,-4,-2,0,1,12
116963093307,8,2,0,-1,-1,1,0,-3
116963093307,-2,-2,1,0,1,0,0,-1
116963100101,4,-2,-3,-3,-1,-1,-1,-8
116963100101,-4,-1,-4,0,0,-3,-3,-5
116963116498,-9,-4,-5,-4,-4,-2,1,-24
116963116498,11,-8,-1,0,1,1,3,30
116963118115,-6,-18,1,1,-2,1,1,-2
116963118115,12,2,2,0,0,1,-1,1
116963138940,-17,-11,-2,-1,0,-1,-1,5
116963138940,14,-2,-1,0,0,0,-4,-8
116963140568,-4,-1,0,-2,-1,0,-3,-5
116963140568,-7,0,1,0,-2,2,-2,4
116963153361,9,4,-2,-2,-1,-1,-3,4
116963153361,-12,9,1,-1,-1,-1,-1,-10
116963160198,-3,1,-3,-3,-1,-2,-2,10
116963160198,0,3,-1,-2,0,-1,-1,-8
116963176622,12,-7,-4,-2,-1,-1,0,4
116963176622,7,5,-1,-2,0,-1,-2,0
116963178137,6,-5,-3,-1,-2,-1,-1,-3
116963178137,-9,-6,2,5,-1,-1,-2,5
116963199037,17,16,0,-7,-1,-1,1,-10
116963199037,14,3,-1,-2,-2,-1,-2,-3
116963200619,-4,-14,-3,-1,0,-1,-2,-6
116963200619,-10,-28,-3,-4,-2,-1,1,-1
116963212726,-1,1,0,-1,-2,1,-1,10
116963212726,-8,-5,0,-2,-2,-2,-4,-28
116963221690,32,14,-2,-1,-1,-1,2,9
116963221690,-3,6,0,-1,-2,1,0,6
116963236966,-11,2,-1,4,0,0,-1,-1
116963236966,-12,-14,-8,-1,-1,-2,-1,-6
116963238512,1,5,4,0,-2,-3,-3,0
116963238512,-3,2,-1,-2,1,-2,-2,3
116963259222,-3,4,2,-1,1,0,1,-12
116963259222,-2,10,-1,1,-2,1,0,8
116963260644,-7,2,1,1,-2,-1,0,-7
116963260644,6,-1,-3,-3,-1,-2,-1,3
116963272639,-4,-2,-1,1,-1,-3,-3,1
116963272639,-1,-6,0,-2,-2,-2,-2,3
116963281681,-6,-17,-2,0,-2,-2,-1,-9
116963281681,7,2,1,-1,-1,-1,0,-5
116963296480,-1,3,-1,-1,-2,-1,-3,4
116963296480,10,-13,-1,-3,0,0,2,-2
116963298143,-3,3,3,-2,-1,2,1,11
116963298143,7,7,-2,-2,-1,-3,-3,-7
116963318973,-45,-15,-3,-1,0,-4,0,-7
116963318973,26,30,2,0,0,0,-1,47
116963320564,-3,-10,-3,1,0,-2,-3,-11
116963320564,-2,-2,-2,-2,-2,-1,1,-5
116963332616,10,12,1,-3,-2,0,-3,1
116963332616,-15,-16,-4,-2,-1,-2,-2,-9
116963341668,-4,-2,-4,-2,-1,-3,0,0
116963341668,14,8,1,-2,-3,-1,-2,4
116963356693,6,-6,-1,1,0,-2,-2,3
116963356693,-14,-1,-4,-1,0,-3,1,-7
116963358335,20,9,1,-2,2,-3,0,0
116963358335,-9,-18,-7,-3,-2,-1,0,-11
116963377998,5,21,5,0,-1,2,-2,1
116963377998,-7,-13,-3,0,-3,-1,-3,-20
116963386611,-59,-10,-3,-3,-3,-1,-3,-2
116963386611,12,7,2,0,0,-1,-3,0
116963392659,-3,-4,-1,3,0,0,0,-6
116963392659,11,9,-1,-4,0,-1,1,4
116963401583,14,-1,-1,-4,-2,-3,1,-4
116963401583,-5,2,-2,-1,-2,-2,1,21
116963416497,-7,7,0,3,-1,-2,-2,4
116963416497,-10,-39,-3,0,0,-2,-3,-10
116963418159,-4,2,-3,-1,-2,0,0,-1
116963418159,-4,-3,-3,-3,-3,-3,-1,-8
116963438975,15,-3,1,-2,-1,-2,-1,1
116963438975,-20,-13,-6,-4,-4,-3,-2,-2
116963440573,-18,7,-1,-2,1,0,-3,-10
116963440573,-3,-21,-6,2,-4,-2,-4,-7
116963452583,-7,-7,-4,-3,-2,-3,1,0
116963452583,10,19,-2,-4,-1,-2,1,-3
116963461562,6,-1,0,-2,-1,0,-2,-2
116963461562,-7,6,2,0,0,0,2,-10
116963476541,-12,-10,-1,0,-3,-2,-1,-2
116963476541,-5,0,1,0,0,1,0,31
116963478082,6,-7,-1,-1,-1,-2,-3,5
116963478082,-14,18,1,0,0,0,-1,-4
116963499054,-8,-27,-1,-2,-1,-1,1,-7
116963499054,-9,5,1,3,0,-2,-2,-10
116963500646,-6,-4,-3,-1,-3,-2,0,-2
116963500646,4,2,-1,1,3,0,-1,2
116963512740,2,-2,-5,-12,0,-2,-7,-14
116963512740,-1,5,-1,0,-2,-1,-1,-8
116963521605,8,4,-1,-1,-2,-1,-1,3
116963521605,-14,-7,-2,0,-2,0,-1,-7
116963536486,26,9,0,6,-1,-1,0,10
116963536486,2,3,-1,-2,-2,-2,-4,-4
116963538092,3,-8,0,-2,-2,-1,-1,-1
116963538092,4,-2,-2,-5,-2,-2,0,4
116963559026,-1,3,-2,0,0,-1,2,1
116963559026,8,2,0,-3,-2,-1,4,6
116963560602,-3,-6,-3,-2,-2,-3,2,-1
116963560602,-9,-7,1,0,-1,-3,-1,-4
116963572762,3,5,-1,-3,-1,-1,-3,21
116963572762,15,2,3,4,1,-2,3,11
116963589232,-11,8,-3,-3,-1,-1,-4,-3
116963589232,5,-13,1,0,-1,-1,-2,0
116963596664,-8,5,-3,3,-2,-1,-2,1
116963596664,1,-5,-1,-3,0,0,-1,-5
116963598222,-9,-6,-2,-3,-1,-1,-3,-13
116963598222,6,8,-2,-2,1,0,-2,4
116963619026,3,-6,-2,0,0,-1,0,-8
116963619026,-8,1,-2,-2,-2,0,0,-10
116963620541,10,4,-1,-1,-1,0,-1,8
116963620541,1,-2,-1,0,-1,-2,-1,-9
116963641618,19,14,1,-3,-1,1,4,0
116963641618,-16,24,1,2,0,1,-2,12
116963643202,1,0,-3,0,-2,-4,1,-8
116963643202,-3,1,-3,-2,0,0,-1,-1
116963656466,-4,12,2,1,0,-2,-4,0
116963656466,-3,-2,-1,-1,0,-1,0,-2
116963662839,-13,-1,-6,-4,-2,-1,-3,-1
116963662839,-9,0,-1,-4,-2,-4,-4,-1
116963679195,3,2,-4,-5,-2,-2,1,-3
116963679195,-4,-5,-1,-2,-2,-2,-4,-12
116963680648,4,7,0,-1,-1,0,0,1
116963680648,2,8,0,6,-1,-2,1,-12
116963701488,-32,-16,0,-4,-3,-2,0,24
116963701488,-3,-4,-3,-1,0,-1,-3,-7
116963703157,0,-6,0,-2,0,-1,2,-14
116963703157,-8,-22,-1,0,-2,-1,2,5
116963716592,20,-1,1,0,-1,0,1,-9
116963716592,8,1,-1,0,-1,-2,-2,-1
116963718253,0,10,0,0,0,0,0,8
116963718253,3,-3,-1,-1,-1,1,-3,-1
116963739084,-2,-3,-2,0,-1,-2,-3,-10
116963739084,-2,-14,-2,-1,-1,-1,-2,-2
116963740640,6,5,-2,-1,-2,-3,0,-2
116963740640,8,-3,-1,1,-2,-2,1,1
116963761524,-2,-4,0,-1,0,0,-2,0
116963761524,11,-2,0,-5,-3,-1,-4,-1
116963763176,3,6,4,2,2,1,-3,3
116963763176,11,7,0,-4,-3,0,0,0
116963775960,-1,-2,0,3,0,-3,-1,-4
116963775960,4,5,-1,-3,-3,-2,-4,0
116963782786,15,-22,-2,-3,-3,0,2,6
116963782786,-7,-1,1,1,2,1,1,0
116963799090,-4,-1,1,-2,-2,2,-3,-28
116963799090,4,6,0,-3,-1,-1,2,5
116963800677,-7,-2,1,1,-1,-1,-2,1
116963800677,-1,11,-5,-5,-2,-4,-1,-1
116963821503,9,7,0,0,0,-4,-1,-1
116963821503,-11,2,-2,-3,-1,-2,1,-6
116963823242,-14,-33,-4,0,-1,0,-2,-1
116963823242,-8,-5,-4,-1,-1,-2,-3,-6
