timestamp,emg1,emg2,emg3,emg4,emg5,emg6,emg7,emg8
88903675493,-20,-1,-1,-1,-1,-2,4,-2
88903675493,18,3,2,0,0,1,0,-2
88903684959,8,0,-1,-2,0,0,-1,2
88903684959,-24,-6,-6,-3,-2,-2,-6,-17
88903685831,1,2,6,1,-1,2,-1,5
88903685831,-5,0,-1,-2,-1,-1,-1,2
88903686559,-1,-1,-3,-2,0,-2,-3,-5
88903686559,4,-1,-3,0,0,0,1,4
88903690580,5,-2,-1,0,-1,0,-3,-2
88903690580,-6,-4,-2,-1,1,-2,-2,-5
88903697494,1,1,0,-1,-1,-3,-1,0
88903697494,-2,-6,-3,-4,-2,-1,0,1
88903708927,0,-2,-2,0,-1,-1,-5,-3
88903708927,1,1,-5,0,-2,-2,2,1
88903721072,-4,-2,-2,-3,-3,-1,-2,-2
88903721072,-5,-1,0,-2,1,-1,-2,0
88903727411,9,1,0,-1,0,0,-1,-1
88903727411,-6,-4,1,2,-1,-2,-4,-1
88903742432,-1,-1,0,-11,-2,1,0,3
88903742432,-4,-2,-1,-1,-2,-3,-2,2
88903753927,7,-5,-4,-1,-1,-2,-2,0
88903753927,-6,3,6,3,-1,-2,1,1
88903766087,-5,-3,-4,2,-3,-3,-6,-5
88903766087,8,2,2,1,1,0,0,2
88903805736,-3,-3,-3,-1,-2,-2,-2,-8
88903805736,-2,1,1,0,-2,-1,-2,-3
88903807441,24,0,-8,-3,-2,-1,0,2
88903807441,4,-1,1,-3,1,-1,-2,2
88903810450,-5,-4,-3,-2,0,-2,0,-1
88903810450,2,-2,4,0,-1,0,-2,3
88903811298,-3,-2,0,-1,-1,0,-1,0
88903811298,1,-1,-5,0,-1,-2,-2,-5
88903817329,6,1,0,-2,-2,0,3,5
88903817329,-3,-1,0,-2,-1,-1,-1,-1
88903826299,-8,-2,1,1,1,-2,-3,-4
88903826299,-2,-3,-4,-1,-2,-2,2,8
88903832332,16,5,5,3,2,1,0,3
88903832332,-4,-2,-6,-3,0,0,-2,-2
88903847322,-5,-2,-3,-4,-2,-1,-1,0
88903847322,-2,-1,3,0,-1,-1,1,-6
88903854774,-3,-1,-1,-1,-2,-2,-2,-2
88903854774,-11,-2,-3,1,-1,0,-1,-6
88903878200,9,3,2,-1,-2,-1,1,6
88903878200,6,0,-1,-1,-1,-3,-8,-2
88903878780,-6,-3,-5,-1,-1,0,-4,-3
88903878780,1,-1,1,-1,-1,-1,2,4
88903893231,-12,-2,1,1,1,-2,4,-2
88903893231,-5,1,-1,1,-1,0,-4,-7
88903893838,-4,1,-2,-3,-3,-1,1,-1
88903893838,6,1,0,0,-2,-3,-2,-4
88903915727,-4,-2,2,-1,-2,0,-2,-5
88903915727,10,1,-3,-2,0,0,0,-3
88903916342,-9,-4,1,0,2,1,-1,2
88903916342,0,-4,-3,-3,0,-1,0,-7
88903938179,29,3,-3,-1,0,-1,-1,-5
88903938179,-8,1,0,0,0,1,0,-1
88903938757,-20,-5,-4,-3,-4,-2,-4,-16
88903938757,-2,1,6,2,-1,-1,-2,3
88903953143,16,0,-8,-4,-2,0,0,4
88903953143,-5,-2,0,-2,-2,-1,4,-12
88903953797,-6,-2,-4,-2,-1,-2,-13,-8
88903953797,-2,-1,-4,0,-1,-1,1,2
88903975670,-13,-1,3,0,-1,-5,-5,-1
88903975670,-15,-3,-2,-3,-4,-3,-2,1
88903976347,8,-3,-4,-2,-2,0,10,9
88903976347,-2,0,0,-1,-2,-2,-5,-9
88903998210,-12,-4,-3,-2,-2,0,-4,5
88903998210,-8,-4,-7,-2,0,1,6,-2
88903998797,0,3,4,-1,0,0,-3,-4
88903998797,13,-3,-2,-3,-2,0,-2,5
88904013012,-10,-3,-13,-6,-1,-1,1,-5
88904013012,-4,-2,2,1,-1,-1,-3,-1
88904013986,0,0,-2,4,1,-1,-1,0
88904013986,-7,1,-1,-2,1,-1,2,0
88904035536,23,-3,-2,2,-1,-2,-5,-12
88904035536,-1,-5,-4,-4,-2,-1,-5,5
88904036370,-3,0,2,1,0,1,3,-5
88904036370,0,-1,-5,-1,-2,-3,-3,-7
88904058047,2,0,5,0,0,-1,-2,6
88904058047,-1,-1,-1,1,-1,-2,-1,-1
88904058800,-2,-1,-3,-9,-1,-1,2,1
88904058800,2,-2,-3,-1,0,-1,-2,1
88904073174,-14,-2,1,-2,-3,-1,2,1
88904073174,6,0,2,-1,-2,-1,-5,2
88904073836,-4,-1,-1,1,-2,0,-1,4
88904073836,-4,-1,-2,-1,-1,-1,1,0
88904095677,2,-1,3,0,-1,-2,-4,6
88904095677,1,-2,-2,0,-1,0,0,-2
88904096253,5,-2,-2,-1,-2,-3,-2,0
88904096253,-2,-1,0,-1,-1,0,-1,-3
88904118024,-10,0,2,1,0,-3,0,-7
88904118024,-3,1,1,-2,-2,-2,-2,1
88904118840,16,0,1,1,0,0,-1,4
88904118840,-5,0,-5,-3,-2,0,0,1
88904133009,-12,1,2,-1,-1,2,-1,-3
88904133009,2,-3,0,-1,1,-2,-1,0
88904133805,-5,-4,-5,-3,-1,-3,0,-1
88904133805,-24,-3,2,-2,-3,-1,-1,-5
88904155611,-7,-4,-2,-1,-2,-1,0,-1
88904155611,-3,-2,2,0,0,0,-1,-1
88904156477,-3,-1,-6,-2,-1,-1,-4,-3
88904156477,24,1,0,0,-1,-1,-1,0
88904178121,-43,-4,1,-1,-1,0,0,0
88904178121,0,0,1,0,0,-3,0,-3
88904178856,-4,-1,1,1,-1,-1,1,-4
88904178856,21,5,0,-1,-1,-3,-3,12
88904192915,-5,-1,0,0,2,1,-1,-6
88904192915,14,0,-2,1,1,0,-1,8
88904193691,8,1,2,1,-1,-2,-1,2
88904193691,-8,-3,-1,-2,-2,-1,-4,-6
88904215504,0,-1,-2,1,-1,-1,-1,-5
88904215504,-3,-1,-3,-3,-3,0,2,-1
88904216347,-1,-3,-2,-1,0,-2,-1,-1
88904216347,-8,-2,1,0,0,0,1,0
88904238182,14,-2,-4,-2,-2,-2,1,10
88904238182,-6,0,-4,-7,-2,-2,-9,-6
88904238856,-13,-5,-1,0,-2,-1,4,-9
88904238856,-3,-4,-6,-1,0,0,0,2
88904252387,6,0,0,1,0,0,0,-3
88904252387,-8,-1,6,1,-2,0,1,-3
88904260548,6,-1,-5,-3,-2,-2,-4,4
88904260548,-8,-2,-4,-3,-2,-2,-1,-5
88904275438,31,0,-4,-1,-2,-1,-1,4
88904275438,-6,0,0,0,0,-2,1,5
88904276316,2,4,6,0,0,-1,-3,2
88904276316,-7,-2,-2,0,-1,0,2,-1
88904298156,4,-1,-4,-3,-1,-2,-4,-6
88904298156,4,1,-2,0,-2,-2,-2,-2
88904298787,-16,-4,-2,-4,-3,-3,-3,-10
88904298787,8,1,1,1,-1,0,-2,-1
88904312439,-10,-3,0,2,-1,1,1,-5
88904312439,-1,-1,-3,-1,0,-2,-5,-7
88904320265,0,0,-2,2,-1,0,-2,0
88904320265,-12,0,11,0,-1,0,2,1
88904335725,8,3,2,0,-1,-2,-2,1
88904335725,6,-2,-12,0,-1,0,0,1
88904336396,4,-2,-3,-4,-1,-2,-3,5
88904336396,-1,1,3,1,1,1,3,-1
88904358057,-9,0,4,1,1,0,1,0
88904358057,10,0,2,1,-1,0,-2,-4
88904358849,2,0,-12,-3,-1,0,2,-3
88904358849,0,-3,0,-1,-1,-2,-3,-1
88904372549,-10,-5,-4,-4,-1,0,0,0
88904372549,0,1,0,-1,0,-3,-8,-7
88904380703,-5,1,5,2,0,2,-2,1
88904380703,16,1,-3,-5,-1,-4,-5,-1
88904403887,-6,1,-1,3,-1,1,2,0
88904403887,0,-2,0,0,-3,-1,0,1
88904404514,-5,2,6,2,-1,-2,0,-1
88904404514,16,1,-5,2,0,-1,0,2
88904418132,-2,-1,-2,-2,-2,-1,-1,-3
88904418132,-7,-3,1,-2,0,-2,0,2
88904418767,-5,-2,-2,-2,-1,-1,0,-1
88904418767,-1,0,-2,-2,-1,-2,-2,-1
88904432508,2,-3,-5,-1,-3,1,-3,0
88904432508,-4,-2,-3,-5,-1,1,1,7
88904440791,-22,-4,-2,-8,0,-2,-4,-29
88904440791,-4,0,3,0,1,0,-1,-6
88904455623,7,-1,4,2,-1,-2,-2,-1
88904455623,27,2,0,2,-1,0,0,5
88904456409,-3,-1,-7,-1,-2,-1,0,9
88904456409,-11,-4,0,-2,-2,-3,-1,-3
88904478200,-8,-1,-2,-4,-2,-3,-2,-4
88904478200,4,-3,0,-1,-3,0,1,-1
88904478767,2,-7,1,0,-1,0,-2,2
88904478767,1,2,-4,-3,-1,-1,4,3
88904492422,1,-1,-3,0,1,-2,-6,-2
88904492422,-11,2,3,0,-1,0,0,-3
88904500795,15,3,1,0,-1,1,0,4
88904500795,-14,-3,-3,0,-2,-1,-2,1
88904515582,-1,-1,0,-5,-1,0,2,-2
88904515582,-11,0,-1,-1,-1,0,-1,-4
88904516301,4,0,-1,0,-1,0,-1,2
88904516301,0,-2,-4,-1,0,0,-4,4
88904538029,1,4,0,-1,0,0,-3,-5
88904538029,-5,-3,0,-1,-1,-1,3,-2
88904538846,2,-1,-4,-1,-2,-2,1,2
88904538846,-8,-3,0,1,-1,-1,-1,-2
88904552562,25,-1,3,-1,-2,-2,0,16
88904552562,6,2,-4,-1,0,-1,-2,-9
88904560644,2,0,3,1,-2,-2,-2,1
88904560644,0,-1,-2,2,-2,-3,-4,1
88904575669,-10,-4,-5,-9,-2,-1,2,-6
88904575669,-7,-1,-1,-1,0,-1,-1,-1
88904576300,1,0,0,-1,0,-1,-3,3
88904576300,4,-1,-1,1,-2,0,0,-6
88904598049,-8,-2,-6,0,-3,-1,4,-1
88904598049,7,-2,-3,-3,-2,-3,-3,7
88904598962,-15,-1,2,-2,0,0,0,-1
88904598962,-2,-3,-3,-2,-2,0,-3,1
88904612388,-6,-3,1,4,1,-1,-1,-7
88904612388,-12,1,1,2,-1,-2,-4,2
88904620584,20,1,-1,-4,0,-1,-2,7
88904620584,-6,-3,-1,-3,0,-1,-3,-11
88904635680,1,2,-2,-1,0,-1,-3,8
88904635680,-10,-4,-2,2,-2,0,4,-6
88904636371,0,0,2,2,0,1,-4,-4
88904636371,11,1,0,-2,-2,-2,-2,3
88904658218,-6,-4,-2,-2,-3,-2,0,-2
88904658218,20,0,-5,-4,-1,0,1,-1
88904658774,-25,-1,0,-1,-2,-1,2,-3
88904658774,7,-1,0,-1,-1,-2,2,-3
88904681335,-8,0,1,1,-1,-2,-2,-2
88904681335,13,-1,-3,-3,-2,-1,-2,6
88904682035,7,0,0,0,0,-1,2,0
88904682035,-6,0,-2,0,-2,1,-6,-3
88904695694,-7,-1,0,-2,-2,-2,-3,-2
88904695694,-14,0,8,2,1,-1,-2,-5
88904696396,0,-1,-2,-2,-2,-4,-1,-2
88904696396,-6,-5,-8,-5,-3,-2,-2,5
88904718155,-5,0,0,1,0,-2,-2,-8
88904718155,-18,-5,-6,-4,-1,0,-7,-19
88904718796,4,-3,3,2,-2,0,-1,1
88904718796,13,2,-1,2,-1,0,-2,1
88904741370,-4,-2,-8,-9,0,-1,1,-2
88904741370,-6,-3,1,1,-3,-2,-2,2
88904742017,-4,-1,-4,0,1,1,3,-4
88904742017,12,0,0,-2,1,0,0,-2
88904755610,-15,-1,2,2,-1,0,4,2
88904755610,-3,-2,-1,-1,-3,0,-3,3
88904756352,-2,-3,-3,-2,-1,-3,-1,-3
88904756352,4,-2,-2,0,-2,0,0,4
88904777336,5,1,0,1,0,-1,-5,-5
88904777336,-5,0,-2,-2,0,0,-1,-9
88904786295,0,-1,-1,-1,-1,-2,-4,-2
88904786295,-12,0,3,-1,2,-1,2,-1
88904801139,-1,1,-1,-1,-3,-1,-3,-2
88904801139,-1,2,-2,-1,0,-1,-3,-7
88904802803,18,-1,-3,-4,-3,0,1,8
88904802803,-10,0,2,-2,-2,-3,-3,-15
88904823728,3,0,-1,1,0,2,0,0
88904823728,-11,1,0,3,-1,-2,0,3
88904825307,-4,-3,-7,-22,-5,-3,0,2
88904825307,15,1,2,1,-1,-2,1,12
88904837408,0,-2,-3,0,1,-3,-1,3
88904837408,-7,-4,-2,-4,-2,0,2,3
88904846333,-4,2,7,7,0,1,-2,-6
88904846333,-9,-2,-13,-6,-2,-1,-3,3
88904861177,5,-1,-5,-4,-3,-2,-2,0
88904861177,-1,-1,6,2,1,-2,1,-1
88904862826,-2,-5,-7,-5,-3,-1,-3,8
88904862826,3,2,5,2,1,-1,0,-1
88904883719,0,-4,-1,0,0,0,-1,0
88904883719,4,-2,-4,-1,-2,-2,0,-3
88904885342,24,2,2,3,0,-1,0,-4
88904885342,-14,-1,-1,-2,1,0,-1,-3
88904897351,-1,-3,0,-2,-2,0,-1,-2
88904897351,-3,-1,0,-1,-3,-2,-4,2
88904906327,-3,-3,-1,2,0,-2,2,-2
88904906327,-6,1,-2,1,-2,0,-3,1
88904921149,6,3,4,1,-3,-5,-4,-8
88904921149,10,-3,-2,-2,-2,-2,0,3
88904922768,-11,-3,-3,-4,1,-2,-3,-8
88904922768,-8,-2,-1,0,-3,-1,-3,-11
88904944086,-13,-3,0,0,1,0,2,2
88904944086,0,1,-1,0,0,-2,-4,-3
88904945724,7,2,-4,5,0,0,0,11
88904945724,-11,-5,2,-2,-1,-1,2,-4
88904957541,7,0,-1,-3,-2,-1,-2,1
88904957541,2,2,1,0,-1,0,2,4
88904966412,-5,-1,-1,1,-2,-1,-3,3
88904966412,7,-3,-9,-5,-1,-1,0,0
88904981402,-2,-2,-1,0,-3,-2,-3,-2
88904981402,-14,-1,-1,-3,0,0,-1,3
88904982840,10,2,0,0,1,-1,-1,1
88904982840,5,-1,2,-1,-2,0,-1,0
88905003752,-9,-3,-3,-1,-1,-3,-4,-11
88905003752,-8,-1,-3,-2,-1,-1,0,0
88905005366,-1,-1,3,1,-1,-3,-3,-4
88905005366,0,-2,-1,2,-2,-2,0,3
88905017399,6,0,2,1,-2,1,0,6
88905017399,7,-3,-3,-2,1,-2,-4,7
88905026338,-12,-1,-2,0,-1,-2,1,-5
88905026338,2,0,0,-1,0,-2,-3,-3
88905041361,-11,-3,-3,-2,-2,1,0,-2
88905041361,15,-1,-2,-1,-3,-1,-2,1
88905042769,-5,-4,-2,-2,-3,1,-3,-7
88905042769,-7,-4,0,-1,0,1,-4,-1
88905063926,3,-1,-1,-1,-1,-4,-2,3
88905063926,6,2,-1,-1,-2,-1,5,-1
88905065348,-2,-6,-2,-1,0,0,-6,-3
88905065348,11,-3,-2,-1,-4,-6,4,-5
88905077492,16,2,2,0,-2,-4,0,-1
88905077492,-14,-4,-2,-2,-3,-2,-7,-5
88905086329,23,-1,-2,-4,-5,-1,-21,1
88905086329,3,2,-1,0,1,-2,3,-1
88905101353,-13,-5,2,2,0,-2,0,-1
88905101353,-15,-1,-4,7,0,0,9,6
88905102770,21,1,-6,-18,-4,-1,-3,-12
88905102770,-12,-2,-1,-1,-1,2,-4,0
88905123988,4,-2,-2,-1,0,0,2,5
88905123988,-7,-1,3,3,-2,-3,-4,-5
88905125408,-17,3,4,8,4,0,5,0
88905125408,6,-1,-1,1,3,1,-1,7
88905137579,-11,-6,-15,-12,1,2,1,-4
88905137579,1,-2,3,-2,-5,-1,-4,-5
88905146386,-9,0,9,-1,-9,-9,0,1
88905146386,1,4,-27,9,4,-3,0,0
88905160755,-5,-8,-4,-17,1,3,-4,-2
88905160755,6,1,17,2,4,5,2,4
88905167531,-7,-2,7,0,-2,-2,5,3
88905167531,2,2,7,9,-6,0,-6,-2
88905183885,-15,-6,-9,-4,-11,-6,-7,-8
88905183885,8,-2,-3,-10,-5,-4,9,1
88905185400,-10,4,9,15,18,0,12,2
88905185400,1,0,9,2,6,7,-4,0
88905206255,11,5,13,17,1,2,1,0
88905206255,-3,-4,-7,-25,-17,-8,-1,-3
88905207822,-7,-2,-12,-12,-8,4,-5,-4
88905207822,-8,-3,-3,-14,-3,-23,-6,0
88905220741,9,4,5,4,0,7,5,8
88905220741,0,-3,3,22,29,31,0,4
88905227460,-17,3,-4,15,10,9,5,-7
88905227460,0,-12,-22,-12,-23,-15,-5,-8
88905243890,2,5,6,-8,-27,-50,-12,-3
88905243890,5,1,-4,8,-27,-7,-4,-6
88905245360,0,3,3,2,70,54,4,1
88905245360,-6,-1,12,-6,13,26,10,6
88905273879,-6,0,3,6,-10,-7,0,-3
88905273879,-5,-4,-15,-21,-29,-37,-18,-10
88905275370,1,-2,0,2,-30,-27,-7,3
88905275370,-7,0,1,-2,6,12,13,-5
88905280806,10,-1,-7,-6,20,21,9,11
88905280806,2,2,6,7,7,0,-5,3
88905287329,-5,-7,-7,-6,-18,-13,-1,-4
88905287329,0,1,12,-13,-14,-26,-17,-3
88905303612,-1,0,-7,-3,-7,-6,1,-3
88905303612,0,-1,-2,2,14,40,27,7
88905305257,-2,-3,-3,4,30,17,-5,-5
88905305257,-2,-1,15,10,-3,-4,-5,2
88905326396,-9,-2,-15,-4,-11,-17,-1,-5
88905326396,-6,-1,19,-1,-22,-42,-20,3
88905327834,-5,-8,-22,-39,-35,-15,-1,-1
88905327834,5,4,0,10,39,51,11,-1
88905340723,2,0,-5,19,39,33,4,-2
88905340723,1,0,-7,-10,0,-8,4,-2
88905347564,-2,2,10,-1,-36,-44,-10,-3
88905347564,-38,-6,-4,-20,-38,-27,-14,-7
88905363778,4,-1,-6,-9,29,40,14,2
88905363778,1,1,0,10,31,16,1,0
88905365365,-2,1,2,3,-3,-5,-5,3
88905365365,16,2,4,-3,-15,-28,6,20
88905386200,5,-1,-17,2,-42,-30,-15,-3
88905386200,-5,-3,-24,-3,13,7,3,-4
88905387781,5,-1,9,20,25,30,2,-4
88905387781,5,-5,-21,-31,2,14,2,6
88905400587,-3,1,15,3,2,-1,-2,0
88905400587,3,2,15,6,-6,-19,-3,-8
88905407498,4,-1,4,-2,-25,-22,-5,12
88905407498,-2,-5,-34,-3,-3,-2,0,-12
88905423851,-3,0,14,-12,4,6,-5,-2
88905423851,3,1,-3,26,7,18,-2,-8
88905425297,-31,-2,0,4,38,41,3,9
88905425297,13,4,54,19,1,-14,5,12
88905446129,-17,-11,-59,-22,-34,-32,-15,-11
88905446129,-1,0,16,4,-18,-21,0,8
88905447755,2,-3,-7,25,0,2,0,-6
88905447755,7,0,-10,-5,8,11,-5,-8
88905460027,-35,-4,18,1,-1,0,11,7
88905460027,4,2,-10,-9,1,-2,-7,1
88905468824,-4,-2,-15,-27,-13,-9,-1,-20
88905468824,3,-1,-1,10,7,-1,-8,-8
88905483673,15,1,12,8,6,12,6,2
88905483673,-5,-6,-10,-10,-14,-13,-8,-7
88905485357,8,2,13,1,-10,-16,0,13
88905485357,-19,-4,-27,-26,7,34,3,-32
88905506290,23,15,30,4,29,22,8,14
88905506290,-13,-13,-52,12,3,-1,-1,-1
88905507784,-4,-7,0,-10,-20,-25,-19,-10
88905507784,34,9,15,29,-15,-17,0,12
88905519997,-19,6,16,-71,-7,-2,22,-2
88905519997,1,5,46,56,15,8,-29,-2
88905528872,-17,-27,-59,-87,-22,-14,-2,-13
88905528872,-10,1,19,27,3,4,-4,-3
88905543641,-1,2,-4,15,5,1,-3,-10
88905543641,21,9,18,16,7,3,12,28
88905549976,-10,9,9,22,3,9,11,-34
88905549976,-30,-7,-9,4,0,-8,-11,7
88905566375,16,-1,-12,-25,-1,0,-2,-4
88905566375,-6,-8,-6,-38,-5,1,2,-9
88905567788,10,4,11,25,1,4,2,12
88905567788,-8,-2,-2,-18,0,3,6,-10
88905580058,32,3,12,28,-2,-16,-17,18
88905580058,-15,-4,-60,-23,-4,1,5,-5
88905588911,3,-4,3,10,-5,3,7,9
88905588911,4,-6,5,20,-4,-10,-1,1
88905603735,-16,-4,7,11,1,5,-15,-9
88905603735,33,6,49,36,7,4,12,12
88905605370,29,17,3,13,9,3,23,31
88905605370,-19,-24,-53,-44,-19,-21,-16,-13
88905626151,-9,-6,14,20,2,5,-3,2
88905626151,-16,-10,2,-29,-1,3,-3,-9
88905627740,4,6,49,67,8,2,-5,4
88905627740,0,13,31,-9,5,-2,9,5
88905639886,18,-6,-50,-2,-9,-3,-5,4
88905639886,-1,2,9,-45,-5,-2,-7,-8
88905648818,1,-6,-19,-12,-2,1,-2,-1
88905648818,6,9,19,12,3,8,13,6
88905663636,12,0,6,24,8,-2,-19,-7
88905663636,16,12,-32,-14,4,5,22,26
88905665310,-5,-4,46,8,-12,-11,-37,6
88905665310,-8,-3,-19,8,0,0,8,-28
88905686163,-7,-2,6,-13,-9,-8,-5,-8
88905686163,0,5,37,31,10,12,-9,1
88905687770,14,2,-84,-27,-2,-7,21,-3
88905687770,-2,-9,19,2,2,4,3,4
88905699867,-14,-8,2,18,-3,-3,3,-5
88905699867,-3,-4,-21,-26,-14,-11,-22,-11
88905708852,-9,1,5,-1,5,0,-8,-8
88905708852,11,1,33,1,2,2,-3,8
88905723582,-6,-2,1,10,-7,0,9,4
88905723582,-17,-14,-12,-14,-7,-2,0,-18
88905725290,7,1,-6,-5,-6,-1,3,0
88905725290,-7,6,-10,-36,9,10,-3,12
88905746381,-3,8,23,-5,-1,0,12,-21
88905746381,6,-6,-27,-9,-4,-3,0,11
88905747968,-11,0,5,-11,-5,-3,-7,-7
88905747968,13,10,11,16,10,1,-2,10
88905759867,-10,4,-4,13,5,2,3,5
88905759867,-37,-6,7,2,-8,-1,2,-20
88905768824,5,-16,-47,-10,2,2,-17,-2
88905768824,-35,-4,-47,-20,-16,-10,0,1
88905783970,13,8,25,2,6,-4,-3,4
88905783970,-4,5,27,20,5,5,11,5
88905785365,-24,-9,-9,-29,-4,-3,-11,-19
88905785365,20,-8,27,13,-4,2,3,26
88905806202,12,-11,5,-10,-7,-9,-26,4
88905806202,11,13,14,54,2,-1,-10,-7
88905807762,5,6,-12,-15,9,6,14,-4
88905807762,-8,-1,13,37,-3,-3,-10,-12
88905819817,-18,-6,-37,-3,3,6,9,-2
88905819817,29,11,30,2,1,-5,-7,-2
88905828809,5,9,16,7,3,2,3,16
88905828809,40,7,-19,-9,0,-1,15,4
88905843860,-21,-10,-35,-4,-3,-3,-8,-3
88905843860,-1,-4,-7,-10,3,2,8,-17
88905845257,-7,-1,19,0,1,4,5,-2
88905845257,-7,-10,13,4,0,-2,15,17
88905866384,-11,12,37,5,2,6,-18,-11
88905866384,-8,3,-20,-19,1,0,9,8
88905867809,-39,-16,-21,-25,-15,-12,-4,-1
88905867809,13,20,60,15,1,-4,-13,-12
88905880074,0,-15,12,4,-3,-2,4,6
88905880074,-8,-6,12,5,3,0,3,-2
88905888772,-1,2,-2,16,4,6,1,4
88905888772,1,6,1,-11,-1,-4,-6,-11
88905903669,5,0,-5,-4,-2,-4,5,-4
88905903669,-10,-5,-11,-20,-8,-2,-6,-6
88905905350,21,3,22,22,2,0,9,5
88905905350,-3,-5,-35,-11,-5,-2,-11,-6
88905926258,10,4,18,0,-2,-2,5,-2
88905926258,1,-10,-33,-3,-3,-7,-3,12
88905927785,19,-16,-22,-5,2,2,2,30
88905927785,-15,4,18,6,-2,-2,-7,-63
88905939875,-9,5,-58,-11,-4,-3,2,8
88905939875,13,5,-8,-13,-1,-3,0,-1
88905948834,-2,-4,38,15,1,0,-3,-6
88905948834,-7,4,-23,-7,3,4,-2,3
88905971110,23,47,27,18,1,3,10,9
88905971110,-16,-8,-13,-7,-3,-2,-4,-7
88905972748,2,8,-5,-2,1,-3,-2,-12
88905972748,2,-10,-6,0,1,0,-2,13
88905986158,-4,-13,-7,4,-5,-6,-7,-10
88905986158,-1,-4,-6,1,3,-1,2,7
88905987741,1,12,21,4,-4,-3,-7,-9
88905987741,9,-5,-13,-8,-4,-3,1,8
88905999792,-1,-8,-5,-5,1,0,1,0
88905999792,-11,-9,4,-7,0,2,2,-6
88906008752,4,-3,8,-2,-2,0,1,-3
88906008752,-8,-6,-18,-3,0,-1,-4,1
88906031148,-1,-5,-8,-5,-2,-2,0,0
88906031148,2,2,16,0,-2,-4,-6,0
88906032757,-1,5,0,-3,0,2,2,-5
88906032757,-2,-7,-13,5,-1,-2,-1,7
88906046184,-2,-2,3,-5,-2,-1,-1,-2
88906046184,-2,-2,4,-6,-1,0,2,-2
88906047774,1,2,1,4,0,-1,1,-4
88906047774,-4,-7,-7,-1,0,0,-1,1
88906059881,0,-9,2,-6,0,1,0,-1
88906059881,-3,-1,-5,-4,-1,0,-1,-2
88906068785,-2,-1,-2,-1,-4,-1,-1,-2
88906068785,2,0,-2,1,-1,0,-1,3
88906091578,-3,-6,0,-7,0,-1,1,-2
88906091578,0,-2,-3,2,-1,0,-2,0
88906093268,-1,3,5,-2,1,-3,1,-1
88906093268,0,0,-4,-1,-1,0,-5,0
88906106227,0,-1,-3,-4,-2,-1,3,-1
88906106227,1,3,3,-2,1,-1,-4,0
88906107752,1,-3,-1,-1,-1,-1,0,0
88906107752,-2,0,-5,-1,0,0,-7,-5
88906128847,-1,-2,-3,0,-2,-4,-1,5
88906128847,-1,-1,0,-1,-4,-3,12,0
88906130432,0,-3,-1,-2,-2,-3,-7,-5
88906130432,1,1,0,2,3,1,-1,0
88906143184,-1,-4,1,0,3,3,1,0
88906143184,0,2,1,-3,-4,-3,-3,-4
88906149958,-5,-1,-2,-2,-4,-4,-3,5
88906149958,-1,-1,-5,-2,-4,-6,3,2
88906166419,-4,-6,-5,-5,-4,-2,-3,-1
88906166419,-2,0,-2,-1,1,1,0,-4
88906167897,0,-1,1,2,5,5,4,-2
88906167897,-1,-1,-1,1,-3,0,7,1
88906188723,-5,-4,-1,-2,1,-2,-12,-4
88906188723,0,-3,-2,-4,-5,-4,-8,0
88906190350,0,-4,-2,-2,-4,-2,0,-2
88906190350,0,-2,-1,-3,0,2,4,1
88906202976,1,0,-3,-3,-3,-6,-3,-4
88906202976,-1,-1,0,2,2,-2,-1,1
88906209993,-3,-3,0,-2,-2,-4,-11,-4
88906209993,0,-1,-3,-5,-8,-5,9,0
88906226268,-8,-5,-6,-5,0,12,13,-2
88906226268,8,7,10,10,12,5,-20,7
88906227954,5,1,2,4,0,-2,12,4
88906227954,-2,-2,-2,-5,-12,-15,-26,0
88906248674,2,-1,-1,-1,3,2,9,-1
88906248674,-1,2,-1,5,14,20,18,4
88906250525,5,5,2,1,6,5,-4,-3
88906250525,0,-2,0,-1,-5,-5,3,1
88906263193,-2,-4,-4,-5,-12,-11,-4,-1
88906263193,-5,-4,-7,-8,-12,-9,-6,-6
88906269868,0,0,2,1,2,1,1,1
88906269868,-4,-7,-8,-3,6,2,1,-4
88906286138,-4,0,1,1,2,0,-2,-3
88906286138,-9,-6,-2,3,-2,-7,-8,-12
88906287763,9,8,4,1,-3,-1,2,9
88906287763,8,2,4,3,4,6,3,3
88906308850,-5,-2,-2,-2,4,3,-7,-10
88906308850,-2,-1,-3,0,-2,0,2,-1
88906310349,-12,-6,-7,-5,-6,-7,-8,-12
88906310349,0,-3,2,-1,0,-1,-3,4
88906323288,6,3,2,2,1,-3,4,3
88906323288,4,1,0,-8,-9,-7,-5,-5
88906329954,-11,-7,-7,-2,0,1,-1,0
88906329954,-7,1,-2,0,1,7,18,-6
88906346231,-4,-4,-4,-18,-19,-27,-31,-3
88906346231,-4,-3,0,-3,-28,-26,3,2
88906347855,3,1,4,19,14,31,-1,-4
88906347855,5,6,5,25,94,54,3,6
88906368711,4,3,9,12,11,13,9,5
88906368711,-2,-7,-11,-42,-45,-25,-5,-1
88906370228,-6,-7,-10,-5,-36,-34,-9,-4
88906370228,-8,-5,-3,-1,-32,-19,-10,-8
88906382574,1,-2,-5,2,9,4,2,7
88906382574,1,2,1,7,13,4,4,2
88906391376,-5,-4,19,-5,-11,-4,5,-4
88906391376,-3,1,-9,-20,-11,-2,-9,-3
88906406114,3,-3,0,4,6,0,-10,16
88906406114,-20,-4,-3,1,1,1,35,-21
88906407789,3,4,4,-1,12,11,11,4
88906407789,1,-2,3,-1,-6,-10,-11,2
88906428871,-5,-4,-5,-4,-10,-6,31,-15
88906428871,1,-1,3,0,5,-7,-16,6
88906430471,6,4,-3,0,11,-2,-2,-9
88906430471,1,0,0,-2,-13,-13,-5,-17
88906442610,-6,-3,-7,-7,-6,3,-17,-8
88906442610,8,1,3,7,13,11,-5,6
88906451391,2,-1,-4,0,5,-2,10,4
88906451391,2,0,2,-5,-13,-4,-13,9
88906466354,0,0,0,0,-2,-2,-2,-1
88906466354,3,1,1,6,11,12,0,2
88906467799,-4,-3,-2,-6,-2,-2,-5,-3
88906467799,-7,-3,-3,-3,-8,-8,-2,-2
88906488653,-2,-1,6,-2,1,1,-2,-8
88906488653,9,-2,-2,0,0,0,1,13
88906490324,-3,0,-4,4,-1,5,-2,-1
88906490324,-4,-3,-6,-2,-5,-2,-4,-6
88906502326,2,-3,2,0,-1,-4,10,-4
88906502326,-1,0,-1,-1,-1,0,-16,4
88906511313,-4,1,3,3,0,-4,-6,1
88906511313,13,2,1,6,-2,5,11,9
88906526110,-3,-2,-24,-16,-2,-3,-13,-3
88906526110,-3,-1,-9,1,3,7,6,-5
88906527708,-3,-4,-2,-6,1,-6,-5,-3
88906527708,-4,0,2,7,-1,-4,5,4
88906548643,13,-2,-2,-3,-4,2,1,-5
88906548643,-8,-5,5,-4,-3,0,0,-7
88906550290,1,-2,-14,-3,-1,-2,-1,-1
88906550290,-6,-1,-5,-8,-4,-4,-3,-7
88906562325,8,3,7,10,2,-4,-5,2
88906562325,6,-1,-2,-2,3,3,0,-3
88906571262,-1,-2,5,1,-1,-1,-6,1
88906571262,7,-2,-2,0,-2,2,3,2
88906586111,-9,-2,11,-4,-1,-1,-2,1
88906586111,-2,-2,-14,14,2,1,-5,-4
88906587694,-7,-4,-9,-14,-3,0,2,-8
88906587694,-2,2,16,10,-1,-3,0,-3
88906608667,-6,2,7,3,-1,-1,-10,-2
88906608667,4,4,7,-1,-3,-2,6,7
88906610304,10,2,6,3,2,4,-1,5
88906610304,-2,-6,-34,-13,-3,-3,-1,-2
88906622353,-5,0,4,7,2,-1,-2,-4
88906622353,-1,-2,-3,-5,5,3,-3,1
88906631306,-5,-3,7,-19,-2,-4,-3,-1
88906631306,15,1,9,-2,-2,-3,-9,9
88906646136,-44,-4,-7,-3,-5,-1,4,-17
88906646136,11,-2,-6,-5,-1,-3,-5,7
88906647738,3,-1,-5,3,-1,0,8,-4
88906647738,-18,-7,6,-8,2,1,2,-12
88906668638,14,-1,-26,-2,-2,0,4,8
88906668638,-3,2,12,3,1,1,-2,-2
88906670220,-3,5,20,21,-2,-2,-9,-3
88906670220,-1,-3,-22,-15,-6,-4,2,-2
88906682342,13,0,-4,-1,-1,1,2,8
88906682342,-42,-5,1,0,0,1,0,-7
88906691296,10,3,-7,-6,1,1,1,4
88906691296,-4,-1,23,19,-4,-3,-3,-2
88906706147,1,-1,-1,-5,-2,-1,7,8
88906706147,7,-3,-5,-11,-4,-2,-14,-6
88906707751,-5,-3,-5,5,2,-1,2,-1
88906707751,1,5,11,18,2,0,9,6
88906728652,8,4,-6,-20,-4,-1,-3,-1
88906728652,5,-1,5,2,-2,-1,-2,0
88906730283,-7,-6,-11,-6,0,-1,-1,-1
88906730283,0,-2,-4,-6,-2,0,-12,1
88906742276,0,4,13,20,0,-1,8,-9
88906742276,5,5,1,2,2,-1,-2,2
88906751300,-20,-10,-6,-9,-5,-2,4,-9
88906751300,11,1,-8,-8,0,0,-3,5
88906766151,8,0,4,3,1,-5,-2,-1
88906766151,-3,-2,-4,-2,-1,-3,-5,-1
88906767719,7,0,12,3,-1,0,-9,-1
88906767719,-7,-4,-11,-7,-2,0,21,14
88906788618,-1,-7,-10,-4,-3,-2,-12,-39
88906788618,3,-3,0,-5,-1,-2,2,-2
88906790282,7,2,-4,-2,-3,0,-1,2
88906790282,-6,1,3,-3,0,-1,-4,3
88906802357,1,-3,-6,0,0,3,-1,8
88906802357,3,-1,1,0,-1,-2,1,-1
88906811314,18,0,-4,-2,0,-3,-5,-7
88906811314,-4,3,2,-5,0,-2,-2,10
88906826065,-4,2,2,-3,3,-1,7,4
88906826065,-1,2,18,4,-2,-2,-3,-6
88906827723,1,-2,-46,-15,-1,0,2,5
88906827723,-1,-3,0,-1,-2,-2,-4,-12
88906848790,-1,-1,-1,2,-2,-1,-3,8
88906848790,3,-1,-4,-8,-2,0,-3,-1
88906850301,-9,-2,6,-1,-2,0,2,1
88906850301,-2,0,0,1,1,-4,0,-5
88906862459,-15,0,6,-2,-2,0,4,7
88906862459,9,-3,-11,1,-2,-2,2,-1
88906871342,-13,-1,12,6,0,-4,-9,-12
88906871342,-7,-3,-11,-5,-1,-1,-4,-7
88906886195,6,-2,5,4,0,1,-2,7
88906886195,-3,1,-3,3,0,2,1,2
88906887775,0,2,12,1,0,-2,8,-7
88906887775,-4,-1,2,-1,-1,-2,-8,5
88906908776,-14,-2,0,-2,-1,-1,-6,-31
88906908776,-3,-4,-10,-3,-4,-2,1,3
88906910456,-1,1,-3,-4,-2,-2,-6,5
88906910456,-1,-2,-2,-2,-3,-3,1,-10
88906922328,8,1,0,-1,-2,-4,-7,6
88906922328,-43,-3,-2,-2,-1,-3,-2,-6
88906931364,-10,-4,-1,-2,-1,-3,-3,-9
88906931364,15,2,9,7,0,1,1,-4
88906946218,-2,-3,-7,2,1,-1,1,3
88906946218,13,-2,-16,-27,-4,-3,0,-2
88906947815,-9,-3,12,3,-1,-3,-2,4
88906947815,-7,-1,-6,1,0,2,0,-7
88906968846,7,-1,4,-3,0,-1,1,6
88906968846,-4,2,0,7,1,-2,-1,-8
88906970297,-2,-2,-3,-2,0,0,-1,2
88906970297,5,-1,0,-2,1,1,-3,-3
88906982417,0,-1,1,-1,-2,0,0,8
88906982417,-2,-4,-7,-3,-2,2,0,-3
88906991393,3,-2,-6,-4,0,0,-3,1
88906991393,-2,-1,-1,1,0,-3,-2,-3
88907005626,-8,1,1,1,-1,-1,4,5
88907005626,4,-1,5,6,1,1,1,1
88907012545,6,1,-6,1,-3,-1,-1,0
88907012545,-20,-6,-5,-7,-3,-2,-7,0
88907028884,8,1,-2,-3,0,0,2,-10
88907028884,26,2,10,4,1,0,3,6
88907030376,2,0,-3,5,-1,-2,4,12
88907030376,-13,-1,2,-1,-1,-3,-8,-18
88907042428,-4,-3,1,-3,-2,-1,-3,2
88907042428,1,0,-1,4,0,0,0,-1
88907051293,32,0,-5,-4,-1,0,8,6
88907051293,-13,1,-3,-6,-1,-1,-8,3
88907065545,-5,-2,0,0,-3,-1,13,6
88907065545,8,0,0,1,1,-3,-2,-10
88907072553,4,3,7,0,0,3,-2,-2
88907072553,5,0,-1,6,-1,-2,0,0
88907088846,2,-3,-5,-22,-2,-3,-3,1
88907088846,-7,-1,-3,2,-1,-2,1,3
88907090408,-15,-3,-2,-3,-2,-2,-1,-10
88907090408,9,0,1,3,1,-2,1,-6
88907111449,-4,-3,-4,5,-2,-1,-8,0
88907111449,-14,-2,-1,4,-1,0,2,6
88907112777,6,-2,3,-13,-1,-2,-7,4
88907112777,-4,-5,-3,-6,-3,-1,1,-2
88907125731,0,-2,-9,-1,-2,1,-2,0
88907125731,-2,1,7,0,0,-1,-3,0
88907132575,-15,0,-2,10,1,-1,-1,0
88907132575,3,1,0,-3,-2,2,2,5
88907148939,4,3,2,2,-2,-2,-2,1
88907148939,14,-2,-3,-1,-1,-3,-4,0
88907150371,-12,-3,-5,-1,0,-4,-1,-3
88907150371,1,-1,-2,-3,-3,-3,0,-2
88907171349,14,5,5,2,-2,-1,-9,9
88907171349,-10,3,-3,0,0,0,6,1
88907172779,1,-5,-2,-3,-2,-3,-7,9
88907172779,5,-1,-2,-1,0,2,0,1
88907185745,1,-3,1,4,-1,-2,2,7
88907185745,-2,-3,-3,-5,-1,-1,-7,-16
88907192571,0,-2,-2,-2,-3,-1,-2,-3
88907192571,-3,-1,-2,-6,-2,0,1,6
88907208927,-6,0,-10,-5,1,-1,-4,-6
88907208927,-1,-1,11,-1,-2,0,1,0
88907210370,-6,-2,-2,3,-1,1,0,-6
88907210370,8,-2,-4,3,-3,-2,-2,0
88907231353,-5,-3,-7,-12,-3,-2,-2,-5
88907231353,-2,0,-6,-3,-1,-2,-3,1
88907232822,5,5,6,4,0,4,1,1
88907232822,-1,0,2,-2,-1,-3,1,0
88907245697,-12,-2,0,3,1,-2,-1,-4
88907245697,-4,-3,-5,-3,-1,-3,-5,0
88907252580,13,-1,-3,-3,-3,-1,6,4
88907252580,-6,-1,-2,4,1,2,0,-5
88907268754,0,0,1,1,-4,-1,1,1
88907268754,-9,-2,2,3,-2,-4,-10,-7
88907270342,-9,-1,3,1,2,-3,-1,-4
88907270342,1,-4,-13,-4,0,-1,-2,0
88907291192,0,-3,2,1,-2,0,1,5
88907291192,2,-4,-3,-1,-1,1,3,-6
88907292801,7,-1,-2,0,0,-2,-6,0
88907292801,-7,1,5,1,-1,-2,0,-1
88907305697,2,-1,1,1,0,0,-3,-2
88907305697,-3,-1,1,-3,-3,-1,3,3
88907312547,-9,-6,-3,-3,-3,0,-3,-4
88907312547,9,-1,0,-3,-1,-1,-1,-1
88907328827,-7,-1,-2,2,0,-1,-2,-6
88907328827,-2,-2,-4,-3,1,-1,-2,0
88907330220,5,-3,-6,-4,-1,-1,4,-1
88907330220,-3,-1,0,-3,-2,-1,-3,-7
88907351269,-5,-1,2,1,-1,-2,-3,-1
88907351269,-4,-2,-5,-2,-2,1,2,2
88907352822,-6,-1,1,-2,-4,-2,-6,-2
88907352822,-2,0,-2,2,-1,-2,0,-4
88907365505,2,-1,-1,0,1,-2,-2,-3
88907365505,3,0,-2,-1,-1,-2,2,1
88907372315,-5,-1,-2,0,0,-1,-1,-1
88907372315,0,-4,-4,-5,-5,-1,0,4
88907388648,-6,-1,-3,-1,-2,0,-1,-8
88907388648,-5,0,7,4,-2,1,0,0
88907390353,6,-1,-11,-11,-2,0,0,-4
88907390353,-4,0,2,0,2,-2,-2,1
88907411418,-1,-1,-3,-1,-2,-1,0,-3
88907411418,-3,-3,1,3,-2,-1,2,-3
88907412769,-5,-2,0,2,0,-1,-1,0
88907412769,1,0,0,-3,-1,-1,1,0
88907425586,0,-4,0,-2,0,-1,0,0
88907425586,3,1,-3,-4,0,-1,-1,1
88907432526,-6,0,0,0,-1,0,-1,-1
88907432526,6,0,-3,-2,-1,-2,-2,7
88907448783,-2,-1,1,1,-1,-2,0,-18
88907448783,1,0,-4,-2,-1,-3,-4,4
88907450373,0,0,-1,0,-2,-2,-2,2
88907450373,-8,-4,-5,-3,-2,-1,5,-1
88907471195,1,0,1,1,0,2,-7,-3
88907471195,33,1,-3,-3,-1,-2,-1,-1
88907472822,-48,-3,0,0,-1,-2,-2,-2
88907472822,15,0,2,1,-2,-1,-3,0
88907485713,-2,1,2,2,1,0,1,1
88907485713,2,-1,-4,2,-1,1,0,-1
88907492535,6,-3,7,-5,-1,-2,-1,1
88907492535,-5,-1,1,0,0,0,-1,-4
88907508758,-4,0,1,-2,0,-2,1,5
88907508758,-6,-3,-5,0,-2,-1,-3,0
88907510313,2,-1,-5,2,0,0,-1,-5
88907510313,-19,-2,1,1,2,0,-2,-4
88907531358,18,0,-1,-2,-2,-2,2,3
88907531358,-7,0,0,-2,-1,0,2,-10
88907532779,-4,-1,-3,-1,0,-3,-1,-1
88907532779,1,-1,2,-1,-2,-1,-2,2
88907545593,-1,-2,-2,-1,0,-2,0,-1
88907545593,-8,-4,-9,-6,-2,-2,-1,-1
88907552374,10,0,-1,0,0,-1,-1,6
88907552374,0,0,0,0,-2,-1,-2,-13
88907568855,-8,-3,-5,-1,-2,-1,-2,1
88907568855,-6,0,2,-1,0,0,-1,0
88907570258,7,-1,-1,-1,-2,-1,2,-1
88907570258,-2,0,-3,0,-1,-3,-10,-1
88907591215,-2,-2,2,1,-3,0,1,1
88907591215,1,0,-3,-5,0,0,-2,0
88907592783,-4,-2,-4,-1,-1,2,0,-2
88907592783,-13,-4,-5,-2,-1,1,2,-2
88907605087,15,1,0,0,-1,-4,-1,7
88907605087,-9,-5,0,1,-2,-2,-3,-3
88907613840,4,1,-1,0,-1,-1,0,-10
88907613840,-1,-2,-1,-4,0,0,2,2
88907628850,-8,-4,-2,-3,-2,-1,-2,-2
88907628850,2,0,1,0,0,0,1,8
88907630348,16,-1,1,-1,-2,-1,0,-2
88907630348,2,1,-3,1,-1,-2,-3,2
88907651319,-7,-1,-2,-2,0,0,-1,-6
88907651319,-10,2,1,-1,-2,-1,0,-3
88907652866,-1,-1,-2,-1,-1,0,1,-1
88907652866,2,-3,-3,-1,-1,-4,-3,5
88907664974,-15,-3,-4,-5,-2,-3,4,-2
88907664974,28,0,-3,-2,-3,-5,-7,10
88907679973,-20,-3,-1,-2,-3,-2,-3,-24
88907679973,-3,0,2,-1,-1,-1,6,4
88907688719,-7,-1,-1,0,1,0,-4,6
88907688719,-2,-3,-1,-4,-2,1,1,-6
88907690313,0,2,8,6,0,-1,-2,6
88907690313,8,-1,-3,0,0,-1,0,4
88907711206,-39,-3,1,-1,-2,-3,-3,-4
88907711206,1,-1,-5,-5,-1,0,3,1
88907712783,-4,1,-3,0,-2,-3,-6,2
88907712783,5,-2,1,0,-1,1,4,-4
88907725034,14,-2,-5,-3,-3,-2,-2,1
88907725034,-7,0,2,3,-1,-1,-11,-5
88907733804,-1,-1,-4,0,0,1,11,6
88907733804,-2,-1,1,-4,-3,-1,-5,-6
88907748918,3,-1,-6,-1,-1,0,0,-1
88907748918,0,-2,9,4,-1,-2,-4,-4
88907750337,7,-3,-6,-5,-2,-2,-2,-1
88907750337,0,-1,0,0,-3,-5,-2,1
88907771378,4,1,-2,0,-2,0,-2,-2
88907771378,-5,1,4,2,1,3,5,0
88907772756,-2,0,-8,-4,-1,-4,-2,10
88907772756,-2,0,0,-3,1,1,-1,-6
88907784950,4,0,2,1,-1,0,1,-1
88907784950,-6,-2,0,2,-1,1,0,-6
88907793821,0,-3,1,2,0,0,0,2
88907793821,-2,-1,-2,-2,-2,0,-1,-6
88907808831,4,0,-2,-3,-1,-1,-2,2
88907808831,-5,0,-2,-1,-1,-2,1,0
88907810310,3,-1,-3,0,0,-1,-3,-7
88907810310,-14,-1,0,1,-1,-2,-3,-6
88907831158,-1,0,0,-1,-1,0,2,-4
88907831158,-3,-2,-5,-1,0,-3,0,1
88907832785,-4,-3,1,-2,-1,-2,-1,-2
88907832785,3,0,-1,-1,-1,-3,1,-1
88907844798,-5,0,2,-1,1,-1,0,-2
88907844798,10,0,-2,-2,-2,-1,-2,0
88907853829,1,0,2,-1,-1,0,-2,0
88907853829,0,-1,-2,-2,-2,-2,-2,3
88907868787,2,-2,-4,0,0,-2,-1,-2
88907868787,-6,-1,-4,-2,0,-1,2,-2
88907870217,4,1,-4,-2,1,0,-2,3
88907870217,2,1,3,0,0,0,0,1
88907891297,-4,-8,-7,-8,-4,-4,-4,-5
88907891297,-4,-2,-6,-7,-2,-2,-1,0
88907892806,0,0,-5,-8,-2,-2,-2,1
88907892806,-1,3,-3,1,1,0,1,0
88907904785,5,1,1,2,-1,1,0,2
88907904785,-3,-1,2,1,-1,-1,0,0
88907913798,-2,-2,-1,-1,-3,-1,-1,-2
88907913798,0,-1,-1,-3,-1,0,1,0
88907927751,-1,3,2,0,1,-1,-2,-17
88907927751,7,2,0,2,0,0,0,2
88907936376,-3,0,0,1,-1,-1,-2,-1
88907936376,0,-3,-1,0,-1,0,0,0
88907951307,2,-3,2,0,-2,-2,1,1
88907951307,-5,-2,-2,-2,0,-1,-1,-2
88907952758,1,-2,-2,0,-1,-2,-1,-1
88907952758,0,-1,0,0,-2,-1,0,-1
88907964835,-14,-3,-5,-1,0,-1,0,-5
88907964835,7,0,0,-2,-1,-1,1,6
88907973818,-1,-1,4,2,-1,-1,-1,1
88907973818,1,0,1,-2,0,-2,-3,-2
88907988864,-2,-1,0,-2,0,-2,-1,-1
88907988864,-6,-1,-5,-1,-2,0,-1,-2
88907990301,1,1,0,-1,1,0,-1,-3
88907990301,-2,-1,-2,-3,-3,-2,-2,0
88908011144,6,0,-1,0,-1,-2,1,5
88908011144,-3,-1,0,0,0,-3,-1,-4
88908012746,0,-3,-1,-2,-3,-1,-1,0
88908012746,-2,-3,-3,-2,-3,0,-1,-3
88908033641,2,0,0,0,-1,0,-1,4
88908033641,-5,-3,-1,-1,-1,-2,-1,-4
88908035202,-4,-2,-1,-1,-3,0,-1,-3
88908035202,-7,-3,-3,0,0,-2,-1,-6
88908048642,15,-2,-3,-1,-3,-3,-4,16
88908048642,-4,-1,0,-1,1,1,-1,-4
88908050192,-2,1,0,2,0,0,1,-2
88908050192,-1,-4,-5,-2,-3,-1,0,-2
88908071100,-5,-1,-3,-2,-1,-1,0,1
88908071100,1,0,-1,0,-2,-1,-3,-4
88908072697,1,-1,-1,-1,-1,-2,-3,1
88908072697,0,-2,-4,-2,-1,-1,-2,1
88908093675,-3,-2,0,-1,0,-1,0,-5
88908093675,0,-2,-1,-1,-1,-2,0,2
88908095190,-2,-3,2,-3,0,-1,-2,-4
88908095190,7,1,-17,0,-1,-2,-2,10
88908108875,-6,-1,3,-1,1,1,-1,-2
88908108875,-3,-1,1,-1,-2,0,2,-1
88908110336,-11,-2,-2,-2,-1,0,-2,-5
88908110336,7,2,4,4,-1,1,0,-4
88908131093,7,-1,-1,2,0,-1,-1,2
88908131093,-6,-2,-4,2,-1,-2,-2,0
88908132703,0,1,2,-1,0,-2,1,6
88908132703,-19,0,3,-4,-1,1,-3,-27
88908154099,-1,-1,-1,-4,-1,-2,0,-3
88908154099,-1,-3,-1,-5,0,-3,-1,-1
88908155772,-1,-4,-2,7,-2,-3,0,1
88908155772,-2,0,3,-1,-2,-1,-3,1
88908167981,0,-1,-5,0,-2,-2,-3,-1
88908167981,-5,-2,-2,-3,-1,-1,-4,-4
88908174737,4,0,-4,-3,0,-2,-2,0
88908174737,2,1,-2,0,0,0,2,6
88908191150,-7,-2,-1,-1,-1,-1,-2,-7
88908191150,3,-2,-2,0,-3,0,-2,0
88908197360,-4,-3,-4,-2,-2,-2,-1,2
88908197360,-4,-3,1,-1,-2,-2,-4,-3
88908213625,15,1,-2,-4,-2,-2,-3,4
88908213625,-9,-1,-1,0,-2,-3,-2,-2
88908215284,-2,0,-2,0,-1,1,-1,-3
88908215284,5,-1,-3,-4,-2,-1,1,5
88908236176,-6,-2,0,0,-1,1,2,-2
88908236176,-1,0,-2,-1,0,0,-3,-4
88908237727,13,2,3,-1,-1,-1,-2,9
88908237727,-27,-4,0,0,1,-3,-2,-28
88908251140,3,-1,-1,-1,-2,-1,0,4
88908251140,2,-2,1,0,0,-2,1,1
88908252925,-4,-2,-3,-1,-1,-1,-1,-5
88908252925,3,-3,-1,-1,-1,0,-1,8
88908273856,3,2,-2,0,-2,-1,0,-6
88908273856,-4,-1,-1,-2,-2,-1,-2,-5
88908275215,-1,-1,-1,-3,-1,-2,-1,2
88908275215,5,-3,-1,-1,-2,-2,0,4
88908287422,0,-1,-1,-1,-2,-2,-2,-5
88908287422,5,-1,0,0,-1,-1,-1,4
88908296286,-2,-2,-2,-1,-1,-1,0,-5
88908296286,4,0,0,-1,1,0,-1,5
88908319983,-11,-4,-4,-1,-2,0,-1,-4
88908319983,-2,0,-1,-1,0,0,-1,-2
88908324943,1,0,-2,-1,1,0,-1,-3
88908324943,2,-3,-5,-2,-3,-2,-1,1
88908333611,-4,0,1,0,-1,-2,-1,2
88908333611,-2,0,-2,-1,0,-2,-1,-5
88908335270,9,-1,-1,-1,0,0,-3,4
88908335270,2,-1,-1,-1,0,0,2,6
88908347268,-1,1,0,-1,0,0,-2,-2
88908347268,-2,-3,0,-1,-2,1,-2,1
88908356252,-3,0,0,-2,0,-2,2,-2
88908356252,2,0,-1,-1,-2,-1,-1,1
88908371113,2,-2,-3,0,-1,0,-1,0
88908371113,-1,0,-2,0,0,1,-1,-4
88908372741,-5,-3,-2,1,-2,0,-1,-5
88908372741,0,-1,1,-1,-1,0,-2,-2
88908393577,-15,-3,-2,-2,-1,-2,1,-5
88908393577,13,4,1,0,0,-1,0,13
88908395299,-2,0,0,-1,0,0,-1,-1
88908395299,0,1,0,-2,0,-1,-1,2
88908416132,5,1,1,0,0,0,-1,-5
88908416132,12,-1,-2,-1,-2,-2,-3,10
88908417708,-31,-6,-2,-4,-4,-3,-4,-27
88908417708,0,-1,-1,1,-1,1,0,6
88908439006,1,-2,-1,-1,0,1,0,4
88908439006,-5,-3,-2,-1,-1,-2,0,-6
88908440326,10,0,-1,0,0,0,1,5
88908440326,0,-3,-2,-1,-1,-2,-3,-4
88908453618,-4,-1,-1,-1,0,-2,-2,-4
88908453618,-2,-1,-1,-4,-1,-2,-1,-3
88908455296,5,0,0,-2,-2,0,-1,-1
88908455296,-2,0,-3,4,-2,-2,-2,-6
88908467270,9,1,-2,1,-1,-3,0,2
88908467270,-8,-4,1,1,-1,-1,0,-2
88908476317,2,-2,-1,-3,0,-2,-2,2
88908476317,-2,-1,2,-3,-1,-1,-2,-1
88908491626,-3,-2,-1,-2,-1,-1,-2,-4
88908491626,-11,-2,-5,1,-2,-1,-1,-3
88908493220,7,0,-4,-1,-2,-2,-2,5
88908493220,2,-1,-1,-3,-1,1,0,1
88908512666,-5,-3,-1,-1,-2,0,0,6
88908512666,-2,-2,0,-2,-2,-2,-1,-14
88908521369,-5,0,-1,1,-2,-1,0,-2
88908521369,3,0,2,-2,0,-3,-1,3
88908527538,1,-2,-1,-2,-1,-1,-1,2
88908527538,-3,-1,-2,-2,2,-1,-1,-2
88908536252,-2,-3,0,0,-1,-1,-2,-2
88908536252,-3,0,0,1,0,0,0,-9
88908551288,-3,0,-2,0,-2,0,-3,0
88908551288,2,-1,1,-2,0,0,0,2
88908552787,-2,-1,0,-1,-1,-1,-2,-1
88908552787,-2,-2,-3,-1,1,-2,-2,2
88908573655,0,-2,-1,0,-2,-1,0,-1
88908573655,-7,-1,-1,-1,-2,-1,1,-3
88908575387,5,0,-2,-1,0,-2,0,2
88908575387,-2,0,-1,-4,-2,-1,0,-1
88908587558,-2,-1,-2,-2,-1,-1,0,-3
88908587558,10,0,-2,-5,-2,-1,-4,0
88908596363,-2,-1,-3,2,-2,-2,0,-3
88908596363,-2,-2,-2,7,-1,-1,-1,-1
88908611220,-2,-3,1,0,0,1,-1,-2
88908611220,-6,-4,1,0,-1,-1,1,-2
88908612785,1,-1,-1,-3,0,1,-2,2
88908612785,1,-1,0,-3,0,0,0,1
88908633603,-3,-1,-2,-2,-3,-1,-1,-2
88908633603,1,0,-1,0,0,-1,-1,-1
88908635242,-4,-2,-2,-1,-3,-2,1,3
88908635242,12,1,-1,-1,0,-1,-3,21
88908647300,-5,-1,-2,-3,-3,-1,-2,-15
88908647300,-4,-1,-2,0,-1,-1,0,5
88908656243,-1,0,-1,-1,-1,0,0,0
88908656243,-1,0,-2,-1,-2,-2,0,-7
88908671115,1,0,-1,0,0,-1,0,3
88908671115,0,-2,-2,0,1,-3,-1,1
88908672726,-3,-2,0,0,1,-1,0,-5
88908672726,0,0,0,-5,-2,0,-3,-1
88908693635,-1,-2,-2,-1,-2,0,0,2
88908693635,-3,1,0,1,-4,0,0,-5
88908695270,0,-2,-1,4,-2,-4,-3,-1
88908695270,-5,-1,0,0,-3,-1,1,-4
88908707426,0,-1,0,-5,0,0,0,1
88908707426,-3,0,-2,-1,-1,0,-2,-2
88908716531,-1,-3,-2,-2,-1,0,-1,-4
88908716531,3,1,0,-3,1,0,1,-5
88908731149,-1,-2,-1,-2,0,-1,-1,-2
88908731149,3,0,-3,-1,0,-1,-1,3
88908732761,-4,1,-1,-2,-1,1,-1,-2
88908732761,-6,-2,-3,-3,0,-3,-1,-4
88908753658,-1,-2,0,-2,0,-1,-1,0
88908753658,5,-1,0,-1,-1,0,1,3
88908755414,1,-2,-1,-5,-3,-2,0,5
88908755414,-7,0,0,-2,-2,-1,-1,-2
88908767761,3,-1,-1,-1,0,-1,-2,0
88908767761,-6,-1,-1,2,1,-1,0,1
88908776275,5,-1,0,0,0,-1,1,7
88908776275,0,0,2,1,0,-1,0,0
88908790535,-1,-2,-1,-1,-3,0,-2,-1
88908790535,-1,-3,-5,-5,-3,-1,-2,-2
88908797420,0,-1,-2,-2,1,-2,0,-3
88908797420,-4,-2,-3,2,-1,-2,-3,-4
88908813598,-1,-1,-2,6,-2,-4,0,2
88908813598,0,-3,0,-1,-1,1,-1,-2
88908815234,-1,1,1,-5,-2,-1,-3,-2
88908815234,-4,-3,-3,0,-1,0,-1,-2
88908827261,1,1,0,-1,-2,0,0,3
88908827261,-2,-1,1,0,0,-1,-2,0
88908836438,-2,-3,-5,-1,-3,-3,-2,-4
88908836438,-1,-2,0,0,-1,-2,0,-3
88908851267,0,1,1,0,1,-3,-1,-2
88908851267,-4,-2,1,-4,1,-1,-2,-2
88908852735,-3,-2,0,5,0,0,-1,0
88908852735,3,-2,-10,-2,0,0,-1,8
88908873841,-3,-3,-7,-21,-5,-4,-2,-4
88908873841,-1,-2,2,13,-1,-2,0,-2
88908875556,-14,2,-6,0,1,-2,-2,-9
88908875556,13,0,0,-5,0,1,1,8
88908887347,3,1,1,-3,1,2,0,-3
88908887347,-1,-1,-4,-9,-1,-1,-1,0
88908896308,-1,1,0,3,-1,-1,0,-5
88908896308,-7,-1,0,1,-1,-2,-2,-2
88908918578,-2,1,1,5,0,-1,0,0
88908918578,4,-6,-9,-9,-2,-1,-1,-5
88908920161,1,-3,-3,-2,-2,0,0,3
88908920161,-6,-2,-2,-6,-2,0,-3,-3
88908933991,-2,-2,4,5,2,-2,-2,0
88908933991,-6,-1,-12,-4,-2,-2,-3,-3
88908935178,6,0,3,-5,-2,0,-1,3
88908935178,-3,1,-2,8,-1,-2,-2,-7
88908956092,1,5,5,5,4,1,2,-1
88908956092,-3,-3,-2,-14,-4,-1,-1,1
88908957695,0,-2,5,1,-3,-1,-1,-3
88908957695,0,2,10,-12,1,-1,-1,-3
88908970442,-5,-3,-8,-2,-3,-1,-3,-1
88908970442,0,3,-5,9,2,1,-1,-2
88908977205,4,2,5,-8,0,-1,0,3
88908977205,-12,-2,4,9,-1,-2,-1,-2
88908993602,10,-3,-10,-5,-2,0,1,1
88908993602,0,3,10,-2,0,-1,2,1
88908995173,1,-5,-4,-5,-1,-2,0,8
88908995173,-3,-1,6,1,-2,-2,-1,-10
88909016218,-2,0,1,4,-2,-1,-2,0
88909016218,1,-1,7,5,-1,0,1,-2
88909017759,-3,-2,-12,3,-2,-3,-2,-2
88909017759,-1,-9,-19,-24,-7,-4,-1,-2
88909030460,-1,0,4,-13,3,3,1,-1
88909030460,-3,-6,-6,50,0,-5,-4,-5
88909037388,-3,3,18,-5,0,0,-1,-3
88909037388,1,-2,-12,-7,-1,1,-4,2
88909053785,-8,-10,-20,-14,-7,-5,-5,-6
88909053785,-5,2,-4,-10,-1,0,0,2
88909055371,6,2,-2,3,0,3,0,2
88909055371,2,2,10,8,1,0,-1,-1
88909076265,-2,1,11,4,-1,0,1,3
88909076265,-1,-1,-1,-17,0,-2,-2,1
88909077759,-5,-8,-17,6,-1,0,-2,-3
88909077759,-1,-3,-11,-20,-3,-2,-1,2
88909090433,-2,-3,-2,15,-1,-3,-4,3
88909090433,0,0,5,-18,-5,-2,0,-4
88909097272,-2,-1,-7,-10,-2,-3,-1,-6
88909097272,-3,-5,0,6,-3,0,0,-4
88909113663,-2,-2,-7,-9,-4,-1,0,-2
88909113663,2,5,2,0,-1,-2,-1,-1
88909115322,0,-2,0,7,-1,1,1,0
88909115322,-1,-1,13,13,0,1,0,1
88909136364,-1,0,-2,12,2,-1,-1,-3
88909136364,-2,-2,0,-10,-2,1,-1,3
88909137781,-3,-2,-6,-8,-2,-3,-1,0
88909137781,3,1,12,11,3,1,0,2
88909150556,-3,-3,-1,-6,-4,-3,0,-4
88909150556,0,-2,-9,-3,-2,-1,-2,-3
88909157472,-2,1,-2,0,2,0,-2,-1
88909157472,-2,-1,-3,4,0,-1,-3,-2
88909173679,-1,-1,-1,-2,0,-2,0,-3
88909173679,-4,-3,-4,-15,-2,-2,0,-6
88909175359,5,0,6,13,1,-2,-2,-1
88909175359,-2,2,-14,-5,-2,0,-2,-3
88909196350,0,7,13,-11,-1,3,0,0
88909196350,-2,-4,3,27,1,-1,-2,-2
88909197769,0,2,0,-6,-2,-1,0,9
88909197769,2,5,15,1,-1,-5,-2,-9
88909210486,-2,-3,-7,17,-5,-3,-1,-5
88909210486,2,0,-7,-21,-3,0,-1,9
88909217214,0,-1,-2,-8,2,1,0,-2
88909217214,-2,-2,-12,-4,-2,2,-1,0
88909233600,-2,0,16,4,-2,-3,-2,-2
88909233600,1,-1,1,-4,0,-2,1,-2
88909238321,-5,-5,-18,3,-2,-2,-3,-10
88909238321,-3,2,-3,-23,-2,0,2,0
88909256133,14,1,5,3,4,3,3,6
88909256133,0,0,4,-4,0,0,-2,-4
88909257677,-5,-8,-19,-1,-3,-4,-1,-2
88909257677,-3,0,-1,-3,0,0,-1,-1
88909269731,-7,-3,6,0,-2,-5,-3,-2
88909269731,-1,-3,2,18,-1,0,0,1
88909278779,2,2,11,-4,-3,0,-1,-1
88909278779,-1,-7,-14,-10,-8,-4,-3,-2
88909293822,0,0,-3,2,4,3,3,-1
88909293822,1,1,8,-17,-4,-1,-1,-3
88909295393,-5,-3,-1,22,1,-2,-1,-5
88909295393,-4,-6,-7,4,-3,-3,-2,-1
88909315941,2,-3,4,-4,0,0,-2,0
88909315941,-2,-1,-9,-22,-1,0,0,-1
88909323251,3,4,18,41,2,2,0,1
88909323251,-1,-4,-10,-35,-6,-2,-2,-1
88909338144,-4,-2,-1,16,1,3,0,1
88909338144,-6,-4,-23,-12,-8,-6,-4,-6
88909338800,5,9,45,-18,2,2,0,0
88909338800,-3,-5,-15,43,6,-2,-3,-2
88909353034,-2,3,4,20,1,2,1,1
88909353034,5,1,11,-4,-1,-2,1,0
88909353858,2,2,-8,-6,-3,0,-2,-4
88909353858,2,3,14,-11,0,0,0,6
88909383653,-2,-3,-16,0,0,-3,-1,-3
88909383653,-8,3,5,13,4,-2,-2,-3
88909384419,7,-4,-5,-15,-5,-1,1,-3
88909384419,2,-3,6,10,-1,0,1,8
88909397990,-5,-3,-12,-35,-7,-2,-6,-6
88909397990,-5,-7,-1,12,-3,2,0,1
88909398706,-4,-6,-21,-22,-1,-1,-1,1
88909398706,-6,-5,-13,-3,0,-1,-2,-4
88909412957,-4,0,5,21,-5,-6,-2,-2
88909412957,1,1,4,7,1,-1,1,-3
88909413733,-1,-4,1,-7,0,0,-2,1
88909413733,2,-1,-20,-5,-1,-2,0,-1
88909435445,-2,-2,-15,-37,-2,-4,-2,-3
88909435445,-5,-12,3,-54,-11,-5,-3,-4
88909436191,-4,-2,-21,1,-3,-6,-1,0
88909436191,-1,0,5,3,5,5,3,-3
88909458197,2,4,5,20,1,1,-2,1
88909458197,5,6,9,5,1,-1,-1,3
88909458783,-6,-9,-32,-7,2,-1,-1,-1
88909458783,-2,0,5,14,-5,-5,-1,-9
88909472944,-1,-3,6,9,-2,-3,-1,3
88909472944,3,5,-2,2,1,4,3,2
88909473905,-1,-3,-2,-30,-4,-4,-4,-1
88909473905,0,3,12,6,0,-2,-2,-3
88909495595,0,-8,-19,-19,-2,1,1,-3
88909495595,-3,-3,-1,0,1,1,-1,4
88909496440,-11,-1,9,35,-2,-3,-2,-5
88909496440,25,6,2,-29,-4,-2,1,16
88909518652,-2,5,8,-6,2,0,-2,-4
88909518652,-3,-10,-13,3,0,-3,-2,-3
88909519589,-2,5,17,4,0,1,0,-1
88909519589,-10,-4,-3,8,-1,-1,0,-3
88909533186,2,-2,1,-15,-4,0,-2,4
88909533186,-2,3,-14,32,4,-2,-4,-17
88909533749,2,-1,3,-11,-1,-1,-1,0
88909533749,-1,0,18,13,2,1,-1,-2
88909555671,-1,-5,-9,-9,-10,-7,-3,-2
88909555671,1,7,12,1,3,2,1,3
88909556282,1,0,-5,-10,-3,-3,-3,-3
88909556282,-1,-1,14,-3,1,2,0,-2
88909578701,-5,-6,-34,1,-2,-1,-2,-2
88909578701,2,1,5,2,-3,-2,1,6
88909579657,-1,-1,-1,-8,2,1,-2,-6
88909579657,-2,-3,-1,12,0,1,1,7
88909593837,-4,3,12,-1,0,1,-1,-7
88909593837,-1,-4,-8,-8,-3,-1,-2,-1
88909594379,-2,-4,4,-1,-2,-1,-1,1
88909594379,-5,0,-9,1,1,-1,0,-6
88909615879,0,-1,18,9,4,1,1,2
88909615879,0,-3,-20,3,-3,-4,-7,-1
88909622881,0,2,8,2,2,0,1,-2
88909622881,-5,-2,7,4,-3,-1,0,-2
88909638683,4,5,-18,-36,0,0,1,3
88909638683,-5,-11,18,53,4,-1,-1,-4
88909639452,-7,-4,-38,-38,-10,-5,-3,-1
88909639452,-2,1,9,5,3,-3,-8,-8
88909652996,1,0,-9,-9,1,-1,9,7
88909652996,1,3,9,27,4,0,1,2
88909654058,-2,-2,1,-3,-5,-3,2,1
88909654058,-2,-2,-3,4,-3,1,-1,-2
88909675657,0,3,7,-1,0,-2,2,-3
88909675657,0,1,-3,-17,1,3,-2,2
88909676291,-3,-6,-10,23,-3,-4,-2,-3
88909676291,-2,1,-12,-12,-2,-2,-2,0
88909698659,-1,-2,8,11,0,1,3,-1
88909698659,0,1,0,-10,-3,-1,-1,-2
88909699696,3,5,8,9,2,0,-4,1
88909699696,-2,-2,-5,5,1,0,-1,-1
88909712949,-1,-1,8,14,1,0,-3,-4
88909712949,-2,1,3,-37,-6,-1,1,0
88909713948,2,3,10,18,7,6,4,2
88909713948,-7,-6,-7,-20,-16,-9,-4,-4
88909735394,-3,-1,-8,2,0,-2,-7,-4
88909735394,0,-1,2,-2,1,0,-3,2
88909736315,4,4,24,-9,2,1,2,4
88909736315,-7,-9,-56,-26,-5,-4,-9,-7
88909758589,-1,-2,46,79,2,0,8,1
88909758589,0,-5,-62,-54,-5,0,-1,1
88909759363,-4,-4,37,28,-4,-2,-4,-3
88909759363,-9,-1,3,-5,-3,-1,-1,-5
88909772952,11,-1,-6,-8,1,-1,-6,3
88909772952,4,1,20,31,-2,-3,0,-2
88909773713,5,7,10,-25,3,3,3,2
88909773713,3,3,-23,-17,1,2,0,1
88909795509,-12,-10,8,-7,-10,-9,-10,-10
88909795509,-2,-2,6,3,3,0,1,0
88909796231,1,0,-22,-20,-3,-1,-3,-1
88909796231,3,2,31,6,-2,0,1,0
