timestamp,emg1,emg2,emg3,emg4,emg5,emg6,emg7,emg8
59614743188,-5,-2,0,1,0,-1,-1,-11
59614743188,-2,-2,-2,-1,-2,-2,-1,2
59614744875,1,-1,-1,0,-1,0,0,-2
59614744875,0,-1,-1,-1,-1,-1,-3,0
59614758191,-3,-1,0,-1,-1,0,-1,0
59614758191,0,-2,0,-1,-2,-2,1,-2
59614759779,-3,1,-2,0,1,-1,0,0
59614759779,-1,-1,-1,-2,-1,-2,-2,-4
59614780770,-1,1,-1,0,0,0,0,4
59614780770,-1,-1,-3,-1,-3,0,-1,-1
59614782363,1,-2,-1,0,-2,-1,-2,0
59614782363,-1,-3,-1,-1,-1,-1,0,2
59614795071,-3,-1,0,-2,-1,-1,-1,-2
59614795071,-2,0,-2,-1,2,-1,-2,-1
59614801859,0,-2,0,-1,-1,-1,-2,0
59614801859,0,-1,-2,0,0,-2,-1,-1
59614818229,-2,-1,0,-1,-1,-2,-1,-1
59614818229,1,-2,-3,-1,-2,-3,0,1
59614819810,1,0,-1,0,-1,0,-1,4
59614819810,-3,-2,-1,-3,-3,0,-1,-11
59614840691,-2,0,-1,-3,-1,-1,-3,1
59614840691,-1,0,-2,1,0,-1,0,-1
59614842342,-2,-1,-2,-1,-1,0,-1,-1
59614842342,0,-1,-1,-1,-1,0,0,0
59614855066,1,-1,0,0,0,0,2,-3
59614855066,-3,-1,0,-2,-2,0,-2,-1
59614861876,1,-3,-1,-1,-1,-2,0,-2
59614861876,-1,-2,-1,-1,0,-1,-3,-3
59614878460,-1,0,0,2,0,-1,-2,-2
59614878460,-1,-1,-1,-1,-1,-2,1,0
59614879951,-3,0,0,-1,0,0,-1,-5
59614879951,-2,0,-3,-1,-1,0,1,1
59614900867,-1,-1,0,1,-2,0,0,1
59614900867,1,-1,-1,0,0,-1,-4,-3
59614902429,-2,-1,-3,-2,-1,0,1,-2
59614902429,0,-2,1,0,-1,0,-3,0
59614915077,-2,0,-1,-3,-1,0,0,-2
59614915077,-2,-2,-1,-1,-2,0,0,-2
59614921855,-2,-2,0,-2,-2,-1,-2,-2
59614921855,-1,-1,-2,-1,0,-2,-2,0
59614938267,-3,-2,-2,-1,-2,-2,-1,-1
59614938267,0,1,-3,-1,-2,0,-2,0
59614939764,0,1,2,-1,-2,0,-1,-1
59614939764,0,0,-1,-1,-2,-1,-1,-2
59614968696,0,-1,-1,-2,-1,-2,-2,1
59614968696,0,-2,-2,-2,2,-1,-1,-6
59614975017,-3,-2,-1,-1,0,-2,0,0
59614975017,-3,-4,0,2,-1,0,-1,-3
59614975802,-1,-1,0,-3,-1,-2,0,1
59614975802,-1,0,0,-1,-1,-1,-2,-1
59614983359,-2,-3,-3,-4,-2,-3,-2,3
59614983359,-2,0,-3,-1,-1,-1,0,-9
59614998175,-2,-2,0,0,-1,1,-2,1
59614998175,0,-1,-1,1,-1,-2,-1,-2
59614999781,1,-1,1,-1,0,-1,-2,-1
59614999781,0,-3,-2,-4,-1,-3,0,2
59615020738,0,-2,-2,-1,-2,-3,-2,-2
59615020738,0,-1,1,-2,0,-1,-1,0
59615022313,-2,-1,-2,-3,-1,0,-1,-4
59615022313,1,-1,-2,-1,-2,-2,-1,2
59615034371,0,-2,-1,-3,0,-1,2,-3
59615034371,-1,-2,-1,-1,-1,-1,-2,1
59615043348,0,-3,-3,-1,-1,-1,0,-2
59615043348,0,0,0,-2,0,0,-1,2
59615058203,-2,-2,-1,1,-2,-1,-2,-2
59615058203,-2,0,-1,-1,-2,-3,-1,-1
59615059780,1,0,-2,-1,0,-1,-1,-1
59615059780,0,-2,-2,-2,-2,0,-1,0
59615088193,-2,0,-1,0,1,0,-1,-1
59615088193,-2,-2,-1,-1,0,-1,-1,0
59615089841,-3,0,-2,-1,-3,0,-2,-4
59615089841,-3,-1,-1,0,1,-2,-2,0
59615094385,1,-1,-2,-2,-3,-1,-2,1
59615094385,-1,-1,-2,0,1,-1,2,1
59615119097,-2,-3,-1,-2,-3,-3,-2,-1
59615119097,-1,0,-1,0,0,0,-3,-2
59615119672,-2,-1,-1,0,-1,-2,-1,-1
59615119672,-1,-1,2,-1,-3,0,-2,-2
59615121446,-1,0,-5,-1,-2,-1,-1,-1
59615121446,-1,-1,-1,-1,-2,-1,0,0
59615140934,-3,-1,-2,-2,0,-2,-2,0
59615140934,-1,-1,-2,-1,0,-1,-1,-1
59615142384,-1,0,-3,0,-1,0,-2,0
59615142384,-1,-2,0,-1,-4,0,-1,-1
59615154487,1,-3,-1,0,-1,-1,0,-1
59615154487,0,0,-3,0,0,-1,-1,1
59615163324,0,-1,0,-3,-1,-1,-3,-2
59615163324,-1,0,-4,-1,0,-1,0,-1
59615178557,-1,-1,-2,0,-3,-1,-1,-3
59615178557,-1,-2,-1,-1,-2,0,-2,-3
59615179890,-1,0,0,0,-1,0,1,-2
59615179890,-1,1,-3,-1,-1,-2,-2,0
59615200816,-1,-2,-1,-1,0,-1,-2,-1
59615200816,-1,-1,-2,-1,-1,-1,-3,0
59615202373,-1,-2,-1,0,0,-2,-3,1
59615202373,0,-1,-2,0,-2,0,0,0
59615223430,-1,-2,1,0,-1,-1,0,-3
59615223430,-1,-4,-2,-4,-2,-1,-1,-2
59615224942,-2,-1,-1,1,3,0,-1,-1
59615224942,-2,-3,2,-2,-2,0,-1,-1
59615238419,-1,0,-1,0,0,0,-3,0
59615238419,-3,0,-1,-2,-1,-2,0,0
59615239917,2,-1,0,-2,-1,0,-1,-2
59615239917,-1,-2,-2,0,-2,0,-2,0
59615260939,-1,-1,-1,-3,-1,0,0,0
59615260939,-1,0,0,0,-1,1,1,-3
59615262433,-2,0,0,-2,-2,-2,0,0
59615262433,0,-1,0,-1,0,0,-1,-1
59615274426,-1,0,-3,0,-1,-1,-2,-1
59615274426,0,0,-2,0,0,-1,-3,2
59615283382,-1,0,-1,-2,-1,-1,-1,-1
59615283382,-2,1,-2,0,-1,-1,0,0
59615298265,0,0,0,-2,1,-2,0,-1
59615298265,0,0,-1,1,-1,0,0,-2
59615299852,1,1,0,-3,-1,-1,-1,0
59615299852,-1,-1,-1,-1,-2,-2,-2,1
59615320711,-3,0,-3,-2,-1,-1,2,-1
59615320711,-2,0,-2,0,-1,-1,0,-2
59615322416,-1,-2,-2,0,-2,-1,-3,-1
59615322416,-2,0,-2,-1,0,-3,0,0
59615334408,0,-2,-1,-2,-3,-2,-3,-2
59615334408,0,-2,-1,-2,-1,-1,0,0
59615343348,-3,-3,-1,-1,-1,-1,1,0
59615343348,0,-2,-3,-1,0,-2,-1,-1
59615358199,-2,0,0,-1,-2,-1,-4,0
59615358199,-2,0,-2,-3,-2,0,-2,-3
59615359812,-1,0,-2,0,-1,-2,-2,0
59615359812,-2,-3,0,-1,1,0,1,-1
59615380759,-3,-2,0,-1,-2,-2,-1,-4
59615380759,0,-2,0,-2,-2,-1,-1,1
59615382342,0,-1,-1,-2,-2,0,1,0
59615382342,-2,-1,-1,-2,-1,0,-1,-2
59615403160,0,-2,-1,-2,0,-1,0,-1
59615403160,-2,-2,-1,-1,0,-2,0,1
59615404812,0,-2,-1,0,-1,-3,-2,-2
59615404812,-2,0,-2,-1,-2,-2,0,-2
59615418213,-1,0,-2,0,0,-2,-1,-2
59615418213,-1,-3,0,-2,-2,1,-1,2
59615419782,-1,1,-3,0,-1,-2,-2,-1
59615419782,0,1,-2,-1,-1,-1,-2,-1
59615440691,0,-1,-1,1,0,-1,0,0
59615440691,-2,1,-2,0,-1,0,-2,0
59615442326,-1,0,-1,-2,-2,-1,0,3
59615442326,0,0,0,0,-1,-1,-2,-10
59615462543,-2,-3,-1,-2,-1,-2,0,2
59615462543,-1,0,0,1,-1,-2,-2,-1
59615463465,-3,-1,0,-2,0,0,-1,-1
59615463465,-2,-1,-2,0,-1,0,-1,0
59615477542,0,-2,-1,-1,-2,-2,-1,-4
59615477542,-3,-1,-1,-2,-2,-1,0,-2
59615478427,-1,-1,2,0,-2,-1,-2,-1
59615478427,1,-2,-1,1,-2,-4,-2,1
59615500061,1,0,-2,-1,-2,-1,-1,2
59615500061,0,-1,-2,-2,-1,-2,-2,-1
59615500873,0,-1,-2,-1,0,0,0,-2
59615500873,-1,-2,-2,-2,0,-1,-1,0
59615522736,-2,-1,-1,-2,-2,-1,-2,-1
59615522736,-1,-2,-1,-1,-1,-2,-1,-2
59615523402,0,2,-1,0,-1,-1,1,-2
59615523402,-2,-1,-1,-3,-1,0,-1,-3
59615537757,-1,-1,1,1,-1,0,-2,1
59615537757,-1,1,1,-2,0,0,-3,-1
59615538392,1,-2,0,0,0,-3,-3,-2
59615538392,-1,-1,-1,-3,0,0,0,0
59615560023,-1,2,-1,0,0,-1,0,-2
59615560023,-1,-1,0,0,-1,-1,-1,-7
59615560858,0,0,-2,0,0,-1,0,1
59615560858,0,0,0,-1,-1,-1,-2,0
59615582618,0,-1,0,-1,0,-1,-2,-1
59615582618,0,0,-1,0,-1,-2,-1,1
59615583408,0,-1,-2,-1,-2,-2,-2,-3
59615583408,2,-1,0,0,-3,-2,0,-2
59615597581,0,-1,-1,-1,-1,0,-2,0
59615597581,0,-1,-1,-1,-1,-1,-2,-1
59615598402,-2,-2,0,0,-1,-1,-2,-3
59615598402,-2,0,0,0,0,-1,-1,1
59615620075,-2,-2,-1,-3,-2,-3,-1,-3
59615620075,2,-1,-2,-1,-1,-2,-2,2
59615620871,-1,0,-2,-2,-4,-2,-2,0
59615620871,0,0,2,-3,-2,0,-2,-1
59615642771,-1,-1,-3,-2,-1,-2,0,-2
59615642771,-2,-3,-1,0,-1,-1,-1,0
59615643420,-1,-1,-1,-1,-1,-1,-2,0
59615643420,-1,1,0,0,-1,-2,-2,-2
59615657639,-2,0,-1,1,1,-1,0,-2
59615657639,0,-1,-2,-2,1,0,0,-1
59615658431,0,-1,-1,1,1,2,1,-1
59615658431,-1,0,-2,-3,-1,-3,-2,-5
59615680247,-1,-1,1,-1,-3,-1,-1,1
59615680247,-2,0,-1,0,-2,-1,0,1
59615680867,-1,0,-1,-2,-1,-1,-1,0
59615680867,-2,-2,-2,0,-2,1,0,0
59615702550,2,-2,-2,-1,-1,-2,-2,0
59615702550,-1,-2,0,-2,-1,0,1,-2
59615703376,0,-1,0,-1,-1,0,0,0
59615703376,-1,-2,-1,0,-1,-1,0,1
59615727352,-1,-3,1,0,0,0,0,-2
59615727352,-2,-2,-2,0,1,-1,-1,-1
59615728093,-2,-3,0,0,2,-1,-1,-4
59615728093,-2,-1,-2,-2,0,-3,-1,0
59615740276,0,1,-1,-3,-1,0,-2,-1
59615740276,-3,-2,-2,-1,-3,-3,2,0
59615740844,-1,0,1,0,-2,-1,-2,-3
59615740844,0,-2,-2,0,-1,-1,-1,1
59615762775,-3,-2,0,-1,-1,0,0,-5
59615762775,0,-2,-2,1,-1,0,-2,1
59615763429,-2,-3,-1,-3,-2,-1,-2,-2
59615763429,-3,-1,0,-2,0,-2,-2,-3
59615777739,0,0,-2,-1,-1,-1,-1,0
59615777739,-1,-1,-1,0,0,-1,-1,0
59615778424,-1,-1,-1,-1,-1,-1,-1,-3
59615778424,-2,-1,-2,-1,-2,-1,-1,1
59615800264,-1,-1,-2,-4,-2,-1,1,-1
59615800264,0,0,-2,1,0,-2,-1,-3
59615800860,0,-1,-3,-3,-3,-2,-1,0
59615800860,-1,-1,-2,1,2,-1,-1,-1
59615822628,-1,0,-1,-1,0,0,-2,-1
59615822628,-1,-1,0,-1,0,0,-2,-2
59615823393,-1,-1,1,0,0,-1,-1,3
59615823393,-1,-2,-1,-4,-5,-1,1,-4
59615837739,0,0,-1,-1,-2,-2,-1,3
59615837739,-3,1,-1,-1,-3,-1,0,-1
59615838414,0,0,0,0,1,-2,-1,0
59615838414,-1,0,-1,0,1,-1,-3,0
59615860332,-2,-2,-3,-2,-3,-1,0,-3
59615860332,-1,0,0,-2,-1,-1,0,1
59615860955,0,-1,-3,-3,-2,-1,0,-4
59615860955,0,-2,-3,0,-4,-2,-1,-1
59615882582,-3,0,-1,-3,-2,-2,-1,-2
59615882582,0,-3,-2,0,-2,-1,-3,-1
59615883375,-1,-1,1,-1,-2,-2,1,-2
59615883375,2,-1,-2,-1,-1,-1,-2,-1
59615897619,0,1,0,0,0,-3,0,1
59615897619,-2,-1,-2,-4,-2,-3,0,-1
59615898393,-1,-1,-1,-2,-1,-2,-2,-2
59615898393,-2,0,0,-1,-1,-2,-2,1
59615928462,1,-1,0,0,-1,-1,-3,5
59615928462,0,-1,-3,-1,-2,-1,0,-3
59615929047,-1,-1,-1,-1,-1,-1,-1,0
59615929047,-1,0,1,-1,-1,-1,0,-2
59615942657,-1,-2,0,2,0,-2,-4,-1
59615942657,-2,-1,-1,-2,-1,0,-2,-1
59615943450,0,-1,-4,-1,-3,-1,-1,0
59615943450,-2,0,-2,-3,-1,-1,1,-1
59615957758,-1,0,1,-1,0,0,0,-2
59615957758,1,0,0,1,-1,-1,-1,-1
59615958404,-3,0,-2,-1,-1,0,-2,-4
59615958404,1,-2,-2,-2,0,-1,-1,-2
59615980278,0,-2,-2,-1,-1,0,0,-3
59615980278,-1,1,0,0,0,0,0,0
59615980839,-1,0,0,-1,-1,-2,0,0
59615980839,-3,-3,0,0,-1,-2,-3,0
59616002547,0,-3,-1,-2,1,0,-1,0
59616002547,-1,-2,0,-2,-2,-1,-2,0
59616003264,-2,-2,-1,-2,-1,0,-1,-2
59616003264,-2,-1,-2,0,1,1,0,0
59616025908,1,0,-2,-1,0,-2,-2,-1
59616025908,0,0,1,3,-1,-3,-2,-2
59616026575,-1,-2,0,-1,-2,-1,-1,-1
59616026575,-2,-1,-1,-2,-1,-2,-3,-2
59616040264,-3,0,0,-3,-1,0,0,-3
59616040264,0,-2,0,0,0,-1,0,1
59616040803,0,-1,0,0,-2,-2,-2,0
59616040803,1,0,-2,-4,-1,-1,-1,-2
59616062787,-1,0,-2,-1,-4,-2,1,-2
59616062787,-2,1,-1,2,-1,0,-1,-1
59616063406,1,0,0,0,-1,-2,-1,-1
59616063406,0,0,0,-1,0,-1,0,0
59616078454,0,-2,0,1,-1,-2,0,0
59616078454,-1,-2,0,-6,-2,-2,2,-4
59616085264,-1,0,0,-2,0,2,-1,-1
59616085264,0,-4,-3,2,-1,-3,-2,-1
59616100288,1,-1,-1,-1,0,-1,-2,0
59616100288,-2,-1,-1,0,-2,0,-2,-2
59616100987,-1,1,0,0,-2,0,-2,-2
59616100987,0,-1,-1,-2,-3,-1,-1,-1
59616130791,-2,-2,-1,-8,-3,0,-2,-1
59616130791,0,-1,1,3,1,-2,-3,0
59616131522,-3,-1,-1,-3,-1,-2,-1,-2
59616131522,-1,-1,0,1,-2,0,0,0
59616137043,-1,-1,0,0,0,0,-2,-2
59616137043,-1,-1,-2,-7,-2,-1,0,-2
59616145078,-1,-2,-3,-1,0,0,-1,0
59616145078,0,1,0,1,-1,0,0,-1
59616160172,-2,-1,-1,0,1,0,0,0
59616160172,-1,-1,-1,-1,1,-1,-1,-2
59616160839,-2,-3,-2,2,0,-1,-1,-1
59616160839,-1,-2,-2,-2,-1,-1,-2,-1
59616182776,-2,-1,-3,1,-2,-1,0,-1
59616182776,-2,-2,-2,-1,0,0,1,-1
59616183420,0,-1,-1,-1,-1,-1,0,0
59616183420,-2,-1,-2,-4,0,-1,1,-2
59616197135,-3,-1,-1,-1,-1,-1,-1,-1
59616197135,-2,0,-3,-2,0,-2,0,-2
59616205041,-1,-2,1,0,0,-2,-1,-2
59616205041,-3,0,-1,-1,-2,0,0,-1
59616228425,0,-3,-3,1,-1,-1,1,-1
59616228425,-2,-1,-1,-3,-2,0,-1,1
59616229071,-2,-1,-3,-3,-2,-2,1,-1
59616229071,0,0,-1,-1,-3,0,-1,5
59616242624,-2,-2,0,-2,-1,-2,-1,-9
59616242624,-1,0,-1,0,-1,-1,0,0
59616243478,0,-1,-2,0,-1,-2,-2,-1
59616243478,-1,-1,0,-1,-1,-2,0,-1
59616257188,1,0,-1,-1,0,0,-2,0
59616257188,-1,-1,-3,-2,0,0,0,0
59616265285,-2,0,-1,2,-2,-2,0,-2
59616265285,-2,-1,0,-2,0,0,-2,-5
59616280213,0,1,-2,-1,-1,-2,-2,1
59616280213,-1,-1,-1,0,-3,-1,-1,-4
59616280854,-3,-1,-4,-10,-3,0,-2,0
59616280854,-1,-3,-4,0,0,-1,-1,-1
59616302586,-2,-2,-1,0,0,-2,1,0
59616302586,-1,-2,1,-1,-1,-2,-2,0
59616303391,-1,-2,-2,-2,0,0,-2,-1
59616303391,0,-1,0,-2,1,-1,-1,-1
59616333233,-1,-2,-1,-1,1,-1,-1,-2
59616333233,0,1,-1,-3,-1,-1,0,1
59616334015,-1,-1,-3,3,-2,-1,-1,0
59616334015,-1,0,-1,1,-3,1,-2,-2
59616340068,-1,0,-1,1,-3,-1,-2,1
59616340068,-1,-1,0,2,1,0,-1,-2
59616340837,-1,-2,-2,-4,0,-1,-2,-1
59616340837,-2,0,-1,-2,-2,0,-1,-1
59616362523,-2,-2,-5,-3,-3,-1,0,-1
59616362523,-1,0,-1,-1,0,-1,-1,-2
59616363338,-1,0,-4,2,0,0,2,1
59616363338,-3,0,-1,-1,0,-1,-2,-2
59616385735,-1,1,-1,-3,-1,-1,-1,-2
59616385735,-1,-1,-1,-3,-2,-1,-3,-4
59616386524,-1,-1,0,2,1,-1,0,2
59616386524,0,-1,1,-3,0,0,-1,-2
59616400050,-1,1,1,-2,0,0,-2,0
59616400050,0,-2,-3,-8,-3,-3,0,-1
59616400806,1,0,1,3,0,-1,-1,-1
59616400806,-1,-3,-3,-12,-4,-2,-2,-1
59616430494,-2,-2,-5,-3,-1,0,-2,-1
59616430494,0,0,-1,3,0,0,0,1
59616431270,-1,-3,2,-3,-2,-1,1,-4
59616431270,0,-3,-2,5,-1,-1,-1,-2
59616445793,-2,-1,1,3,-1,-3,-3,0
59616445793,-1,1,0,-1,-3,-1,-2,-1
59616446549,-1,0,-5,-5,-3,-1,-2,-3
59616446549,0,1,0,3,1,0,0,-1
59616460070,0,-1,0,-9,-2,-1,0,-1
59616460070,-2,-1,0,5,-1,-1,0,-1
59616460819,-3,-2,2,-6,-2,-3,-1,-1
59616460819,-2,-1,0,-5,-3,-6,-2,0
59616482525,-2,-2,-1,1,0,4,-1,-1
59616482525,0,-2,-1,14,3,5,-2,-1
59616483371,0,2,1,-15,-3,-11,-5,-1
59616483371,-2,-3,-1,16,-1,0,0,-1
59616505819,0,-1,0,-6,0,-5,0,-1
59616505819,-2,-1,0,5,-2,3,0,-2
59616506614,0,0,0,4,3,4,3,4
59616506614,0,-1,0,-2,-3,-1,-2,-1
59616520292,1,0,-2,3,-5,-6,-5,-2
59616520292,-1,-2,-3,-3,-1,-1,-3,-1
59616520884,1,-1,1,9,0,-4,-1,-2
59616520884,2,1,2,1,3,5,0,2
59616542511,-2,-2,-3,-3,0,2,1,-3
59616542511,-2,-2,-2,-14,-5,-10,-1,1
59616543339,-3,-2,-4,-1,-2,6,-1,-5
59616543339,1,-2,-2,2,0,-7,-4,4
59616565983,-2,0,0,4,0,-1,-4,-3
59616565983,-1,-1,0,3,-1,0,-1,-2
59616566550,-3,-3,0,-6,-4,-3,-1,-2
59616566550,-2,-2,-3,-4,0,8,2,-3
59616580251,1,2,0,-2,3,2,0,3
59616580251,0,-3,0,-3,-4,-5,0,-3
59616580818,3,-2,-4,-9,-4,1,-4,-7
59616580818,-4,-2,-3,1,-4,-7,-3,7
59616602752,-3,-1,-1,-2,0,-6,3,-2
59616602752,-3,-2,0,-5,0,15,-4,-2
59616603333,1,2,0,13,2,-10,-3,2
59616603333,1,-1,0,-7,3,6,1,-2
59616625928,0,-2,-1,5,-2,-18,1,0
59616625928,0,3,0,1,-1,11,5,1
59616626598,-4,-4,-6,-2,0,4,-5,-6
59616626598,1,0,0,7,-4,-14,-3,-2
59616640254,-8,-3,-1,-2,-5,9,-2,-2
59616640254,3,0,0,0,-4,-25,-13,1
59616640858,-3,0,-2,-11,0,16,14,5
59616640858,0,0,-1,7,4,16,2,-3
59616662745,2,-2,1,0,0,-9,-5,0
59616662745,-2,-1,0,-6,1,-5,-1,-5
59616663432,4,1,0,8,1,4,-2,3
59616663432,-6,-4,-2,11,-7,-26,-4,-3
59616685742,-1,-2,-5,-20,1,10,1,0
59616685742,-2,1,0,-8,-3,1,-2,-5
59616686472,-1,-2,-1,6,0,-4,2,8
59616686472,0,0,0,0,-5,-3,2,-6
59616700024,0,0,-2,9,3,10,-2,1
59616700024,0,6,-1,6,5,-5,0,4
59616700780,-1,0,0,-10,-6,5,3,-1
59616700780,1,1,-1,-14,-4,-10,-7,1
59616722468,1,0,0,10,1,-2,1,3
59616722468,1,-1,-3,-6,-3,8,-1,-2
59616723291,-3,-2,0,11,1,-4,-2,0
59616723291,-1,0,1,-5,-1,-23,-5,1
59616745672,-1,-1,-1,-6,2,16,4,-7
59616745672,0,-4,2,0,2,-11,0,-2
59616746484,-1,-2,-3,-8,-10,-4,-4,-4
59616746484,-3,-2,-2,-8,0,1,-1,0
59616760025,-3,0,-2,5,2,-1,-11,-2
59616760025,-3,-3,-5,-3,-11,8,4,-2
59616760780,0,0,1,1,9,12,4,-6
59616760780,-2,2,0,-11,-4,-21,2,-2
59616782633,1,-3,2,11,1,5,1,0
59616782633,0,-2,1,4,28,13,3,3
59616783431,1,-1,-1,2,2,12,-2,-2
59616783431,-1,5,-5,-4,-4,16,2,-9
59616805948,-5,-14,-3,-7,-3,-35,-11,6
59616805948,-2,0,-4,0,-8,10,-1,3
59616806492,-5,1,3,0,-3,-24,-2,-5
59616806492,-2,0,1,-5,-2,7,-6,-8
59616820229,-1,3,-5,-8,-7,4,8,4
59616820229,-2,-2,0,2,-2,-3,-10,-7
59616820826,-3,-4,-1,5,3,-13,-7,-3
59616820826,0,-4,-5,-6,-6,23,3,2
59616842711,-2,1,-2,-3,-2,-7,3,-4
59616842711,-1,-2,1,1,5,-18,6,3
59616843465,2,0,-1,-4,-4,7,-6,-2
59616843465,3,-1,-1,-3,0,-3,-1,-2
59616865959,1,1,-1,20,-5,14,0,0
59616865959,-1,-2,-1,-5,1,10,-5,-5
59616866543,-4,-2,0,-3,-10,-18,0,-2
59616866543,-3,-3,-7,-5,-4,-23,-1,3
59616880023,2,2,2,0,8,10,-1,-3
59616880023,2,0,1,6,2,11,5,2
59616880821,0,-1,-1,-13,-4,-5,-1,2
59616880821,-3,-5,-1,14,-2,27,3,0
59616902500,2,0,-3,-16,-11,-42,1,-7
59616902500,-4,1,4,13,5,-14,-6,9
59616903371,-2,-1,0,1,2,15,2,-4
59616903371,1,0,-2,7,7,6,-2,0
59616925852,-4,-2,0,-6,-1,15,-5,-5
59616925852,1,-3,-7,-8,-9,0,7,1
59616926489,1,-1,-5,1,-3,-21,-12,0
59616926489,-2,-1,-2,-3,-2,-1,4,-9
59616940257,2,3,3,-6,13,2,-9,5
59616940257,-3,-5,2,-4,2,16,6,-5
59616940871,-5,-2,-6,-1,-19,-34,-21,-10
59616940871,1,0,-3,5,8,33,7,2
59616962755,1,1,2,-6,2,4,1,-1
59616962755,2,4,-3,-18,-14,-27,3,-3
59616963345,-2,-5,-1,3,4,0,3,6
59616963345,-2,-3,1,-6,-7,0,-5,-3
59616986001,-2,-2,-3,1,-5,-11,-8,-4
59616986001,0,-2,1,4,-1,-10,4,4
59616986543,-4,-5,-4,-1,8,53,10,-2
59616986543,3,1,5,0,3,-34,-9,1
59616999477,-2,-1,0,4,-11,16,4,-5
59616999477,1,-2,-4,-14,-8,-34,-8,2
59617007537,-1,-1,-1,5,-6,7,7,-2
59617007537,-2,-1,-1,-2,15,2,8,4
59617022484,3,2,4,9,0,-1,0,0
59617022484,-1,-2,-5,-4,-7,18,-4,-7
59617023326,-2,0,2,-13,1,-1,-4,1
59617023326,-6,-3,-1,11,-11,-24,-5,-3
59617044927,-1,-3,-3,-1,4,11,-1,0
59617044927,-4,-4,3,13,6,-4,-3,-1
59617052740,-3,-2,-11,-23,-1,-2,2,0
59617052740,0,0,2,9,-2,4,-11,-7
59617059610,4,5,-1,-11,-3,3,4,-2
59617059610,-8,-11,-3,-3,3,5,13,4
59617067653,4,2,12,22,-1,-4,-8,-4
59617067653,0,-2,-4,-8,-1,-7,-3,-10
59617082626,-6,-3,0,11,1,-2,1,6
59617082626,1,3,-6,-18,-2,0,-7,-1
59617083306,2,1,6,0,2,-10,-2,-2
59617083306,-3,-3,2,7,4,-2,7,10
59617105925,3,2,1,-9,7,3,-3,-5
59617105925,-1,0,-3,0,3,27,-1,3
59617106603,4,1,2,23,2,-36,-1,5
59617106603,-1,1,1,-5,-9,11,1,0
59617119620,-4,-2,-2,-36,-1,-11,-2,-8
59617119620,-4,-3,-6,16,-12,-19,-10,-10
59617127775,-2,3,-9,-23,0,33,0,-8
59617127775,-6,-16,3,15,21,12,9,7
59617142754,0,-2,-5,-3,-6,-6,-7,-15
59617142754,-1,1,0,12,3,-13,11,8
59617143427,-5,-2,-7,-33,-8,-7,-12,-3
59617143427,2,4,-7,-15,-5,-13,-11,-4
59617165972,-4,-3,5,3,0,13,8,-3
59617165972,-1,-2,-2,8,-8,5,-7,-2
59617166633,-2,-4,-6,25,10,-2,-6,-2
59617166633,1,2,0,4,-8,-13,-3,-1
59617179483,1,-3,-5,-12,7,8,6,4
59617179483,7,4,6,44,2,14,9,12
59617187702,-2,-2,-4,-54,-18,-32,6,-2
59617187702,3,1,-2,-7,6,27,-17,-6
59617202452,2,1,-1,30,1,-13,11,14
59617202452,-4,-2,-3,-31,-4,5,-1,-21
59617203571,1,1,8,24,0,4,1,13
59617203571,-4,-4,-7,-30,-21,-15,-6,-6
59617226065,-1,5,-11,-19,0,-8,-18,6
59617226065,-1,0,4,-19,5,7,1,-6
59617226506,-2,0,7,57,8,10,7,5
59617226506,3,4,-2,7,6,1,5,4
59617239515,-3,-2,-2,-24,-15,-10,-6,-3
59617239515,0,-2,-3,-18,-8,-14,-15,-9
59617247575,2,1,3,14,10,4,2,-5
59617247575,1,5,4,7,-2,8,6,-8
59617262973,-4,-4,-2,14,3,-3,6,1
59617262973,2,-1,-5,-27,-2,-1,4,0
59617263743,-2,-4,2,3,-8,-7,-7,-16
59617263743,4,-1,-6,-15,1,-1,5,17
59617285900,8,7,6,19,-6,-11,-1,-9
59617285900,-9,-18,0,13,10,14,-23,-6
59617286530,29,8,3,-16,-4,1,20,8
59617286530,-14,2,3,6,7,9,0,-24
59617308217,2,4,5,12,-6,-15,-25,-33
59617308217,22,9,-3,-11,-9,-3,58,48
59617309067,-7,-3,-5,7,6,2,13,5
59617309067,-14,1,-9,-10,0,4,11,20
59617322695,22,-6,5,6,-1,11,20,6
59617322695,-6,6,0,0,0,-21,-29,-39
59617323338,10,0,-3,-2,4,12,-4,-28
59617323338,8,12,9,8,-1,3,51,33
59617345923,-18,2,-7,-6,-4,9,-12,10
59617345923,2,-3,1,1,3,-11,-6,31
59617346559,13,4,1,-11,-3,-1,-9,-25
59617346559,-7,-4,1,1,-12,-37,-47,-26
59617368451,3,-3,-4,0,6,29,6,23
59617368451,5,2,5,6,4,16,31,4
59617369093,-10,-5,-9,-10,-1,7,3,-13
59617369093,6,-6,-5,-1,-8,-19,-15,-26
59617382728,-1,-7,-6,-14,-12,-30,9,71
59617382728,-30,-7,-2,4,-9,15,-25,-65
59617383421,-7,-1,3,5,13,-4,4,36
59617383421,-5,-5,0,-5,-6,4,-34,-2
59617405713,-2,-7,-4,6,3,-6,47,-10
59617405713,-1,2,0,-3,-5,-10,-25,-58
59617406476,-18,-2,-9,-7,-6,-3,-14,20
59617406476,11,-21,-4,-8,0,6,-30,-65
59617428336,-7,10,7,8,-4,-2,-3,7
59617428336,6,-2,-5,4,6,-13,18,36
59617429081,2,1,4,-9,-3,6,-40,-47
59617429081,21,9,0,2,0,-2,65,18
59617442535,-22,-8,-3,-2,6,21,-28,-11
59617442535,-1,6,3,-4,-9,-2,2,-2
59617443358,-4,1,7,-2,-4,-23,-11,-15
59617443358,-5,-1,-1,3,7,0,-8,4
59617465679,13,-4,-5,-12,-11,2,-18,41
59617465679,-6,3,-4,4,4,-14,0,3
59617466517,-11,-12,-8,-6,-4,7,-2,22
59617466517,-1,0,0,-3,-7,4,-14,-29
59617488423,-7,-4,0,3,1,-10,2,-27
59617488423,6,-1,-6,0,-3,-4,-10,53
59617488979,-6,-4,-6,-4,-1,7,9,27
59617488979,-8,-4,-5,-1,-3,-3,-2,-25
59617502527,-7,0,2,6,5,-17,-16,-50
59617502527,-8,-2,-2,-8,-4,-1,-13,-25
59617503398,8,0,-5,1,3,0,14,41
59617503398,4,5,7,4,11,18,22,15
59617525980,-3,-5,-5,0,-5,-9,-16,-15
59617525980,1,0,2,1,2,1,-12,-23
59617526573,8,2,4,4,5,12,43,35
59617526573,-9,-3,-3,-5,-2,0,-19,-1
59617549705,-3,2,2,-8,-17,-17,4,-33
59617549705,-7,-3,4,8,15,3,-5,-34
59617551271,-6,-1,-5,-3,-3,8,8,-45
59617551271,-6,1,-1,-3,-4,-14,-7,20
59617570900,-1,1,1,2,7,6,-13,-9
59617570900,0,-2,-5,-10,-9,-4,-8,0
59617571591,0,-4,-5,-1,-4,-10,-12,51
59617571591,-7,-3,-5,-5,-1,26,-1,4
59617585745,10,1,0,-2,-3,-24,3,-4
59617585745,-17,-2,6,1,-3,-5,-26,-5
59617586582,0,-4,-6,-3,-1,2,24,6
59617586582,1,-2,-3,-4,-10,-8,5,6
59617608428,-8,-17,-2,-3,-2,-4,-12,1
59617608428,17,3,4,8,18,23,15,33
59617609006,-5,0,4,-2,-6,-5,-26,-37
59617609006,3,-10,-12,-2,-10,0,28,99
59617621918,2,6,0,-6,9,-4,6,-32
59617621918,7,-2,-2,-2,-5,2,7,28
59617630844,-24,-16,-3,-2,-5,-5,-6,13
59617630844,-5,4,6,7,8,10,29,-20
59617645907,8,4,-2,-4,0,9,16,21
59617645907,-5,-4,-3,-4,-6,-1,12,-5
59617647356,5,7,4,1,-4,-6,-30,-28
59617647356,1,-2,-5,-5,0,-12,-2,13
59617668501,-1,4,5,8,0,1,-29,-26
59617668501,-2,0,-5,2,-1,3,3,-8
59617669864,6,2,2,-3,1,-3,0,11
59617669864,-8,-2,-2,-1,-5,-24,-25,-45
59617682061,-3,-1,-3,-1,4,10,-11,-18
59617682061,-15,-8,-1,-2,-7,-12,3,-29
59617690964,1,2,0,0,2,-6,-17,-28
59617690964,-1,4,3,3,7,29,-17,29
59617705940,-3,-4,-3,-3,-7,-8,23,1
59617705940,9,2,-3,-7,-13,-24,2,-15
59617707459,-6,-18,1,1,12,13,25,7
59617707459,9,5,4,4,6,5,-9,-18
59617728411,-4,-2,-1,-1,-11,-1,24,3
59617728411,-1,-4,-8,-4,-7,0,-6,56
59617729848,-10,2,-1,2,-1,-16,-15,-29
59617729848,5,1,1,0,4,4,1,14
59617742064,-14,-2,3,1,0,6,10,39
59617742064,9,2,0,1,-4,-5,5,-3
59617750824,-9,4,-3,-5,-5,0,-10,-2
59617750824,-6,-4,0,3,3,1,22,-23
59617765877,4,-4,-6,-4,2,3,0,-2
59617765877,-1,3,0,2,0,1,-17,-23
59617767411,12,2,-7,-5,1,0,24,27
59617767411,3,3,6,3,-8,-19,-22,-38
59617788309,-2,-3,-5,-11,2,12,-4,9
59617788309,1,-3,4,2,-5,-2,-2,-1
59617789874,-1,-1,-3,0,2,0,-20,-10
59617789874,-3,-3,-9,-8,-2,-3,9,14
59617801866,5,-2,-2,0,-1,16,-2,7
59617801866,0,-3,-4,8,5,-15,-5,7
59617810862,1,3,2,-11,-6,0,4,-10
59617810862,-3,1,6,9,2,1,-5,14
59617825766,-4,-1,-3,-37,-10,-6,-5,-7
59617825766,2,-1,0,-11,3,4,1,2
59617827348,-1,0,0,16,-3,-5,-1,-4
59617827348,1,0,2,19,3,-3,-3,5
59617848425,-2,1,2,-14,1,4,-6,1
59617848425,-4,-5,-5,-10,-5,-4,3,1
59617849824,2,2,7,7,-2,3,2,0
59617849824,0,-4,-3,-21,-1,1,-6,5
59617870924,-1,-1,3,24,4,-14,-4,-1
59617870924,-1,0,-1,-14,-1,16,-1,4
59617872373,1,-13,-5,1,-2,-9,3,-4
59617872373,2,0,-3,5,-3,-10,-4,3
59617885834,-6,-3,-1,6,-1,-5,-9,-6
59617885834,9,-10,4,-2,1,5,2,0
59617887383,-2,2,-1,2,-3,-1,-5,-4
59617887383,-1,-1,1,6,0,6,0,2
59617908397,2,-4,-2,-8,0,-4,3,3
59617908397,-5,-2,-12,-15,-5,4,0,1
59617909836,-1,4,2,-7,-2,-3,-2,-7
59617909836,-3,-3,-4,-7,-6,-7,-3,-5
59617921914,-1,5,4,28,7,-7,-4,4
59617921914,-3,4,1,19,0,4,0,-2
59617930830,1,1,-4,-25,-2,9,-1,1
59617930830,-3,0,-2,2,-3,-1,1,0
59617945867,-1,-2,-2,-10,-6,-11,-2,1
59617945867,-2,2,2,12,6,11,-4,0
59617947375,-1,-2,-3,-12,-1,-22,-5,-1
59617947375,-1,-1,1,0,-3,-1,-1,-7
59617968425,-1,0,-1,6,-2,11,1,-3
59617968425,-5,-5,-4,-18,0,-15,-2,-1
59617969792,6,4,4,12,3,7,-1,4
59617969792,-5,0,-2,-6,3,11,1,-9
59617990749,0,-1,-2,-1,-6,-8,-3,-8
59617990749,1,3,-2,6,7,15,4,5
59617992377,-2,0,-1,0,-8,-17,-7,-6
59617992377,-3,-1,-3,-12,0,0,-2,0
59618005116,1,-2,-9,2,4,-3,0,3
59618005116,-1,3,1,-2,-6,-5,-6,-3
59618011888,-5,-15,0,-1,-10,-6,-3,-2
59618011888,-2,0,0,-3,12,27,1,-7
59618028196,-1,1,4,0,-4,-14,3,1
59618028196,2,0,4,2,-1,-3,-1,-3
59618029815,0,3,-3,4,0,1,2,1
59618029815,-1,-3,-2,-6,-4,-9,-8,1
59618042084,-1,-4,-4,-3,-6,2,-4,2
59618042084,-6,-1,-3,0,6,3,8,-10
59618050913,11,1,-3,0,0,6,2,35
59618050913,1,3,-1,0,-4,-6,1,1
59618073420,-2,-1,-7,-2,2,-1,-3,-8
59618073420,9,-2,-1,0,-10,-14,3,27
59618074853,-3,1,0,1,5,8,-2,-15
59618074853,-1,-4,0,3,-2,-12,2,3
59618088363,2,1,3,-2,-4,-3,-2,7
59618088363,-5,-3,-5,-1,-1,5,-5,-12
59618089849,-5,0,-3,2,2,8,4,-6
59618089849,0,-1,-1,-2,-1,-4,2,12
59618101896,-1,0,3,2,-1,1,-3,-2
59618101896,-2,-1,-2,-5,-1,9,-10,-6
59618110786,0,2,-2,-2,-9,-32,1,-4
59618110786,1,-1,0,6,9,10,5,-2
59618124587,-2,-3,-1,1,2,9,0,0
59618124587,-5,-1,0,-1,-2,-4,-4,-2
59618133420,4,0,-5,-1,-7,7,4,1
59618133420,-2,-3,-3,-5,-3,-17,-2,-2
59618148403,-4,-3,-2,-1,0,9,3,6
59618148403,-1,-2,0,2,4,-3,-1,-2
59618149867,-4,0,-2,-4,0,-10,-1,-8
59618149867,-4,-1,0,-5,-8,-1,-1,-9
59618162075,1,1,-3,-3,1,9,2,5
59618162075,1,-3,-4,0,-7,-7,0,1
59618170972,-5,0,0,1,4,2,0,-6
59618170972,0,-1,-2,-3,-5,-2,-4,-5
59618185056,-2,-4,-7,1,4,11,2,-3
59618185056,-2,2,-2,-3,-7,-19,-8,-10
59618192126,0,0,-2,-5,0,4,2,2
59618192126,-4,-4,0,-1,-4,1,-4,-6
59618208401,0,-1,1,1,-3,-13,-1,-5
59618208401,-2,-1,1,2,7,10,0,-2
59618209869,-2,-2,-1,1,2,10,4,1
59618209869,-2,-1,-2,-6,-6,-11,-10,-4
59618230760,2,-2,-5,-8,5,13,4,5
59618230760,-2,1,0,4,1,-12,-1,0
59618232439,-1,-3,3,-1,-3,1,-7,-4
59618232439,1,-1,-4,-3,-4,10,0,0
59618245070,-2,-1,1,5,4,-11,-9,-2
59618245070,2,0,2,0,0,2,9,5
59618251793,1,0,-1,-4,3,11,0,-2
59618251793,-4,-3,-2,-1,-3,-11,-2,-4
59618268508,-2,1,-1,1,-5,-4,-1,2
59618268508,-1,-1,2,-2,0,6,-4,-5
59618269868,-6,-1,-2,1,-1,-6,-4,-3
59618269868,6,0,-1,-1,-3,-20,-1,6
59618298427,1,-3,2,-4,4,11,0,1
59618298427,-1,1,0,1,-5,-11,3,5
59618299889,7,0,0,1,3,12,-1,-14
59618299889,-5,0,-1,1,2,2,-3,-19
59618305361,-1,0,0,-3,-7,-5,-3,-7
59618305361,-3,-2,-1,1,1,-10,-3,0
59618311892,-6,-2,-2,-4,-1,9,1,-6
59618311892,-2,0,-2,-1,-2,-5,-3,7
59618328438,-1,-3,-1,0,-6,-26,-12,-1
59618328438,-2,0,0,-2,5,28,13,-10
59618329898,2,3,0,5,6,1,-2,11
59618329898,1,-1,4,0,0,10,3,4
59618358423,-5,-1,-4,-4,-3,3,-7,-3
59618358423,-8,-4,-4,-3,-11,-24,-10,-10
59618359938,0,-2,1,1,-2,-13,-4,7
59618359938,1,1,0,2,8,18,7,5
59618364516,-3,1,2,-1,-1,3,3,-5
59618364516,-1,-1,1,-7,-1,17,-1,-5
59618373483,-4,-3,-2,-5,-8,-31,-6,-1
59618373483,-1,-1,-1,6,-2,-1,-5,-6
59618388290,-1,0,-2,0,-1,7,1,-2
59618388290,1,0,0,-4,-1,-15,1,3
59618389826,0,0,2,3,6,23,6,2
59618389826,-3,-3,-2,-4,-2,-9,-7,16
59618410768,0,1,-1,-1,-1,1,1,-2
59618410768,0,-2,-4,2,-5,-4,-2,7
59618412423,-7,-2,-3,-7,-6,-8,-1,-14
59618412423,-1,-3,-7,3,4,2,-3,11
59618424622,4,1,2,-1,3,4,3,-3
59618424622,-2,-1,-3,-4,-2,3,0,-5
59618433411,-10,-3,0,-3,-3,-5,-3,9
59618433411,0,-2,-1,-4,-3,5,0,-4
59618448173,-3,-1,-3,5,0,-5,3,0
59618448173,0,0,-4,-4,-1,-8,-6,-2
59618449757,1,-1,-4,-2,-4,5,2,1
59618449757,-4,0,1,-1,2,-2,0,-2
59618470909,-2,1,0,-1,1,-7,-2,-5
59618470909,-3,-3,0,2,2,5,0,-5
59618472431,6,0,-2,2,0,5,0,2
59618472431,-1,-4,-1,-2,-5,-8,-4,-11
59618484435,-1,-1,-3,-4,-2,-4,-1,0
59618484435,3,1,3,-2,1,-3,2,12
59618500806,-2,-2,1,3,-2,6,-5,-9
59618500806,-2,-1,-1,-9,-2,-6,1,-6
59618508204,-2,-2,-4,-3,-2,4,2,3
59618508204,-8,0,-1,-4,0,-1,-1,8
59618509841,-4,-1,-2,-4,1,-4,-1,-8
59618509841,1,1,0,1,-2,0,-2,0
59618530898,-3,-2,1,0,0,1,0,-3
59618530898,2,0,0,3,-1,0,-2,-2
59618532395,1,-1,-1,1,-1,-3,-2,2
59618532395,-4,-1,-2,-5,-3,-3,0,0
59618544579,1,-3,-1,2,-3,0,-5,-2
59618544579,2,-1,-1,2,0,1,3,-2
59618553397,3,-2,-3,-2,-1,-2,-4,2
59618553397,2,1,-2,-3,-3,-1,2,1
59618567528,-4,-2,2,2,0,-1,-1,-7
59618567528,7,1,-3,-8,-2,-2,-2,3
59618575909,-2,-3,-1,-4,-3,-3,-1,0
59618575909,0,3,-1,2,0,-2,-1,1
59618590766,1,6,1,-7,-2,-2,-2,-1
59618590766,5,-14,-1,2,-1,1,-1,1
59618592363,-4,-2,0,-3,-2,0,1,1
59618592363,-3,-2,0,2,1,0,0,-5
59618604648,4,0,0,-1,-2,0,0,4
59618604648,-1,2,-1,-3,-1,-1,-1,-11
59618613452,-2,-1,-1,4,2,0,0,-1
59618613452,-2,-2,-1,-5,-4,-2,-1,0
59618628312,-4,-3,-1,12,1,-1,0,2
59618628312,-2,0,1,-4,1,-1,-4,0
59618629803,1,-3,-2,-3,0,0,-1,-2
59618629803,1,2,-1,-7,1,0,1,1
59618650681,2,-4,-2,-5,-1,-4,-3,0
59618650681,3,4,-1,7,-2,-1,-1,-2
59618652309,-1,4,2,10,0,-1,1,-1
59618652309,3,4,-3,-6,-1,0,-2,-4
59618664471,-1,-14,-1,-2,0,-1,0,1
59618664471,4,-3,-2,-2,-1,0,-1,3
59618673445,-2,1,-2,-4,-1,-3,-2,-2
59618673445,6,-2,0,8,-1,0,-2,-5
59618688248,3,3,-2,-10,-1,-1,-1,15
59618688248,-6,2,-2,2,-1,-1,-2,-5
59618689795,-2,-1,-2,-3,-1,-1,0,0
59618689795,0,1,-3,2,-3,-2,-3,-1
59618710827,4,1,-1,-1,-1,0,0,2
59618710827,-13,-3,-2,-4,-2,1,-1,-13
59618712397,1,1,0,-3,-2,-2,0,1
59618712397,-4,-4,-2,-8,-2,-1,-1,-1
59618724665,-1,2,0,12,-1,-2,-3,-5
59618724665,-1,2,-1,18,3,1,0,2
59618733353,-13,-8,-6,-33,-10,-1,-2,-3
59618733353,-3,0,2,9,2,1,0,-1
59618748342,-6,-2,-3,-14,-2,0,1,-5
59618748342,-2,-1,-1,-2,1,-1,-2,-2
59618749848,1,0,1,9,1,-1,-2,-1
59618749848,0,-3,-1,-1,-1,-1,-1,2
59618770646,-4,-1,-1,-1,-1,-1,0,-4
59618770646,-1,0,0,-1,-2,-2,1,0
59618772321,0,-1,-3,-6,-2,-1,-2,0
59618772321,3,-2,0,-2,-1,-3,-1,-2
59618784654,-4,-2,-1,11,2,0,0,-1
59618784654,-2,5,1,-6,-2,0,-1,-5
59618800887,0,-3,-1,3,0,0,0,-1
59618800887,-2,2,-1,0,0,1,1,-1
59618808446,-5,-1,-2,2,-2,-2,-1,-3
59618808446,-2,-3,-1,-5,-2,-1,-3,1
59618809850,-1,0,-1,2,-1,-1,-4,-5
59618809850,-4,-2,-1,1,-1,1,0,-3
59618830935,0,-1,-1,-5,-2,-1,-2,-2
59618830935,-3,-4,-3,-6,-2,-3,-2,2
59618832395,2,2,0,2,1,-1,1,-7
59618832395,-2,-4,-1,-7,-1,-1,-1,-3
59618844379,1,0,0,-2,0,0,-1,13
59618844379,7,1,-2,-5,-5,-1,-1,0
59618853334,0,0,-2,3,-1,-4,-2,0
59618853334,-5,-19,-2,1,1,-2,-3,-1
59618868323,-1,2,1,-2,0,1,1,-5
59618868323,-4,-1,-2,3,-4,-1,-2,0
59618869832,1,-1,0,-3,1,0,0,5
59618869832,-2,2,-2,-4,-1,-1,1,-2
59618890706,1,-3,0,3,2,-1,0,-1
59618890706,-3,-4,-1,-12,-1,0,-1,2
59618892344,4,0,-2,1,-1,1,-1,4
59618892344,-3,4,-1,2,-1,-1,-2,-7
59618904487,-3,1,1,-3,-2,-2,0,-9
59618904487,0,2,-2,0,-1,-2,-1,9
59618913416,0,-7,-2,0,0,-1,1,2
59618913416,2,14,3,2,1,0,1,1
59618928465,2,2,-3,-2,-2,-3,-6,-5
59618928465,2,-4,2,0,0,0,-1,-7
59618929820,0,2,-1,-1,-2,-1,-1,-8
59618929820,-5,-16,-4,-4,-3,-1,0,27
59618950989,2,12,2,-2,0,1,-1,-10
59618950989,-1,-10,0,0,0,0,0,3
59618952413,-5,3,-1,-2,-1,-2,-2,-19
59618952413,3,0,-4,-3,-3,-2,-1,10
59618964388,-1,-1,-1,-3,-1,-2,-1,0
59618964388,12,8,-2,-1,-1,-1,-1,-11
59618973339,-4,0,1,2,1,1,1,9
59618973339,6,-1,-2,-1,-3,-3,-3,-5
59618995452,3,-2,1,2,0,0,-1,4
59618995452,1,6,2,-2,-2,0,-2,-1
59619011536,0,-5,0,-1,-3,-1,1,1
59619011536,-2,7,2,0,-2,0,1,-10
59619013058,0,-4,-1,-2,-1,-2,-1,6
59619013058,-6,-6,-3,0,0,-3,0,0
59619014769,10,1,-3,-2,-4,-3,-4,5
59619014769,-6,2,3,-1,1,1,-2,-11
59619024429,-4,-3,-4,-1,-1,0,0,-3
59619024429,0,7,0,0,0,-1,-2,-1
59619033448,-15,-4,-1,0,0,-3,-3,-1
59619033448,3,0,-2,-1,-2,-1,1,-1
59619047582,-3,4,-4,-3,-2,-1,-2,6
59619047582,-30,-11,-4,-3,-1,-2,-1,-25
59619054452,6,8,3,0,2,0,0,3
59619054452,-1,-2,-2,1,0,0,-1,0
59619070815,-2,-5,-1,-3,0,-1,1,6
59619070815,8,-3,-2,-2,-2,-1,0,-3
59619072375,4,4,0,1,-1,-2,-2,2
59619072375,-14,-4,0,-1,0,-2,-2,-42
59619084303,-1,-12,-4,-4,-5,-1,-3,-5
59619084303,-18,-4,-2,-1,1,0,-1,16
59619093407,0,-9,-3,-3,-1,-2,1,-14
59619093407,10,3,0,0,-1,-1,-3,13
59619107796,0,-1,-1,-3,-2,0,0,1
59619107796,-11,-2,-1,-1,-2,-1,0,-17
59619114620,-8,-8,0,-2,-2,0,-3,-2
59619114620,-5,1,-2,-2,0,-2,-1,7
59619130685,-4,-2,-2,1,-1,-2,-2,-11
59619130685,14,5,0,-1,-1,-1,-2,12
59619132332,-3,-6,-1,-1,-1,1,0,3
59619132332,-3,-5,-3,-2,-2,-4,-1,-6
59619144547,0,2,0,-1,0,-2,-1,-1
59619144547,23,-3,-1,-3,-1,-1,-2,8
59619153426,-1,0,0,1,0,-2,1,5
59619153426,-2,-3,-2,-3,-1,1,-1,13
59619167804,3,-5,-1,0,0,0,-1,20
59619167804,-16,6,0,1,1,0,-3,-13
59619174650,-16,-11,-4,-3,-1,-1,-1,-4
59619174650,6,-5,-3,-2,-1,-1,-1,2
59619189749,-14,2,0,0,-1,-2,1,-12
59619189749,19,3,-3,-2,-3,-1,-1,2
59619205863,-1,-8,-3,-2,-1,0,-1,7
59619205863,-10,-1,1,0,0,-1,0,-12
59619213413,5,0,-1,-1,-2,1,-2,-7
59619213413,-3,-6,-2,-1,0,-1,-1,2
59619214873,-2,7,-2,0,-2,-2,0,-8
59619214873,8,1,-2,-2,-3,-1,0,7
59619227770,-6,-2,-1,-2,-2,-1,1,-8
59619227770,-4,-4,0,0,-2,-1,-2,2
59619234605,4,2,-3,0,-2,0,-3,-7
59619234605,-3,-2,-1,-3,0,-2,-2,-3
59619250769,1,-1,-4,0,-2,-1,-1,0
59619250769,-6,0,0,0,0,0,0,-6
59619252457,9,3,-1,-2,0,0,-1,5
59619252457,2,-2,0,1,0,-2,-1,0
59619273436,-6,-3,0,-6,0,-1,-1,3
59619273436,-1,0,2,0,-1,0,1,-8
59619274900,-1,-1,1,-2,-2,-1,-3,-2
59619274900,2,-1,-1,-1,-1,-2,-1,5
59619288388,10,2,-2,-1,-1,-1,-2,3
59619288388,0,4,-1,-1,-1,-1,-2,1
59619289821,-2,-1,0,-2,-1,0,0,3
59619289821,-15,-5,-5,-1,-2,0,-3,-2
59619310752,-2,-4,0,0,-3,-4,0,0
59619310752,-3,4,-1,-1,-1,-3,0,-4
59619312465,-2,2,-1,0,0,-1,-2,-4
59619312465,-5,-4,0,-2,1,-1,-1,-4
59619333465,3,2,-3,0,0,0,-3,-9
59619333465,-1,-5,-3,0,0,0,-1,0
59619334822,-1,-1,-2,0,0,-2,0,2
59619334822,3,2,-1,-3,-1,-1,-1,-1
59619347653,1,-2,2,-2,0,-1,0,-12
59619347653,3,0,1,0,-1,0,0,7
59619354468,-6,-4,-3,-3,-2,-2,-3,-6
59619354468,4,3,-3,1,-1,-1,0,9
59619370896,-3,-3,-1,0,0,1,-2,-3
59619370896,-5,-3,-2,-3,-1,-2,-2,0
59619372385,-4,2,0,0,-1,-2,-2,1
59619372385,-13,-2,-1,-1,-2,-2,-1,-5
59619393424,-7,-4,-1,-2,-2,-1,-2,1
59619393424,-1,-1,-1,0,-1,-2,-1,1
59619394885,7,2,-2,0,1,0,-1,3
59619394885,-5,0,2,-1,0,1,1,-20
59619406999,-6,1,-1,-2,-1,-2,-1,-9
59619406999,6,0,-1,-2,-2,-2,0,10
59619415901,-3,-6,0,0,-1,0,-1,4
59619415901,-8,-3,-3,0,0,-1,0,-5
59619430943,4,4,0,2,-1,1,0,2
59619430943,-6,-4,-1,-1,0,0,0,-4
59619432366,3,-1,-2,-1,0,-2,0,3
59619432366,3,-1,2,2,-2,-1,0,6
59619453248,-2,-1,0,-3,-2,-2,-1,-1
59619453248,-1,-4,0,-2,0,-2,0,-1
59619454866,0,9,-1,-2,0,-1,-1,-4
59619454866,3,0,0,0,-1,1,-2,-3
59619467735,8,13,-1,1,-1,-2,0,17
59619467735,0,0,-3,-1,-3,-2,-1,-2
59619474476,3,4,0,0,-1,-1,-1,-6
59619474476,1,-2,-2,-2,-1,-1,-3,-2
59619490766,-1,-6,-2,-1,-1,0,0,2
59619490766,-7,-2,-1,0,-2,0,-1,-3
59619492356,-4,-1,0,-2,-1,-1,0,-2
59619492356,6,0,-1,-2,-2,-2,-2,8
59619513179,8,-2,0,1,1,-1,-1,-6
59619513179,-4,-2,-1,-3,-1,0,-1,-2
59619514811,-7,-7,-3,0,-3,-3,-3,-5
59619514811,2,1,0,-1,0,0,-1,3
59619527629,-9,-1,-1,0,-1,-1,-2,-2
59619527629,-1,-4,-1,-1,-3,-1,-2,-4
59619534658,3,-2,-1,-1,-1,1,-2,1
59619534658,2,-1,-2,-2,-1,-1,1,0
59619550965,-3,-2,-4,-3,-1,0,-1,-2
59619550965,3,-2,0,-1,-1,-1,-2,3
59619552324,1,3,2,0,-1,1,1,-4
59619552324,5,12,0,-1,0,-3,0,-1
59619573292,-11,-16,0,-1,1,-1,-2,-4
59619573292,-3,-1,-4,-1,-2,0,1,-8
59619574850,6,-1,-2,-2,-2,0,-1,17
59619574850,-2,0,0,0,-1,-2,0,-5
59619587559,-2,2,-1,-1,-2,-1,-2,5
59619587559,-1,-1,-2,-2,0,-1,-3,-5
59619594290,-20,-5,-1,-1,0,0,-2,-15
59619594290,-3,-8,-2,-1,-3,-1,-2,4
59619610694,5,-2,0,0,-2,-1,0,6
59619610694,-2,7,-2,0,-1,-1,1,-16
59619612378,3,-8,0,-3,-2,-2,1,6
59619612378,-3,-4,-1,0,-1,0,-1,-3
59619633244,4,-4,-3,-2,-2,-2,-3,-8
59619633244,4,7,1,-1,-1,-2,-1,3
59619634775,1,1,-2,0,-1,-1,1,5
59619634775,0,-2,-1,-2,1,-1,1,-8
59619647528,2,-4,0,-1,-2,-1,-1,1
59619647528,9,13,3,1,1,-1,0,6
59619654356,-3,-10,-4,-2,-1,0,-2,-7
59619654356,-1,-3,-2,-2,-2,0,-2,5
59619670662,0,2,-2,-2,-1,-1,-2,-5
59619670662,9,-3,-2,-1,-1,-1,-1,-3
59619672329,-6,3,0,-1,1,-1,-1,2
59619672329,3,3,1,0,0,-2,-3,0
59619693184,1,0,-1,-2,-1,-3,0,-6
59619693184,-5,-8,-2,2,0,0,0,1
59619694780,2,-4,-1,1,0,0,1,-2
59619694780,3,-1,-1,-2,0,0,-2,0
59619706793,-10,-2,-1,-2,-2,-1,-1,0
59619706793,-5,-9,0,-2,0,-1,-2,4
59619715837,5,3,-1,0,-3,-1,0,-3
59619715837,-6,-3,-2,0,0,-1,-1,2
59619730692,-2,1,0,-1,0,-1,0,-14
59619730692,-3,-4,-2,-1,-1,-1,0,6
59619732332,2,-1,-2,-2,-3,-2,-1,-3
59619732332,-8,-5,-3,-2,-2,-1,0,-16
59619753136,-2,0,-3,0,-1,0,-2,2
59619753136,2,-4,-1,-2,-1,-2,-2,13
59619754778,-2,2,0,-1,0,0,-1,-5
59619754778,0,-2,-2,-2,-2,0,0,2
59619766779,3,0,0,-1,-1,-2,-2,2
59619766779,2,13,0,1,-2,-1,-1,-5
59619775757,-7,-11,-2,-1,-2,-2,-2,0
59619775757,-1,-1,0,-1,-1,-2,-3,2
59619790685,1,-3,-2,-1,-2,-2,-4,-2
59619790685,0,-2,-1,-1,0,-1,0,0
59619792332,1,1,0,-2,-2,-3,-1,-2
59619792332,1,-5,-2,0,-2,-1,1,1
59619813133,1,6,2,2,-1,-1,1,1
59619813133,-2,-7,0,-3,-1,-2,-2,-14
59619814778,-15,-3,-1,-1,-1,-1,-3,-5
59619814778,-1,6,1,-2,0,1,-1,-1
59619826882,0,-2,0,-1,1,-1,-1,3
59619826882,-14,-4,-6,-1,-1,0,0,-17
59619835801,3,2,-2,-1,0,0,-2,0
59619835801,-4,0,1,-1,-2,-3,-4,-3
59619850622,-6,-2,0,-2,-1,-1,-1,-3
59619850622,2,-3,-1,-2,-1,0,-1,2
59619852266,1,-3,-3,-1,-3,-1,-2,-6
59619852266,1,-4,-3,-1,-2,-2,0,1
59619873137,3,12,0,-1,-2,-1,-1,0
59619873137,-3,-5,1,0,-1,-1,-1,5
59619874803,4,3,0,0,-1,0,-2,-1
59619874803,1,-5,-2,-1,-1,0,-2,10
59619886898,-2,-2,-4,-1,0,-2,-1,-8
59619886898,-1,0,0,-1,-1,-2,-2,2
59619895808,0,0,0,1,0,-1,-1,1
59619895808,0,2,-2,-2,-2,-1,-2,-3
59619910631,-7,-6,-2,-1,-2,1,0,2
59619910631,-3,-3,-1,-1,0,0,-1,2
59619912318,0,-1,0,-2,-2,-1,1,-1
59619912318,-3,-2,-1,0,-2,-1,0,-5
59619933188,-7,-7,-4,-2,-1,-1,-1,0
59619933188,8,4,0,-2,-2,-1,0,16
59619934784,-3,2,0,-1,2,1,-2,-11
59619934784,1,-2,-2,1,0,-1,-1,0
59619946798,3,-2,1,-1,-1,-1,0,13
59619946798,1,0,-4,-3,-2,-2,0,-3
59619955835,5,-4,-1,-2,-2,-3,-2,0
59619955835,8,15,0,-1,0,0,1,-3
59619970669,0,-4,-2,1,0,-1,0,-4
59619970669,-8,-4,-1,-1,1,0,-1,-4
59619972325,0,-2,0,-2,-2,-3,-2,6
59619972325,-10,-3,-3,-2,-2,-1,-3,-10
59619993156,0,1,0,-1,-2,-4,-2,-1
59619993156,1,-3,-2,0,0,0,1,0
59619994759,-2,0,-1,0,0,-1,0,-6
59619994759,-1,-5,-1,2,-1,-2,-1,5
59620015679,-4,-1,0,-3,-1,0,-3,-3
59620015679,-6,-3,-1,-2,-1,-1,-3,-5
59620017315,2,-4,-1,-3,0,-3,2,3
59620017315,-4,-3,-1,-1,0,-1,-2,-3
59620030692,-3,-4,-2,-2,-1,0,-1,-1
59620030692,1,-1,0,0,-1,0,-2,-6
59620032409,2,0,-2,-2,-2,0,-1,16
59620032409,0,-1,1,-1,-1,-1,-1,-1
59620053150,2,0,0,-1,0,1,0,-3
59620053150,-3,-2,-1,-1,0,-2,-1,-6
59620054784,-4,0,-2,0,-2,-2,-2,-2
59620054784,4,-2,0,-2,-1,-2,-2,1
59620066854,1,-20,-2,0,0,-1,-2,3
59620066854,-7,-2,-1,-1,-1,-1,0,0
59620075780,-2,-2,0,0,1,0,0,-4
59620075780,3,-2,-3,-3,-2,-1,-3,-4
59620090711,5,8,1,-2,-2,0,0,2
59620090711,-1,-1,0,-2,0,-1,-2,-3
59620092353,-6,-4,-4,-1,-1,-1,-1,-5
59620092353,-4,-1,-4,-1,0,-1,1,-2
59620113225,1,-1,-1,-3,0,-1,-1,13
59620113225,1,-1,-1,-1,0,-1,-1,-3
59620114786,2,3,0,-2,-2,-1,-1,-4
59620114786,2,-3,-2,-1,-2,-1,-1,8
59620135772,-7,0,-1,1,-1,0,-1,-7
59620135772,-3,-3,-3,-1,-2,0,-1,4
59620137355,-1,0,-2,-2,-2,-1,0,-3
59620137355,-3,-1,-2,-1,-1,-3,-1,-3
59620151635,-2,-2,-1,-1,-2,-2,1,-6
59620151635,3,0,1,0,0,0,-1,0
59620152328,2,0,1,0,-2,1,-1,-1
59620152328,-5,-2,-1,1,0,2,-2,0
59620174717,-3,5,-2,-2,-1,-2,-2,-6
59620174717,-4,-19,-2,-3,-2,-1,-2,0
59620174771,-16,-2,-1,-2,0,0,-2,-15
59620174771,1,0,-1,0,0,-2,-1,-1
59620195689,-3,0,-3,0,-3,-1,-1,-4
59620195689,3,4,0,-1,-2,-2,-2,1
59620197360,2,-2,-1,1,0,0,-2,7
59620197360,-3,-5,1,-2,-2,0,-1,-1
59620210694,-2,0,0,-1,0,-1,-1,-5
59620210694,2,4,-3,-2,-1,-3,-2,-1
59620212353,3,-3,0,-2,-1,-2,0,11
59620212353,-5,-3,-1,-2,-2,-1,0,-3
59620232907,0,-2,-1,-1,-1,-2,-1,1
59620232907,2,2,-2,0,1,-1,0,-1
59620240784,1,2,-2,-2,1,-2,-1,-4
59620240784,-6,-5,1,2,0,0,1,0
59620255635,6,2,-2,1,-1,0,-1,11
59620255635,-8,0,1,0,-3,0,-1,-18
59620257326,9,-2,-1,-1,-1,-1,-2,4
59620257326,1,2,1,-2,-3,0,-2,0
59620270690,1,-1,0,-3,1,-1,0,-3
59620270690,-3,-1,-1,-2,-2,0,0,4
59620272347,2,1,-3,0,-2,0,-2,0
59620272347,-4,0,0,-1,-1,-1,-3,-12
59620293185,-2,-2,-1,1,-1,0,-1,-3
59620293185,0,-2,-1,-2,0,-1,-1,5
59620294764,-3,-2,1,-2,0,-2,-2,-8
59620294764,2,1,-2,-2,-1,-1,1,3
59620315649,-4,-2,1,0,-1,2,-2,-6
59620315649,0,-1,-1,-2,-1,-3,0,0
59620317256,-2,-2,-2,0,-1,-1,-2,2
59620317256,-2,-3,-2,-3,-1,-3,0,-8
59620330064,5,8,0,-1,-3,-3,0,4
59620330064,-1,1,0,-1,0,-2,-2,4
59620336847,-4,1,-1,-1,-4,0,-2,-3
59620336847,11,0,-2,-3,-1,-1,-3,1
59620353183,-9,-22,-3,-1,1,-3,-3,-6
59620353183,-2,-1,-1,0,-1,-1,-3,0
59620354809,-3,-2,-3,-2,-3,-1,-1,-5
59620354809,-5,-1,-2,0,-2,-1,0,8
59620375622,3,4,-3,-1,-3,-1,0,-2
59620375622,-2,-3,-1,0,0,0,-1,1
59620377366,-5,1,0,-1,-2,0,-2,-1
59620377366,0,-4,-1,0,0,-3,0,4
59620390005,8,5,0,1,2,-1,0,-2
59620390005,2,-2,-2,-1,-2,-2,1,3
59620396842,5,2,-3,-1,-3,-1,0,-1
59620396842,-4,-3,-2,-2,-2,-1,-1,-3
59620413234,-3,2,-1,-1,-2,-1,0,-1
59620413234,-1,-2,-1,-2,-2,-1,1,-4
59620414856,-1,-2,-2,-1,-1,0,0,-1
59620414856,-2,0,0,-2,0,0,1,-2
59620443215,-3,-2,-2,-1,-2,0,-3,-3
59620443215,1,1,-1,0,-1,0,-1,0
59620444798,-3,-4,0,-2,0,-3,-1,-2
59620444798,-2,0,-1,-2,-2,-2,-1,0
59620450010,-1,1,0,-3,0,-1,1,0
59620450010,-3,-3,-1,-2,0,-2,-3,6
59620456863,-2,-5,-1,0,0,-1,-2,-6
59620456863,2,1,0,0,-3,-1,0,-2
59620473166,-8,7,-2,0,-2,-2,-3,3
59620473166,0,-14,-1,-1,0,-2,-2,0
59620474756,-4,-3,-1,0,0,-1,0,0
59620474756,-4,0,0,-1,-1,0,0,-1
