timestamp,emg1,emg2,emg3,emg4,emg5,emg6,emg7,emg8
117390092387,-13,-11,-3,0,-1,0,-2,-5
117390092387,2,1,0,0,-1,-1,-1,-16
117390094010,-2,-9,-3,0,0,0,1,10
117390094010,-13,-8,-7,-4,-2,-3,-4,-16
117390097381,-3,-4,1,-3,1,-3,-2,-1
117390097381,0,3,-2,-2,1,-2,-1,-2
117390098079,0,1,4,3,0,-2,-1,-3
117390098079,-1,-2,-4,-2,-1,0,-1,1
117390104914,3,1,-1,1,-3,0,0,-3
117390104914,4,14,-2,-5,-2,-3,-2,2
117390112854,-7,1,4,2,2,0,-4,-4
117390112854,0,2,3,-2,-1,-1,-1,2
117390120081,-1,-3,-1,5,-1,-1,-1,-2
117390120081,2,-2,-4,-7,1,1,1,6
117390135105,1,-6,-3,1,-1,-1,-2,-4
117390135105,1,-2,0,-3,-5,-1,-1,-1
117390141436,1,4,-5,-8,-2,-1,0,-4
117390141436,2,-8,5,2,-1,0,-1,-6
117390164425,1,5,-2,1,-3,-2,2,11
117390164425,-6,-13,-3,5,0,-3,-3,-2
117390165232,5,1,-2,-1,-1,-2,-1,-2
117390165232,-5,-3,-3,-1,-2,-1,-2,1
117390180392,-2,3,1,6,0,1,-2,-5
117390180392,5,8,-3,8,2,-2,-3,0
117390186665,2,-1,3,-21,-4,0,0,4
117390186665,-8,-3,5,-6,-1,-2,1,-2
117390227182,-1,16,2,1,1,-2,-3,-3
117390227182,-2,-2,-8,-4,-4,-3,-2,-1
117390227844,-4,-4,-8,-1,-2,-1,-3,-3
117390227844,-3,-4,23,13,1,-4,-1,-2
117390228782,-2,-2,-8,-37,-7,-4,-1,-2
117390228782,0,-1,-5,2,-3,4,0,-1
117390231748,3,0,-3,5,1,-1,0,0
117390231748,1,0,3,13,1,-1,-1,-2
117390238610,3,-1,-14,-7,1,1,1,1
117390238610,0,0,21,7,5,-1,-2,-1
117390246763,-5,-3,-7,5,6,1,-2,-2
117390246763,-2,-3,-8,-8,7,0,1,1
117390253611,-3,-6,-7,27,-13,-6,-2,-3
117390253611,-6,-10,-35,-47,-22,-5,-7,-4
117390269287,-2,1,-2,-22,-17,-12,-2,-4
117390269287,4,-4,4,-12,-4,-2,-4,12
117390276299,3,1,-1,71,25,-10,-7,1
117390276299,-1,3,-2,43,18,13,10,2
117390283883,8,2,7,18,12,7,-12,2
117390283883,-2,-2,-10,29,-11,2,9,7
117390298850,-6,-8,-4,-33,-25,15,-2,-12
117390298850,-6,2,6,14,15,-37,-13,-18
117390306855,2,0,1,24,-7,8,12,13
117390306855,2,1,-3,-6,3,5,1,3
117390313690,1,-18,9,-18,0,7,0,-2
117390313690,3,4,6,2,-8,5,-3,4
117390329422,-1,-3,-13,-8,4,-8,-9,-2
117390329422,-13,4,1,-16,-4,-14,11,-12
117390336328,7,0,0,-13,-8,14,7,23
117390336328,-3,17,3,-12,-7,-10,4,-10
117390343888,-11,-4,0,10,20,2,0,-7
117390343888,2,-8,-1,-2,-25,-7,-21,-7
117390367707,14,10,5,65,24,-10,5,1
117390367707,-3,0,1,-46,-7,4,0,30
117390368321,-1,-12,3,-9,18,69,7,-3
117390368321,6,2,15,26,-3,-62,-15,-17
117390373689,-2,5,0,-6,-7,11,7,18
117390373689,8,-8,-1,6,5,13,16,3
117390389519,4,7,8,-38,-25,-38,32,3
117390389519,-19,-7,-33,-24,-6,51,-16,-33
117390396331,-12,-11,-7,-8,-3,-53,-43,-18
117390396331,6,6,6,12,3,9,2,-1
117390403766,-10,-6,-3,4,-24,48,-20,-10
117390403766,2,5,9,8,19,-26,15,-8
117390418767,-9,4,-2,-49,-6,-15,13,-8
117390418767,16,-2,0,26,24,28,13,34
117390427695,-4,2,-1,6,-22,-24,1,-75
117390427695,22,-16,-7,5,-26,12,40,99
117390433670,-8,-1,1,18,11,-4,-32,-17
117390433670,-7,-10,-11,-80,-5,28,-35,1
117390458287,6,0,24,62,31,-20,5,4
117390458287,-11,4,-5,-26,-41,54,-2,-20
117390459332,1,1,3,8,-9,-102,18,5
117390459332,-20,-9,-8,32,-5,25,-34,-43
117390472690,23,17,-3,-62,23,23,5,34
117390472690,-14,-1,-5,-14,29,22,-3,-10
117390478740,-15,21,14,24,3,21,18,16
117390478740,10,-4,7,7,-27,-22,6,-6
117390487688,-11,-2,-7,-1,-1,-7,-9,8
117390487688,-2,-3,-1,12,8,-22,-6,-2
117390493772,12,-4,-9,-14,-1,21,-3,-13
117390493772,-8,13,-9,-57,-19,-22,5,-6
117390510273,-2,-6,4,8,5,-1,-7,-30
117390510273,21,7,4,17,-3,-23,-4,41
117390516411,-5,-12,2,4,11,32,-2,-11
117390516411,-14,7,0,23,-8,-9,6,32
117390532691,1,0,-1,3,-3,7,-6,-4
117390532691,13,-7,-3,7,11,-30,-13,30
117390538635,-11,0,3,-32,3,22,0,1
117390538635,10,3,5,36,0,-18,9,6
117390547721,-27,2,-7,-3,-4,-2,1,-6
117390547721,-28,-9,-8,-14,-9,-8,-13,-24
117390553732,16,2,-4,1,0,16,3,5
117390553732,5,6,2,7,3,-2,4,-2
117390570133,-13,-10,-4,2,-10,-21,-13,-16
117390570133,4,5,6,10,12,10,4,24
117390576247,2,-9,-7,3,-7,4,7,9
117390576247,-9,-7,11,8,5,-1,-5,-25
117390592657,8,0,-7,-31,-19,-21,-4,16
117390592657,-7,9,-7,-14,0,3,-2,-62
117390598837,2,5,-1,-12,-3,15,-1,-8
117390598837,31,-8,1,11,6,-13,3,54
117390607728,-27,-9,-5,-3,-3,-7,-3,-7
117390607728,5,8,-1,-17,5,6,1,-19
117390613876,-7,-8,-3,3,-3,1,-3,14
117390613876,-32,-5,-7,-20,0,-3,-4,-24
117390630301,25,9,6,17,-1,-6,1,24
117390630301,-20,-6,0,17,4,5,-7,-67
117390636114,-8,-12,-5,-27,-14,-4,-1,34
117390636114,-5,-6,-1,32,8,-1,3,-7
117390652664,-10,-7,-12,-30,-7,-1,1,17
117390652664,16,9,10,36,0,-2,0,8
117390658657,5,-1,-3,9,2,4,-4,-39
117390658657,-16,-6,-11,-30,-2,-5,-6,-46
117390667851,6,-15,-4,-7,-13,-6,-1,16
117390667851,6,0,-1,-8,10,3,0,-7
117390673672,6,3,1,-9,-11,-2,-1,18
117390673672,2,-6,-3,25,5,2,-2,-2
117390690223,3,3,-2,0,-4,-8,-2,-4
117390690223,-6,-9,-2,6,3,1,1,15
117390696328,-4,3,6,-33,-9,2,-4,-22
117390696328,-3,5,1,-58,-9,-6,-5,-1
117390712705,-9,-17,2,34,5,-4,-2,-84
117390712705,6,2,2,-22,-3,2,-1,14
117390718578,-4,-7,-6,46,1,1,0,13
117390718578,7,-4,6,-29,0,-1,1,8
117390727659,16,-2,-8,-17,-8,-8,-4,-29
117390727659,10,3,0,11,7,3,8,87
117390733735,-5,-7,-4,-25,-11,-3,-4,-26
117390733735,-6,13,-2,-4,-7,-2,4,-8
117390750407,27,11,4,9,0,1,5,32
117390750407,-8,-2,-4,-16,1,-2,-5,-8
117390756085,7,6,2,3,10,3,-4,-2
117390756085,-25,-4,-1,30,2,0,0,15
117390772594,-12,3,-1,-22,1,-2,-5,-59
117390772594,7,4,5,2,-6,-5,3,38
117390778761,-8,0,1,-7,0,2,1,-16
117390778761,-11,-2,-1,14,6,0,-9,-77
117390787597,41,7,4,9,0,0,6,99
117390787597,-46,4,-2,-14,-6,1,-5,-78
117390801189,-18,-2,-1,2,1,-2,-2,15
117390801189,12,9,-1,21,2,-2,-2,-11
117390810233,9,-11,3,14,-3,1,4,37
117390810233,11,3,-6,-29,5,2,-3,-28
117390816364,5,5,-5,-14,-5,-4,-3,4
117390816364,-9,-11,6,10,6,0,-3,-99
117390832658,20,10,0,6,-9,0,15,83
117390832658,5,-18,-8,-30,-7,-7,-4,-9
117390838861,0,-11,-1,1,4,-1,-5,-51
117390838861,3,8,-1,0,7,2,4,19
117390847613,-5,-23,-4,27,5,-3,-8,29
117390847613,-33,-26,-2,32,1,1,-5,-55
117390861397,-25,-3,4,22,8,0,-4,-35
117390861397,17,10,8,-17,-6,1,2,-48
117390870171,-31,-13,-10,-19,-10,-5,-3,47
117390870171,-6,15,10,29,5,0,0,2
117390876284,22,3,-14,-34,-4,-3,-15,-51
117390876284,13,-33,11,25,1,-1,20,127
117390892654,2,13,-20,-33,14,0,-16,-123
117390892654,-5,-2,-10,-16,-36,-13,-2,38
117390898733,-22,20,18,36,11,5,9,18
117390898733,19,0,-4,5,-5,-3,-11,-8
117390907604,1,10,15,23,7,2,3,4
117390907604,13,-7,-4,-10,-3,-1,-1,10
117390921315,-6,-6,6,4,16,2,5,25
117390921315,-37,-40,-16,5,-30,-5,-2,-22
117390943742,-56,-5,-12,-21,3,-1,-12,-101
117390943742,32,9,-28,-2,10,5,-1,69
117390953393,71,31,13,8,-11,-2,11,66
117390953393,-31,-4,-4,13,2,-6,-13,22
117390954291,-23,11,0,36,51,7,10,2
117390954291,-3,-2,-21,-42,-81,-11,-4,-34
117390958716,17,-33,-9,63,19,0,-1,8
117390958716,39,11,2,-40,-11,2,2,46
117390967684,-16,11,19,38,1,-5,-4,-7
117390967684,-9,-8,22,-10,21,13,-4,-35
117390981359,-2,-13,-9,86,33,-10,2,5
117390981359,-21,14,-4,14,30,21,0,-52
117390998395,8,-4,1,-11,-54,-9,0,19
117390998395,13,-3,14,36,34,4,11,-15
117390999328,3,-9,-8,-44,10,-13,-6,3
117390999328,12,10,-5,-1,-23,-11,-10,-10
117391012710,2,-2,4,31,-4,-1,2,6
117391012710,6,0,1,1,18,7,7,20
117391018595,-31,-17,-24,-89,-63,-5,-7,-27
117391018595,-14,1,-19,-1,6,-5,4,15
117391027651,4,1,-14,-83,-26,-2,-6,-45
117391027651,-9,6,2,41,27,-6,-6,-7
117391041203,-21,16,5,-34,-13,-11,-1,-5
117391041203,39,-4,3,33,2,7,14,44
117391050183,-1,-7,-15,-95,-30,0,-6,5
117391050183,-21,-25,-5,36,26,-5,-5,-91
117391056112,-24,4,2,-20,-14,14,5,93
117391056112,-6,-3,-8,17,8,-8,3,2
117391072579,25,-3,-2,14,1,-12,-13,32
117391072579,-7,12,6,-11,3,4,-2,4
117391078615,-1,-6,1,31,-3,0,9,-18
117391078615,30,3,2,-19,-4,4,0,28
117391087596,-11,-4,6,7,14,4,4,-6
117391087596,6,-2,-4,-14,-10,-6,-11,0
117391101191,0,-2,-3,-62,-20,-13,-7,-25
117391101191,-22,-21,-1,6,12,9,-1,-23
117391110217,13,9,7,21,5,1,1,-3
117391110217,5,-8,-7,-17,-27,-11,-8,16
117391116087,6,11,3,38,14,13,-5,-11
117391116087,2,8,5,-38,3,-7,-1,-15
117391132574,-5,2,-3,18,-1,-8,-5,2
117391132574,-7,-5,2,-7,-9,14,20,54
117391138639,14,-1,6,32,24,14,9,24
117391138639,0,8,7,-18,4,-2,-1,-12
117391170062,-35,-8,1,53,-12,2,-10,-47
117391170062,-14,-4,-11,-69,-21,-11,-2,-14
117391171616,15,0,-5,-11,-12,-17,-7,-20
117391171616,-1,-6,-3,5,3,12,1,19
117391183669,2,14,-4,4,9,-3,5,-28
117391183669,30,24,22,15,8,6,-1,0
117391192671,-11,3,0,-3,-1,5,1,-26
117391192671,-5,-9,-2,18,-9,-12,-9,-2
117391215202,7,-1,1,-11,0,-1,5,28
117391215202,-9,-5,-6,-7,1,20,0,-23
117391216584,3,-5,-1,38,3,-32,-7,68
117391216584,2,24,0,-84,-24,4,-5,-3
117391236879,1,-7,0,26,32,7,7,39
117391236879,5,-1,-3,11,-14,-2,6,49
117391243852,-10,-6,-2,1,10,1,-7,-43
117391243852,-1,-2,0,21,-17,-9,-3,-4
117391267698,0,-31,-7,-19,2,3,3,16
117391267698,-13,15,4,-7,8,-8,-5,-24
117391269213,2,3,-1,3,-5,6,-3,-13
117391269213,-5,-10,-5,2,-6,-8,0,29
117391275026,18,-10,1,5,-2,5,4,-8
117391275026,21,0,-2,20,7,-6,-3,-1
117391276576,12,-6,-1,-38,-8,6,13,89
117391276576,-12,8,4,43,10,1,-7,-6
117391290063,37,17,7,-4,-1,0,9,93
117391290063,20,7,-8,3,5,-2,3,-6
117391290836,-2,1,10,1,-6,4,-3,-50
117391290836,-9,-11,-8,-23,-10,-3,1,-22
117391296837,-21,3,3,26,8,-1,-1,-9
117391296837,-6,-12,-10,-2,3,-4,-1,-3
117391297598,-5,2,-5,53,11,3,-2,0
117391297598,3,3,-3,-23,-7,-6,-1,-1
117391312709,-17,-2,-1,-27,0,-2,-1,-8
117391312709,10,-1,6,1,-7,-1,0,23
117391318699,-5,-3,-6,4,0,-1,-1,8
117391318699,-5,6,1,8,6,-2,-3,-33
117391333796,16,5,-5,12,-4,-1,-5,-20
117391333796,-7,9,-4,-3,1,-3,-5,-19
117391341252,-4,-7,-2,-13,-7,2,7,-16
117391341252,9,3,10,-7,0,-4,2,4
117391357062,7,-20,-15,9,0,3,-6,-17
117391357062,-6,-8,4,30,-5,-6,-4,0
117391357604,-2,-9,-9,-50,-5,-4,-14,-100
117391357604,-7,0,4,46,2,-4,-1,-11
117391372589,-16,0,1,-24,-5,-3,-9,-60
117391372589,17,-1,0,14,7,-2,8,72
117391378629,-19,-17,-10,5,-3,0,-7,-54
117391378629,7,-3,-9,-45,-6,1,0,-15
117391393837,0,2,-5,-7,-2,-2,0,9
117391393837,-19,3,2,13,0,-3,-4,-47
117391401140,21,10,4,20,5,3,2,14
117391401140,-11,-10,-4,-22,0,-1,-1,16
117391416946,-1,-1,1,-2,-6,0,1,1
117391416946,-10,-3,-3,-3,-5,-3,-6,-25
117391417641,-14,4,1,8,3,-1,2,7
117391417641,14,-1,10,-46,-12,0,2,43
117391432705,-3,10,1,38,12,-2,0,84
117391432705,28,-1,5,-27,-10,2,2,71
117391438670,29,-1,-13,0,5,3,6,21
117391438670,-4,-3,14,40,-4,-2,-5,-80
117391453649,-11,3,0,-17,-5,-5,1,24
117391453649,-37,-9,-2,-1,4,1,-6,-37
117391461317,29,13,5,-2,-3,-1,0,-8
117391461317,-34,-4,-2,37,20,4,0,8
117391477024,23,-5,-7,-3,-16,-8,-12,-73
117391477024,-9,-3,-4,-3,3,-2,-4,-33
117391477605,3,1,4,-1,-8,-2,-2,-39
117391477605,25,-3,-1,13,8,3,10,90
117391492645,-48,13,-3,-9,-5,-2,-8,-98
117391492645,24,-6,-7,-8,6,0,6,50
117391498802,-12,7,6,8,-11,-5,-2,6
117391498802,-18,-3,-12,28,0,0,-6,-52
117391513833,-23,6,-4,-18,-8,-2,4,15
117391513833,23,6,-16,-9,1,-1,-2,-25
117391521160,-26,12,40,4,10,0,0,23
117391521160,-12,-16,-9,-20,-18,-8,-9,-26
117391536876,14,-5,14,58,25,7,5,53
117391536876,-31,-10,-3,-79,-38,-8,-9,-33
117391537652,3,19,0,-8,-5,2,1,23
117391537652,-15,-2,-5,23,6,-3,-3,-44
117391575022,51,-12,-17,-81,-17,2,9,100
117391575022,11,7,15,3,10,3,5,30
117391576638,-20,-38,-3,-15,-16,-2,-6,-16
117391576638,15,-13,-32,6,1,-5,-3,-3
117391597523,-36,-27,19,3,4,-6,-9,-91
117391597523,-25,-18,-3,32,12,-1,0,0
117391599177,5,-2,-5,-34,-18,-6,-4,10
117391599177,15,18,8,-46,-10,-2,-5,-9
117391618640,-2,9,-17,-7,14,11,11,16
117391618640,-7,-9,-7,40,2,-1,-2,22
117391627759,-17,-2,12,37,13,0,-5,-21
117391627759,10,-10,-13,-37,-11,-9,-5,17
117391650026,-4,9,-12,-6,-1,-10,-2,-1
117391650026,-6,10,22,-9,-13,-3,-6,-30
117391657517,3,-10,-36,16,1,1,3,11
117391657517,-7,2,10,28,18,-1,2,30
117391658160,-2,-1,21,-9,-2,9,3,-13
117391658160,5,9,-3,33,0,2,-2,-47
117391659006,-5,-5,-14,-82,11,-10,-3,25
117391659006,5,5,17,20,-4,-2,-4,13
117391664388,14,17,-5,64,-16,-8,-4,-6
117391664388,9,-14,7,18,3,3,3,1
117391665298,-8,22,-14,-56,-14,4,-2,-1
117391665298,-9,-1,4,-29,-9,-12,5,-2
117391672634,-7,-7,1,9,-22,-4,-6,3
117391672634,-6,-2,11,35,-18,-5,-8,-10
117391678886,11,-5,-9,-11,10,6,11,33
117391678886,-21,-23,-3,32,11,6,-1,0
117391695192,15,-10,1,6,5,-7,0,4
117391695192,7,12,-5,-12,-2,0,5,4
117391701385,-7,14,-1,-29,-8,-5,-4,-13
117391701385,21,10,-2,0,-1,2,0,2
117391716711,-19,-8,1,-3,2,0,-4,-38
117391716711,26,3,-11,-19,11,1,2,38
117391717623,5,-1,4,31,6,1,-2,-8
117391717623,-12,-6,-2,-1,-3,4,2,9
117391732561,1,2,-5,-18,-4,1,-3,-6
117391732561,-19,-11,1,-11,11,-1,-1,-37
117391738687,4,-3,4,24,-6,-3,0,-7
117391738687,8,6,-7,-8,-5,0,-1,-43
117391753681,-11,12,7,7,6,2,4,33
117391753681,-12,4,2,-8,-1,-5,-2,-10
117391761284,3,-10,5,42,0,1,-1,16
117391761284,-4,-4,-4,-12,2,0,0,-8
117391776336,-9,-3,-2,-16,1,-1,-5,-37
117391776336,3,30,-6,-9,-5,-4,0,2
117391783645,-5,3,-1,8,5,5,4,-8
117391783645,-1,8,-1,-5,3,1,-1,11
117391792638,0,-3,-4,-11,-6,-2,-1,-14
117391792638,-5,-7,-4,8,0,0,-2,3
117391798734,0,-10,0,-3,3,-1,-3,-2
117391798734,-3,-5,-15,2,-4,0,-1,5
117391813721,6,-1,5,6,0,0,-2,14
117391813721,15,11,1,-5,2,0,1,-6
117391821303,-8,1,0,2,1,-2,-3,0
117391821303,-1,-2,0,1,1,-1,-3,-28
117391836268,-2,-10,-5,-7,-8,-4,-3,-1
117391836268,-2,-1,-4,-4,-1,-2,-3,-9
117391843751,13,-7,-2,3,-3,-2,-2,4
117391843751,0,8,5,5,-1,-2,0,0
117391852666,2,0,-2,14,4,0,-2,8
117391852666,-3,-10,-3,-11,-2,-1,-2,-1
117391858879,-3,-4,1,14,5,-2,-1,-20
117391858879,-1,0,-1,-1,-1,0,0,17
117391873633,-22,-26,-8,-69,-19,-4,-3,-3
117391873633,-11,-12,-4,9,5,1,1,9
117391881312,6,-5,3,10,2,1,1,7
117391881312,-9,-3,-1,-6,5,-1,-1,9
117391896342,1,6,2,8,-1,0,0,6
117391896342,1,-14,-5,2,-5,-3,-1,-2
117391903724,0,0,-1,-2,0,-9,-5,0
117391903724,2,0,11,0,-2,12,1,-6
117391912674,11,3,3,16,6,-8,-2,1
117391912674,2,-3,-5,-7,-5,-2,-2,1
117391918630,-22,-5,-3,3,-3,2,2,-1
117391918630,0,0,-3,-3,-3,-3,-2,7
117391933671,-2,1,0,4,-2,0,-1,-11
117391933671,5,19,3,0,5,-3,-4,15
117391941121,11,-3,-1,-14,-5,3,4,4
117391941121,-4,-2,-1,14,-2,2,0,4
117391956108,-2,-3,-1,4,7,2,2,-1
117391956108,1,-5,-5,-8,-2,-2,2,2
117391963845,2,2,-2,-4,-2,-4,-5,-3
117391963845,14,-1,-2,-7,-9,-4,-2,4
117391979553,-2,4,-2,16,6,2,-2,5
117391979553,-5,-4,0,-19,-5,0,-2,-4
117391980158,-5,-4,-3,9,0,-2,-3,-4
117391980158,3,1,-1,-5,1,-2,0,4
117391993694,12,1,-4,-4,-1,-3,-1,-1
117391993694,-2,-3,2,7,3,0,0,-1
117392001337,-4,9,-2,-6,-6,0,-2,-4
117392001337,-3,1,-2,-10,2,-1,-1,2
117392016200,9,-1,0,-1,0,-2,-1,0
117392016200,-9,-6,-3,-3,3,2,-2,-10
117392023854,3,1,1,12,-4,-3,0,2
117392023854,7,1,-3,0,3,-3,1,1
117392039316,-8,0,-4,-5,-2,1,-1,3
117392039316,0,0,1,9,2,-3,-1,-3
117392040078,-2,-1,1,-6,1,0,-1,-3
117392040078,-14,-2,-3,-20,-4,-4,-6,-8
117392053621,4,-3,1,-4,0,1,0,7
117392053621,-7,-1,-6,5,-3,-2,-2,-2
117392061181,3,-4,1,-3,3,1,0,0
117392061181,-11,-7,-6,1,-12,-4,-4,-15
117392076207,-5,13,1,-9,2,0,0,-6
117392076207,2,-6,-1,3,-2,0,0,-1
117392083684,-8,-4,-2,-3,1,-1,1,-1
117392083684,3,0,2,17,7,0,2,1
117392107559,-3,-3,-1,10,-1,-2,-3,-2
117392107559,-2,-20,-4,7,1,1,0,2
117392108275,-6,-6,-6,-2,-1,1,-2,-5
117392108275,-9,5,-2,-5,-2,0,-1,2
117392113681,0,-2,-3,-1,-1,0,-2,-8
117392113681,5,9,5,-4,-6,-3,0,4
117392121127,-8,-9,-5,-4,2,-1,0,2
117392121127,-1,-4,2,14,2,-1,0,5
117392136245,-26,-19,1,3,0,-1,-2,-8
117392136245,-5,-1,-6,-13,-4,-4,-2,-2
117392143624,-5,6,3,4,0,0,-3,-62
117392143624,19,3,-4,-8,-6,-3,5,95
117392159261,-9,0,0,-5,0,0,0,-6
117392159261,0,-2,0,-3,1,2,1,-14
117392160045,5,-1,0,14,3,3,2,-7
117392160045,9,24,1,-26,0,-1,1,31
117392173712,14,-3,-2,-6,-7,-3,-3,3
117392173712,-12,5,-2,-21,-1,1,3,13
117392181171,-2,7,-4,19,-6,-4,-2,-6
117392181171,-7,-5,-2,14,3,-1,-1,-21
117392196156,4,-26,-3,-30,-10,-2,-4,-26
117392196156,6,-5,3,33,6,-2,2,56
117392203743,-9,-4,0,-2,4,-1,-5,-5
117392203743,4,-1,3,-13,-8,1,1,-16
117392219311,-2,0,0,34,8,-2,0,-3
117392219311,-4,-3,-2,-5,-3,-1,-5,-31
117392220138,-5,-7,-1,-23,-7,-1,-2,24
117392220138,15,-5,-3,20,6,-2,8,64
117392233600,-8,7,4,17,1,0,1,-6
117392233600,5,3,0,-22,-5,-1,-1,-10
117392249328,10,17,1,1,1,1,0,29
117392249328,-9,-3,-5,0,0,-2,-13,-108
117392256189,0,12,5,6,0,0,3,26
117392256189,9,8,-7,6,-2,-3,2,73
117392263666,-36,-23,-5,-8,-5,-3,-6,-10
117392263666,-17,0,-1,-2,0,-1,4,-23
117392279317,14,4,1,-9,1,1,1,15
117392279317,5,1,-1,6,-1,1,-3,-26
117392280064,-9,-2,1,15,6,-1,-3,-23
117392280064,-10,-8,-9,-73,-17,-5,-5,-8
117392293636,-7,2,-3,20,8,-1,-5,-66
117392293636,11,-4,0,10,3,1,5,76
117392301093,11,-2,-1,40,-7,-3,-1,8
117392301093,-4,-4,2,16,6,0,-6,-29
117392316162,19,4,-4,-5,-4,-1,4,45
117392316162,-12,3,3,0,5,0,-4,-51
117392323617,11,-9,4,5,-2,0,3,2
117392323617,-8,-2,0,-7,-5,-1,-1,9
117392339335,-9,9,-1,-2,1,0,-4,-4
117392339335,-2,-6,0,10,3,0,0,-21
117392340142,6,3,-7,-85,-11,-2,0,28
117392340142,-5,-4,-3,22,-1,-3,-5,-59
117392353751,-14,-5,-2,-12,-2,-1,0,26
117392353751,-8,-4,0,8,2,-1,-6,-26
117392361168,26,1,-3,-3,-5,0,2,4
117392361168,3,-3,1,7,4,0,-3,-30
117392376142,2,-4,1,0,1,1,2,24
117392376142,4,-8,-5,-6,-4,-4,-3,-11
117392383678,-1,1,1,-6,3,-1,4,49
117392383678,-6,0,3,21,-3,-1,1,18
117392400815,0,-5,-6,4,-1,-3,-3,4
117392400815,-7,-1,0,-13,-5,0,-2,-21
117392401598,-3,1,-2,-5,0,-4,-5,23
117392401598,9,-11,0,-5,0,0,2,19
117392413734,-9,2,1,-8,-3,-1,-3,-10
117392413734,-4,-5,-5,-10,-3,-3,-3,-32
117392421198,0,-2,-1,-1,-1,0,-1,-4
117392421198,-3,0,-3,8,1,1,-2,12
117392436271,-14,-4,-2,2,-3,0,-2,-25
117392436271,10,-2,-1,-25,-5,-1,-3,-6
117392443844,9,5,1,13,4,3,5,5
117392443844,-17,-14,-2,-15,1,-1,-1,15
117392459331,-8,-3,-3,12,-3,-2,-4,-17
117392459331,-10,-2,0,16,1,-3,-3,-7
117392460107,0,4,2,-4,-1,-1,-3,-20
117392460107,1,4,1,7,3,0,-2,1
117392473582,7,-3,-5,-3,-2,0,0,7
117392473582,-5,-1,-1,6,-1,0,1,1
117392481064,-13,-20,-4,4,-2,-1,-2,-32
117392481064,14,2,0,-12,-1,-2,2,35
117392496263,7,0,0,1,2,-1,0,-18
117392496263,1,0,2,2,-1,0,4,64
117392511891,6,6,-1,2,-2,0,-1,-10
117392511891,10,5,1,-1,-1,2,3,5
117392519336,23,3,0,-13,3,-1,1,29
117392519336,5,0,-2,-7,-4,-3,-3,-6
117392520077,-1,-9,-1,36,2,-3,-1,21
117392520077,0,4,1,12,-2,-2,-3,-34
117392533655,18,-6,0,-4,-1,-3,1,48
117392533655,10,-8,-4,14,1,-1,-2,-8
117392541325,-20,3,1,0,0,-1,-1,-42
117392541325,15,10,-1,7,-4,-1,2,42
117392556185,-19,-24,-4,-2,-3,0,-3,-18
117392556185,-10,1,-2,18,5,0,-1,-17
117392563675,3,-30,-5,-59,-15,-1,0,-7
117392563675,-14,-12,-6,1,-6,-3,-2,-7
117392579420,-6,7,-5,-18,-6,-3,-3,-13
117392579420,-11,-4,1,14,1,0,1,9
117392580115,-8,-3,-5,-5,0,-1,-5,-19
117392580115,-2,-3,-2,-2,1,0,-1,-8
117392593629,-1,1,1,-9,-8,-1,-1,-5
117392593629,-15,4,2,-9,-4,-1,2,-20
117392601114,-1,11,1,2,0,-1,-2,-7
117392601114,-2,-2,-2,-9,-1,0,-3,19
117392616141,16,5,-2,6,0,-1,-2,-4
117392616141,-37,-4,-5,-5,-4,-3,-5,-16
117392623650,4,1,6,-1,-1,-2,1,-2
117392623650,10,-1,-1,4,1,-2,1,-2
117392639409,-4,-15,1,6,-1,1,0,3
117392639409,-4,-20,-5,-14,0,-2,-1,-10
117392640181,5,5,0,6,0,-2,-1,6
117392640181,-5,0,-3,0,0,-1,0,-2
117392653696,-1,14,-1,-4,-2,-2,0,-1
117392653696,-14,31,1,-19,-4,-1,0,-9
117392661360,-21,3,-2,3,0,-3,-5,-8
117392661360,2,6,4,3,1,1,-1,-1
117392676226,-16,8,1,-3,0,0,-1,-9
117392676226,19,14,1,9,1,0,0,18
117392684527,-6,-3,-2,-24,-2,-3,-2,8
117392684527,-9,-4,-2,6,-4,-2,-7,-34
117392698692,2,3,-4,-10,-2,-1,1,16
117392698692,5,-12,1,15,2,0,0,-11
117392706817,4,0,-1,-20,-4,-1,1,18
117392706817,6,1,1,8,-1,-3,1,-13
117392713865,-3,-5,1,-4,-2,-1,-1,19
117392713865,-6,-3,1,9,4,-1,-2,1
117392721244,8,-1,-1,4,-4,-1,2,-5
117392721244,-2,-4,-2,4,3,-1,2,11
117392736343,-33,-1,-3,-7,-7,-3,-3,-24
117392736343,10,-2,0,-5,-2,-1,0,4
117392744312,3,5,0,14,3,0,1,12
117392744312,-12,-5,-1,-8,-2,-2,0,-8
117392758636,6,1,1,5,4,2,1,-4
117392758636,-4,-8,-2,7,-5,-3,-6,-83
117392766849,-1,-3,-3,-23,-5,-2,-3,9
117392766849,-18,-25,-7,2,-1,-2,-6,-24
117392773599,12,-5,1,4,3,0,2,34
117392773599,21,-1,-1,-5,0,-2,1,23
117392781318,2,0,0,15,-1,1,1,-14
117392781318,13,12,-1,-19,-4,-1,-2,13
117392806486,-16,-10,-3,4,-3,0,-5,-16
117392806486,3,10,0,-14,-3,0,-1,8
117392807518,3,-14,-3,10,3,-2,-1,0
117392807518,2,5,0,-2,2,1,1,45
117392818634,6,-2,-3,-25,-6,-2,0,-18
117392818634,13,1,0,-4,-4,0,-1,28
117392826878,-25,-2,-8,4,-1,-4,-8,-6
117392826878,8,7,3,-8,-5,0,-3,-15
117392841764,0,-3,0,5,3,-1,-1,-9
117392841764,-8,-14,0,0,0,0,1,23
117392842530,7,6,-3,-22,-6,-1,-2,-14
117392842530,1,-2,2,14,3,1,3,-6
117392856222,-13,2,-5,-3,0,-4,-4,-11
117392856222,-15,-3,-4,-14,-7,-3,-2,-14
117392864334,3,1,0,1,0,0,0,-10
117392864334,5,6,-1,11,-1,-1,-1,30
117392879011,11,25,3,8,-1,-2,-1,-4
117392879011,0,-12,0,-5,1,-1,0,3
117392886780,-13,-4,-1,8,-5,0,-1,-2
117392886780,-1,-4,-4,-17,-5,-1,-3,0
117392901783,-10,-8,-1,-5,1,-2,-4,-52
117392901783,14,0,1,-2,-1,1,3,72
117392902494,9,5,-2,4,2,-1,3,25
117392902494,-6,7,3,1,1,1,-3,-19
117392916067,4,-3,0,9,-1,0,1,3
117392916067,-1,-3,-2,-2,-1,-1,-3,-43
117392924319,19,-6,-1,2,0,-2,-3,-11
117392924319,7,-2,-2,17,1,0,6,57
117392938586,8,5,-1,-39,-6,-3,-2,12
117392938586,-6,3,-1,0,-1,-2,-3,-16
117392946539,2,7,0,3,1,2,0,4
117392946539,-8,-11,-4,-3,-2,-2,-2,-15
117392961784,1,-7,-2,13,5,0,0,1
117392961784,-3,16,-1,0,-8,-3,0,-4
117392962535,1,1,1,5,-1,-1,-1,-4
117392962535,-10,4,1,-3,2,0,-3,-49
117392976086,8,5,3,14,2,1,2,40
117392976086,1,-3,-1,-18,-1,1,0,5
117392984319,10,1,-2,10,-1,-1,-2,-21
117392984319,-4,-3,0,-6,-1,0,-1,-1
117392998610,-14,-10,-3,3,1,0,1,-15
117392998610,0,-1,-1,12,4,-1,-2,-1
117393006778,-9,-1,-2,-20,-3,0,1,8
117393006778,0,-9,-1,2,0,-2,-1,-28
117393021726,2,-2,-4,-14,-5,-2,-2,0
117393021726,-3,-2,-1,-2,1,-2,-2,0
117393022522,-21,-9,-2,1,1,-2,-3,-17
117393022522,22,8,0,-1,-2,-1,-2,-1
117393036103,3,-3,1,7,-1,-1,-1,6
117393036103,3,-4,-2,0,-1,-1,-2,-23
117393044333,-1,4,3,2,0,0,1,19
117393044333,-8,-4,-2,-6,-2,-3,-2,2
117393058584,1,-2,1,3,-2,-2,-4,-3
117393058584,-6,-7,1,-3,-1,-1,-3,-12
117393066775,-12,0,0,3,-1,-1,-3,-36
117393066775,-10,-5,-3,-8,-2,-3,1,38
117393081757,-1,0,0,-1,0,-1,2,-7
117393081757,-7,-18,-3,1,-1,-1,0,13
117393082520,-31,4,-6,-3,-3,-3,-4,-9
117393082520,8,11,0,-1,0,2,-1,-2
117393096092,2,4,-5,0,-1,-2,-3,-9
117393096092,12,-3,-3,-1,0,-1,0,13
117393104329,13,0,0,1,0,-1,0,-16
117393104329,-1,5,1,-4,-2,-2,-2,2
117393118525,-19,-13,-3,-1,-2,-1,-3,-2
117393118525,-18,10,-1,-2,0,-2,-3,-63
117393126794,17,-1,1,0,1,1,4,68
117393126794,-6,-7,-2,1,-1,-2,-2,-10
117393141698,7,-29,-5,-3,-1,-1,0,-2
117393141698,1,3,-2,1,-2,1,0,9
117393142489,3,-3,0,-2,-1,-1,0,-1
117393142489,3,-2,-2,0,0,-1,-1,-2
117393156072,16,14,1,2,-1,-2,-1,16
117393156072,-31,-3,-3,-6,0,-2,-4,-17
117393164307,16,-3,-1,4,1,-1,1,13
117393164307,-1,0,-1,-3,-3,-1,-1,-3
117393178589,4,2,-1,0,0,-1,2,1
117393178589,5,3,-2,1,1,0,-1,11
117393186784,-6,-3,-2,1,-2,-2,-2,0
117393186784,-14,-10,-3,2,1,-1,-2,-42
117393201533,0,7,0,1,-3,-1,-2,-5
117393201533,5,-1,0,-4,-2,-1,-1,-31
117393209313,-4,-2,-2,0,0,-1,0,28
117393209313,-1,11,0,-3,-1,-1,-2,-12
117393216028,-2,-4,3,7,2,1,1,-8
117393216028,2,9,-1,-12,-3,-1,-1,27
117393231746,3,-4,-1,-1,0,0,-1,-9
117393231746,6,26,2,-2,0,-2,-1,5
117393238593,-27,6,-1,1,-1,-1,-1,-1
117393238593,6,3,0,-3,-4,-3,1,8
117393246787,1,5,1,0,0,1,-1,-9
117393246787,15,-3,-3,-3,-1,-1,-1,14
117393261785,9,3,-1,-2,0,-2,-3,4
117393261785,1,-7,-2,2,-1,-3,-1,0
117393262541,1,3,1,-2,-2,-1,0,21
117393262541,3,-3,-2,-1,-2,-2,0,8
117393276196,7,-9,-1,-4,-1,-2,-3,-29
117393276196,8,-1,1,4,0,1,1,29
117393284252,-2,17,1,-1,-1,-3,-1,-15
117393284252,-8,-3,2,-4,-3,-2,-2,-3
117393298633,-5,-28,-5,-3,-1,-2,-1,37
117393298633,-1,-7,-3,-3,-3,0,-2,5
117393306790,-4,-3,-2,-2,-2,-2,-4,-11
117393306790,1,-10,0,-5,-2,-2,1,4
117393321759,-2,-2,-2,-2,-3,-1,-3,-12
117393321759,5,20,2,4,1,2,-2,0
117393322550,-14,-12,-1,1,0,-2,-3,-64
117393322550,11,-8,-3,-2,0,1,6,76
117393336208,-7,3,0,0,-2,-1,0,-12
117393336208,-8,-11,-3,2,-1,-2,-2,-15
117393344234,-2,4,-1,-2,-2,1,-1,-3
117393344234,-10,-8,-2,-2,0,0,-4,-25
117393358669,-1,12,0,-2,-1,-1,0,2
117393358669,4,-3,0,2,0,1,0,13
117393374319,11,4,0,1,-3,0,1,-18
117393374319,8,-1,-2,-6,0,-2,-2,15
117393381755,-11,3,-1,-2,-2,-2,0,8
117393381755,-3,-10,-2,2,2,-3,-1,-14
117393382535,1,-2,1,-1,2,-4,-2,-2
117393382535,-22,-3,-3,3,-5,-2,-4,2
117393396093,7,-2,-1,-3,0,-2,-1,-32
117393396093,-4,4,1,-3,2,0,6,51
117393404256,24,-10,0,-2,0,1,2,36
117393404256,-15,-11,-4,-5,-3,-2,-3,-28
117393418576,4,10,-3,4,-3,0,-3,2
117393418576,-8,0,0,-8,-2,-2,-2,-11
117393434255,-14,-10,-4,-1,-2,-2,-4,-22
117393434255,-4,4,3,1,1,1,0,-10
117393441748,6,-4,-1,1,-1,-1,0,6
117393441748,9,-2,-1,-1,0,-1,-1,-4
117393442540,-1,-6,-3,-5,-1,-2,-4,-34
117393442540,-18,-3,-1,3,-1,-2,0,-24
117393456106,6,-35,-4,-2,-1,-1,3,87
117393456106,-17,4,-5,-3,-2,-4,-3,-16
117393464299,-11,-17,-2,-1,0,-1,-2,-6
117393464299,5,-7,-2,2,-2,-2,-2,-13
117393478629,-11,7,-2,-4,0,-1,-2,-27
117393478629,1,0,-1,2,-2,0,-3,-2
117393486862,0,-2,1,0,-2,0,0,33
117393486862,4,-1,-3,-4,0,-1,-2,-4
117393501559,-1,7,0,1,0,-1,-3,-9
117393501559,-18,-10,-1,0,-2,-2,-2,-22
117393509251,1,10,2,2,-1,-1,2,4
117393509251,-4,-7,0,-6,-3,-2,-2,0
117393516080,39,6,1,0,0,-2,-1,-24
117393516080,3,-15,-1,2,1,0,2,53
117393524324,-4,1,0,-2,-3,-1,1,8
117393524324,-17,-20,-4,5,2,1,-2,-31
117393538593,2,4,-1,-9,-5,-2,3,87
117393538593,19,-4,-2,1,0,-1,3,8
117393546767,-2,-4,-2,0,0,0,-2,7
117393546767,5,6,2,-2,-2,-1,1,18
117393561694,-16,10,1,2,0,-2,-5,-42
117393561694,-12,-11,-2,-4,-2,0,-6,-27
117393562536,-9,8,-3,-5,-1,1,-1,16
117393562536,-4,-5,-4,2,-2,-2,-3,-36
117393576062,5,10,1,-1,3,1,4,29
117393576062,-6,4,-1,0,-2,-2,-2,0
117393584307,18,3,0,0,-2,-2,-1,-13
117393584307,6,4,2,-1,-1,0,-1,5
117393598580,-14,-9,-2,5,-1,-1,-3,-28
117393598580,5,1,-2,-9,-3,1,1,2
117393606787,-7,-4,-3,0,1,0,-1,-1
117393606787,0,3,-1,-4,0,-2,0,7
