timestamp,emg1,emg2,emg3,emg4,emg5,emg6,emg7,emg8
117380918295,1,-4,-1,1,1,-2,0,14
117380918295,0,-1,0,-6,-1,0,-3,-1
117380919076,-1,-2,-1,-1,-2,0,-3,-2
117380919076,-8,-2,-3,0,-1,-2,-1,-1
117380919881,4,0,0,-1,-2,0,-2,-7
117380919881,5,-14,-3,3,-2,0,-2,-31
117380920655,5,5,1,-4,0,1,4,35
117380920655,-6,-13,-1,-4,-3,-2,-2,-5
117380932108,-2,-15,-1,2,-1,0,-2,-3
117380932108,5,3,-5,0,-1,-2,-1,5
117380940034,-2,-3,-3,1,-2,-2,-2,-13
117380940034,2,0,-1,2,1,2,0,-2
117380946353,-12,5,0,2,-1,0,1,-4
117380946353,8,8,1,-7,-1,0,-2,-17
117380961326,17,-3,-3,-2,0,-1,0,15
117380961326,1,4,2,2,-2,-1,-3,5
117380970739,-8,-3,-3,-4,-2,0,-4,-5
117380970739,-3,2,-3,-1,0,0,-1,2
117380976369,0,-4,-1,-1,-2,-3,-2,-16
117380976369,0,-3,0,-8,-2,0,0,-7
117380992267,-29,-11,-4,2,-2,-2,-2,-4
117380992267,-4,-2,2,5,-1,-4,1,9
117380999919,-4,2,-3,-10,-1,0,-2,-6
117380999919,-1,-5,-1,10,1,-2,-2,0
117381039656,1,-1,1,-28,1,1,0,0
117381039656,-2,0,-3,-1,-6,-3,1,-2
117381040375,-2,33,1,-1,1,-2,-2,-2
117381040375,0,-4,-9,-1,-1,-2,-1,-3
117381041179,-1,-2,5,4,0,-1,-2,0
117381041179,-1,-1,7,32,2,-1,-3,-2
117381043619,-4,-4,-19,-48,-3,-1,-1,-2
117381043619,-2,2,1,-6,-7,-1,0,0
117381051814,-2,-2,-12,11,2,-1,-1,-2
117381051814,0,5,13,1,-3,-1,-1,-1
117381058610,5,-7,-5,20,3,1,-1,3
117381058610,-4,-8,-20,-14,-3,-4,-3,-4
117381066190,-4,-4,5,-39,-9,-2,0,-4
117381066190,-2,-1,-6,7,2,-2,-1,3
117381081161,0,-10,-1,-1,-1,-2,-3,-5
117381081161,3,3,2,-21,-2,-1,-2,2
117381089398,6,-21,-7,20,0,-2,-1,3
117381089398,-10,-2,-15,-19,-2,-1,-1,1
117381096158,4,-1,24,20,2,0,2,3
117381096158,1,-7,2,14,1,0,-4,-9
117381111849,-17,1,2,12,-1,-4,-3,-8
117381111849,1,-2,-5,-25,-8,-2,-5,-6
117381118584,-5,-10,-23,-28,0,0,1,6
117381118584,-1,-3,10,9,-5,2,-1,0
117381126423,-1,6,-6,1,0,0,1,-3
117381126423,7,-18,-15,-9,4,-6,-4,-11
117381150062,-4,-16,-5,11,-6,-4,-8,10
117381150062,-15,7,12,11,5,3,5,-3
117381150837,20,14,-3,-15,0,1,-2,7
117381150837,-18,19,-5,16,4,3,1,-8
117381156420,4,2,2,-5,-23,-9,-5,-10
117381156420,-5,-8,-2,7,5,6,-2,5
117381171956,4,1,11,-1,4,-16,-1,3
117381171956,0,4,-5,11,1,32,6,-64
117381178720,9,1,-1,-5,1,-27,0,58
117381178720,7,12,-14,-10,2,-5,-4,19
117381186170,-4,4,9,20,14,11,-3,-4
117381186170,-4,-10,-3,1,-15,-5,-19,-1
117381201160,-11,-8,4,-7,3,2,11,-22
117381201160,4,5,-2,-2,-2,-2,4,-8
117381209614,4,-33,-24,-31,-15,2,8,14
117381209614,-7,-17,12,22,1,6,6,-8
117381216306,5,3,-11,-44,-6,4,-4,22
117381216306,5,0,-2,24,11,13,-10,7
117381232107,-14,-12,-1,1,-7,-46,-8,-53
117381232107,5,6,5,-8,10,8,-5,19
117381238779,-21,0,10,40,12,13,18,-30
117381238779,2,-12,8,5,-9,3,12,-2
117381246303,-30,15,-4,-12,-5,38,-21,-10
117381246303,6,-1,-2,-4,-3,-47,8,27
117381261378,1,4,3,14,21,2,-12,-10
117381261378,5,3,-4,-20,-16,-29,-11,-10
117381269434,-13,0,-7,26,4,9,22,-19
117381269434,12,3,13,-18,-10,33,1,71
117381276462,-8,-2,1,14,2,2,22,-18
117381276462,8,3,3,5,-3,3,2,14
117381291904,7,3,2,-6,-4,-14,-9,9
117381291904,9,-3,5,20,7,-3,-14,-13
117381298697,7,-7,-7,-16,-7,-18,-36,-25
117381298697,-12,-3,9,15,-2,8,6,23
117381306446,3,5,4,25,-5,-26,-2,13
117381306446,2,4,-6,11,-4,-38,25,-6
117381321270,4,5,4,3,-3,48,-14,-3
117381321270,-4,-19,-2,-53,17,8,-12,-56
117381329355,8,-9,6,40,-1,8,1,28
117381329355,-5,-1,-3,7,17,8,14,5
117381352600,-7,-3,-3,-23,-16,-11,7,-25
117381352600,7,4,4,-9,-6,-16,-10,23
117381353377,5,9,1,5,15,33,21,4
117381353377,5,-7,-8,-38,-9,-38,-28,-3
117381358671,0,-3,-1,2,-5,-16,-21,-11
117381358671,0,5,-4,-5,-1,-7,10,43
117381366322,0,1,3,12,4,14,5,0
117381366322,-9,8,-1,-13,-4,23,8,-2
117381381157,4,1,6,26,-7,-24,-12,10
117381381157,14,1,-4,-3,9,2,-8,-12
117381390283,-4,2,8,-16,-7,1,6,-8
117381390283,6,3,-5,32,7,6,4,10
117381403714,-16,-23,-8,15,5,5,1,-1
117381403714,-2,-1,-4,-6,-17,20,6,-18
117381412719,-6,-3,0,30,9,-40,-10,-8
117381412719,-16,-6,-1,-19,-2,3,-15,-29
117381418715,23,-3,0,-22,-1,2,11,13
117381418715,-20,-6,-2,15,1,2,6,5
117381435139,-11,-5,0,1,7,3,-10,3
117381435139,-5,1,-1,-15,-12,8,1,-2
117381441366,5,5,-3,16,4,-8,3,9
117381441366,-10,5,2,7,-3,-1,0,-15
117381450254,4,-5,-9,-19,4,2,-10,-10
117381450254,-12,-10,3,-49,-19,-15,-4,-6
117381480309,-1,2,0,-18,-9,3,4,-12
117381480309,-9,-5,1,42,14,-2,-2,-16
117381481618,4,8,0,20,-1,2,-1,4
117381481618,6,-10,-4,-28,-8,-4,0,5
117381503210,-1,0,-3,-16,-5,7,5,9
117381503210,0,4,-7,20,0,-8,-5,-20
117381504789,1,8,2,1,-8,-1,-1,14
117381504789,0,6,3,26,12,5,0,-3
117381505589,11,11,-2,20,2,1,-1,9
117381505589,26,7,-3,-67,-24,-12,1,7
117381510240,4,-8,-4,1,-5,0,-2,-8
117381510240,8,11,3,0,6,0,-2,1
117381523649,0,22,-1,46,2,0,-2,-23
117381523649,-1,-4,-3,-60,-11,-3,-1,5
117381532618,-1,-1,1,32,7,0,-3,12
117381532618,16,6,-6,4,-6,-2,-3,-8
117381538673,-8,-1,3,6,1,0,2,9
117381538673,2,-3,1,9,5,-1,-1,0
117381563297,-42,-3,-5,-52,-13,-1,-4,-40
117381563297,8,-1,4,38,12,0,4,23
117381564088,-9,-11,0,-12,-2,0,-6,-89
117381564088,26,-9,-2,-12,-1,3,14,100
117381577682,0,-6,-9,-28,-10,-3,-3,-20
117381577682,-7,-2,0,3,-5,-1,-1,-4
117381583646,-4,13,3,-11,14,0,-2,-11
117381583646,5,-14,-1,44,-1,-1,-3,-22
117381592834,11,4,2,-11,2,0,0,12
117381592834,-2,0,-3,-2,-3,-1,1,7
117381598681,-25,-4,-5,-16,-5,-1,-2,16
117381598681,-5,-6,-1,13,12,-1,-6,-21
117381615143,6,3,-1,4,-8,-1,-3,-12
117381615143,8,-6,0,33,11,1,-1,-11
117381621348,-13,-7,-2,-30,-12,-3,3,12
117381621348,-26,-12,-3,31,10,-3,-10,-21
117381630234,10,-12,-3,-28,-11,0,3,50
117381630234,-26,1,1,-4,-2,0,-4,4
117381643928,40,-16,0,13,13,6,10,63
117381643928,-2,6,-5,-19,-13,-5,-4,-26
117381652754,4,5,7,16,2,-4,-5,-12
117381652754,10,-10,-9,-33,-5,-2,-6,-14
117381658875,-12,-9,-1,-54,-13,-2,-2,-7
117381658875,-5,5,0,14,12,-1,-2,-17
117381675231,5,-13,4,-3,3,2,2,-6
117381675231,-4,8,-5,-6,-13,-4,-5,-37
117381681396,28,3,4,6,-1,0,-1,36
117381681396,0,-10,2,1,-4,1,1,-21
117381690190,-30,1,-12,-3,3,-3,-21,-65
117381690190,17,3,7,-2,0,1,4,32
117381703618,-6,5,-10,7,-1,-3,-5,-101
117381703618,20,-1,-10,-11,-6,-2,9,76
117381712900,31,4,-7,5,5,3,8,77
117381712900,-47,-3,7,1,7,0,5,-44
117381718715,-23,-17,-3,-23,-8,-4,-9,9
117381718715,40,34,10,12,0,2,2,-13
117381735178,33,3,0,6,-1,2,27,110
117381735178,38,20,9,-20,13,4,-4,-66
117381741208,-16,-1,-3,52,-2,-4,-1,1
117381741208,-83,-19,6,4,-4,-3,-6,-113
117381750162,28,10,4,-20,-10,-3,-6,-6
117381750162,-18,-20,-12,-37,5,2,1,-16
117381763647,59,-3,4,28,27,7,11,39
117381763647,-16,-19,5,-27,-31,-3,-13,-60
117381772678,69,31,9,36,8,5,5,54
117381772678,-24,-12,-31,-31,-9,-4,-1,6
117381778591,-35,-2,-15,-20,-24,-6,-8,-3
117381778591,-13,13,-9,14,29,-1,-4,-24
117381795156,22,-6,5,-10,-8,1,0,27
117381795156,5,-4,28,79,13,-3,2,-10
117381801169,18,4,4,8,-6,5,11,94
117381801169,6,8,16,55,4,1,-9,1
117381810162,-36,-6,-32,-105,-41,-15,-7,-63
117381810162,23,0,16,29,19,8,2,-24
117381823629,-36,6,18,25,12,5,-1,-31
117381823629,-43,0,-16,25,9,-10,-3,-3
117381832732,32,0,-5,-70,-18,6,3,69
117381832732,-13,13,8,33,-4,-10,-4,25
117381863364,-14,4,-6,25,1,-15,-7,-34
117381863364,33,11,9,-97,-57,-3,7,53
117381864838,-60,-11,-17,13,58,0,-7,-77
117381864838,6,2,-16,-34,-35,9,-8,10
117381865845,22,-14,22,11,17,17,9,44
117381865845,10,4,-13,7,-1,-6,5,11
117381870292,-23,-9,4,5,12,19,13,-45
117381870292,13,-5,9,32,15,-10,-9,44
117381883610,-6,-1,-24,-36,-43,-13,-10,-24
117381883610,7,-2,-1,-13,9,-11,-14,2
117381892900,-1,-4,7,12,3,6,10,28
117381892900,-25,-9,-24,21,3,-9,4,7
117381898790,-2,23,8,-29,-3,-10,-7,-20
117381898790,17,-6,-3,1,26,8,6,35
117381915273,-11,11,7,45,-2,2,-10,12
117381915273,-15,-11,-1,-51,-15,6,3,-5
117381921279,4,-7,-14,36,3,-11,2,30
117381921279,5,11,6,-1,5,-7,2,-5
117381930234,-16,-8,-11,38,5,15,-3,-36
117381930234,-15,-18,-1,-23,-21,-13,-1,20
117381943875,-4,-16,0,-10,-4,-18,-1,-5
117381943875,-2,5,1,23,12,1,-3,-17
117381952707,-6,-9,-5,-19,-7,-7,-4,-14
117381952707,-2,1,-8,-6,-11,4,-5,-25
117381958659,3,6,8,-17,1,17,-4,-12
117381958659,-1,-8,0,-11,-5,-4,13,39
117381975226,-5,-18,12,25,-3,4,2,-18
117381975226,15,4,0,26,15,8,-4,6
117381996468,-7,4,-5,-60,16,-7,-6,-15
117381996468,-1,7,1,-17,-37,0,-10,-60
117382005168,-9,2,2,-13,-4,-17,1,6
117382005168,-5,7,3,1,-2,-5,-3,-3
117382027599,-19,-8,-4,23,7,-3,-15,-12
117382027599,9,9,0,-3,22,8,6,-6
117382029423,-14,31,-8,2,-15,8,2,-22
117382029423,-12,14,6,-9,1,-9,3,0
117382049849,12,8,3,8,2,5,2,-18
117382049849,-7,-7,-5,-10,-5,-8,-8,4
117382057466,0,-3,1,-12,-12,-18,-12,-2
117382057466,2,23,-1,33,27,11,6,-18
117382058266,6,2,4,-27,-28,5,5,-7
117382058266,-2,-11,-9,0,3,1,1,52
117382059067,4,-11,6,5,-6,-10,-7,-29
117382059067,0,-4,-8,-24,-4,1,-6,-30
117382063604,-3,-10,-5,5,4,-3,1,-11
117382063604,-9,-6,7,27,1,5,0,5
117382074332,-9,-9,2,-15,9,-5,-3,-20
117382074332,18,-6,-6,-34,-21,-5,0,24
117382086310,-18,2,-1,3,2,1,1,-22
117382086310,7,8,-2,38,15,6,3,28
117382095199,1,1,-8,-56,-22,-6,1,6
117382095199,1,-10,8,14,2,-5,-6,-54
117382110036,41,-13,0,11,8,5,17,115
117382110036,14,-1,-5,4,-1,2,4,22
117382111575,-7,-15,8,13,3,-6,-6,-8
117382111575,6,-2,0,2,1,3,3,11
117382123630,-38,4,-5,-35,-17,-3,-12,-42
117382123630,1,-36,-8,12,12,2,7,-2
117382132741,33,11,3,-7,-4,-3,-3,21
117382132741,6,7,4,-1,-2,-1,1,-7
117382161986,16,-5,0,45,20,7,7,42
117382161986,7,5,-4,-57,-19,-1,2,42
117382168672,-18,2,-5,40,7,-1,-10,-65
117382168672,-4,-23,-6,-30,-10,-3,-4,-17
117382183693,6,9,5,5,-3,-3,-1,0
117382183693,-15,-9,-15,-12,2,0,-11,-81
117382194238,-5,3,1,-9,-6,-1,3,15
117382194238,-19,-3,3,7,4,-4,-5,28
117382199410,-2,-4,-2,-1,-3,1,0,-20
117382199410,-20,12,9,-8,-3,2,-8,-41
117382200262,-1,-9,0,22,8,-1,-5,20
117382200262,25,14,-6,1,5,-2,-9,42
117382206271,-4,-5,-6,-17,-3,0,19,13
117382206271,0,-2,4,-6,-5,-2,1,8
117382215246,-33,4,6,-7,2,-2,-6,-73
117382215246,-6,-8,-4,5,-7,-1,2,6
117382230173,-6,-17,1,-6,5,-4,-12,-24
117382230173,-7,-16,-4,15,-5,0,0,15
117382231824,12,3,10,13,-4,-4,1,-31
117382231824,-4,-14,3,-36,-6,0,-2,17
117382243620,-4,10,-9,19,1,1,-6,-61
117382243620,-4,5,-2,11,2,-4,4,76
117382252664,-9,-7,-5,14,6,1,-3,19
117382252664,10,-17,2,-34,-10,1,10,79
117382266277,15,6,8,13,0,-3,-6,-8
117382266277,-15,0,0,-29,-7,-1,-2,-18
117382275212,9,10,-10,29,8,-4,-2,10
117382275212,0,6,-3,18,6,-1,1,-7
117382290121,-16,5,2,-38,-11,-2,-6,-45
117382290121,2,-1,-7,-2,-3,-1,-2,3
117382291681,-10,1,-9,-1,2,3,0,-42
117382291681,-17,-22,-2,13,-5,-3,-2,-17
117382303605,-24,4,4,16,1,-2,-12,-92
117382303605,33,14,6,30,4,0,4,77
117382312686,-2,-25,-21,-34,-9,2,7,4
117382312686,-27,-5,-4,46,11,-2,1,-7
117382326378,-1,5,9,-5,-1,-2,-3,23
117382326378,2,-10,-15,-1,-8,-3,-6,-21
117382335211,-2,-3,-2,-12,-2,-2,0,2
117382335211,7,10,18,10,1,3,-2,-43
117382350052,2,-4,-9,16,3,0,12,120
117382350052,11,15,5,2,-2,-3,-7,-57
117382351623,12,-3,-10,33,12,2,1,22
117382351623,-44,-10,-9,-42,-19,-8,-14,-40
117382363917,5,8,-15,-17,-5,-2,-6,-32
117382363917,-38,0,6,37,16,8,1,-56
117382372631,10,-2,-22,-60,-20,-3,6,65
117382372631,2,-6,50,20,0,-4,-4,-8
117382386281,-30,-8,-26,12,-1,-4,-5,-66
117382386281,1,0,26,-16,-5,-1,0,11
117382395241,-39,-5,13,29,8,0,-9,-58
117382395241,10,16,-30,-23,1,2,5,35
117382424977,7,2,-1,-25,-10,-5,-4,43
117382424977,-12,-19,2,-7,10,3,-4,-42
117382426573,18,7,8,55,-14,-4,1,23
117382426573,3,18,24,-9,10,7,6,1
117382432057,27,7,20,49,19,5,7,41
117382432057,19,9,-53,-1,-9,1,-2,-26
117382438687,-38,-11,19,107,32,5,-1,-36
117382438687,15,-2,-83,-84,-34,-14,-9,-19
117382446368,-2,6,15,21,4,-3,-7,-22
117382446368,-25,-3,1,-80,-8,-9,-10,-19
117382455243,41,4,28,31,-2,10,1,-7
117382455243,13,-17,-35,7,26,9,13,37
117382470170,14,-8,15,-7,-5,-6,-5,-19
117382470170,3,-13,-15,33,-11,-8,-10,9
117382471647,20,19,6,-51,-8,-8,-3,40
117382471647,-1,-43,22,37,22,6,5,17
117382483611,7,0,-19,34,11,6,-2,9
117382483611,51,13,19,-32,-11,10,14,101
117382492654,-2,-4,0,-128,-20,-3,-6,2
117382492654,16,30,14,69,-14,3,0,-13
117382506287,-7,3,-8,-3,47,8,-1,-14
117382506287,-14,0,4,27,-1,-16,-16,-43
117382515272,-52,-16,-7,-84,-73,-1,4,-52
117382515272,18,11,-8,-85,1,-2,-4,44
117382530250,-5,-10,-8,33,5,8,6,11
117382530250,-19,7,10,72,20,0,3,-4
117382531788,-8,-12,-13,-13,-24,-16,-2,18
117382531788,-24,-16,4,46,6,-4,-4,-24
117382543930,4,-18,-3,-60,-28,-9,-11,65
117382543930,-9,-16,-19,4,17,2,4,-8
117382552657,14,10,-6,37,19,0,1,6
117382552657,2,10,2,-9,-17,-3,2,-5
117382566329,-12,0,4,-3,-3,-2,0,-23
117382566329,64,-10,1,-29,-16,-2,0,11
117382575299,-11,0,0,18,14,1,0,38
117382575299,-3,26,4,-8,1,2,-8,-41
117382590174,-4,-7,-10,-4,-14,-2,1,-7
117382590174,-18,3,5,-12,-8,2,1,-15
117382591851,27,5,2,17,18,4,2,1
117382591851,6,-1,4,38,11,1,-2,1
117382603637,2,6,-10,-7,-21,-4,1,8
117382603637,-17,1,9,-19,-5,-1,2,-46
117382612881,-7,2,2,36,15,2,-1,13
117382612881,-12,-21,-7,1,-2,-5,-3,-4
117382626343,1,-9,-2,-18,-8,-3,0,-23
117382626343,-24,-9,3,-4,1,1,-1,-3
117382635225,-4,-12,-5,4,9,-1,-2,-26
117382635225,0,1,5,16,-7,-2,0,-1
117382649557,9,-8,6,1,-6,-2,2,2
117382649557,6,0,-3,8,1,0,-2,10
117382656199,27,19,3,0,2,0,0,16
117382656199,27,21,-1,1,-4,-3,0,-8
117382663637,5,5,3,-13,-2,0,3,35
117382663637,-11,9,2,14,1,-1,-3,11
117382672710,-6,-2,-6,-6,2,-3,-4,-26
117382672710,-9,-4,-1,-6,-3,0,0,3
117382686458,5,2,3,-2,1,-1,1,2
117382686458,-18,-12,-7,-10,-3,-2,-3,-7
117382695191,-15,-8,-7,-5,-1,-4,-5,-19
117382695191,-5,22,3,-1,-1,0,1,-7
117382709575,-17,3,-3,-3,-1,3,4,-11
117382709575,4,-3,1,-1,-2,0,0,6
117382716176,-7,1,0,-1,2,0,-3,-4
117382716176,3,-4,1,-5,-4,3,-2,-3
117382723812,-4,-8,-15,-5,-5,-9,-3,-4
117382723812,1,13,1,13,0,-2,-1,-10
117382732684,6,-7,-3,1,8,2,-1,20
117382732684,4,-9,-3,-13,-8,-3,-1,4
117382746222,3,-3,3,5,-2,1,-1,-5
117382746222,-2,2,-1,1,-1,-1,1,3
117382755269,-4,-18,-6,-11,2,0,-3,-3
117382755269,-10,-4,-2,10,2,1,0,5
117382769380,-9,-3,3,-1,-1,-1,-3,-12
117382769380,0,-3,-2,-2,-7,-2,0,-1
117382776173,0,5,2,-3,-1,2,-1,5
117382776173,-2,4,-3,-5,0,-4,-4,-5
117382783675,-5,-1,2,-7,-3,0,-1,0
117382783675,12,6,0,-3,3,0,5,-7
117382792640,3,4,-2,-3,-1,-2,1,5
117382792640,-4,-3,-3,2,-1,-11,-4,2
117382815139,-5,2,0,1,0,4,0,-5
117382815139,-8,-5,-2,-7,-1,1,-3,0
117382816574,-3,2,0,4,-2,-2,-1,-4
117382816574,1,0,-3,-6,-1,-2,-2,-1
117382829403,1,0,1,-6,-2,-4,-2,-14
117382829403,-3,-5,-3,2,1,-2,-1,6
117382836172,-5,4,0,-5,0,-3,-1,3
117382836172,-6,-6,-3,12,0,-3,-2,0
117382852554,2,0,7,15,2,2,0,-2
117382852554,-6,0,-10,-18,-6,1,-2,-2
117382854218,4,-4,-1,-12,-2,-1,0,0
117382854218,-4,-25,-4,3,1,3,-1,-1
117382866183,2,6,0,3,2,-1,-1,-2
117382866183,-1,-2,6,9,-3,-1,-1,-1
117382875177,0,3,2,6,-1,-2,-1,1
117382875177,-2,0,-13,-23,-2,0,-1,-3
117382889353,1,-7,-4,-4,-5,0,1,1
117382889353,-4,-9,-1,7,5,-2,-3,-1
117382896190,1,-1,-2,-6,-1,0,0,-2
117382896190,-1,1,1,9,-4,-1,0,-3
117382912491,-6,1,-2,10,6,-3,-2,1
117382912491,-3,2,-1,-31,-8,-3,-1,1
117382914134,-1,1,1,17,4,3,-1,1
117382914134,0,5,2,-23,-5,1,2,0
117382926114,-6,-1,-4,6,-1,-1,-1,1
117382926114,-1,-1,3,25,7,2,1,-2
117382935154,-1,-3,-6,-44,-11,-4,0,-3
117382935154,-2,-1,2,13,5,-3,-3,-3
117382949356,-3,-3,-4,-11,0,1,-1,-1
117382949356,2,-14,-2,-6,-5,1,-1,-1
117382956123,-6,8,5,22,3,0,0,0
117382956123,6,-1,-8,-3,5,-2,-2,-2
117382972510,-5,-23,-2,-21,-13,-4,0,-1
117382972510,4,4,1,14,3,-2,-4,0
117382974026,0,-2,-2,2,-4,-2,-2,-2
117382974026,1,2,4,-9,-10,-1,0,2
117382986211,-3,7,-1,-3,0,-6,-1,-4
117382986211,-3,-1,-4,7,2,3,-1,-2
117382995169,1,-4,-5,-29,-7,0,-1,0
117382995169,-9,6,3,13,2,1,2,-2
117383009416,4,3,1,-7,-4,-1,0,1
117383009416,-3,3,3,2,2,-5,-1,-3
117383016211,-3,12,-3,34,10,-1,-1,0
117383016211,-1,-3,-1,-15,-6,0,0,0
117383032492,1,4,-3,-9,3,-1,-2,-15
117383032492,8,0,0,13,3,1,4,29
117383034194,-1,-1,-4,-43,-13,-4,-1,-2
117383034194,-1,-1,4,12,1,3,-2,0
117383046127,-2,-2,-2,16,2,-2,-1,-1
117383046127,1,9,-1,-13,-1,-1,-3,-11
117383055179,25,6,5,9,2,2,3,3
117383055179,0,-2,0,2,-4,-3,-1,2
117383069338,-3,1,1,-14,-2,-1,-4,-2
117383069338,-18,-2,-6,-8,-3,-3,-5,-27
117383076138,-8,-4,-3,23,3,-3,-5,-3
117383076138,-1,-7,-7,-12,-4,-3,-2,0
117383091572,5,2,-3,3,-2,-1,1,1
117383091572,-20,-8,-4,-11,-4,-3,-6,13
117383100165,-11,-6,1,4,0,-2,0,4
117383100165,0,1,-2,-3,-1,-1,-2,-10
117383106097,-9,2,-1,-1,0,1,-2,4
117383106097,7,-14,-1,-1,-5,-2,0,-3
117383115158,-2,-6,-1,-1,-1,-1,-2,-12
117383115158,6,1,1,0,1,2,1,11
117383129381,-6,1,-2,16,3,-2,-2,-13
117383129381,0,1,-1,-3,2,0,0,-6
117383136120,5,0,1,6,-1,1,-1,-8
117383136120,-4,8,-2,-19,-5,-1,0,13
117383152474,3,-7,-2,3,-3,2,-2,48
117383152474,-1,1,0,-11,-2,-2,-3,-69
117383154081,18,-1,-1,11,6,4,8,78
117383154081,-3,2,-4,1,-1,-1,-1,-9
117383166208,-8,-1,-2,-4,-2,1,-1,-48
117383166208,8,-3,-2,-1,-4,-3,2,23
117383175210,-2,-4,2,-9,-1,-1,-4,-18
117383175210,-17,-3,-4,0,-1,-4,-4,-20
117383189366,8,-2,-1,5,-2,-2,0,17
117383189366,2,-4,2,4,0,0,0,1
117383196197,-15,-5,-5,-2,-5,-5,-6,-22
117383196197,-9,-29,-2,-2,-1,-2,-2,-5
117383212536,-19,4,2,0,-1,-2,-3,-12
117383212536,5,7,0,-4,-2,-1,1,24
117383214169,9,12,-2,-3,-2,-2,-1,-4
117383214169,14,5,3,9,1,1,-3,-14
117383226121,9,-5,-5,-13,-4,-1,0,15
117383226121,-11,-4,-2,0,-3,1,-2,-13
117383241116,-11,0,-3,-4,0,-2,-2,-1
117383241116,11,8,3,6,1,0,2,0
117383249356,-11,-12,2,1,-2,-1,-2,-30
117383249356,-1,7,-5,-8,1,1,3,24
117383256196,8,-5,-1,4,-6,-3,-2,-6
117383256196,-7,5,0,-3,0,-1,-1,11
117383272497,-2,-4,-7,-11,-4,-1,-1,-17
117383272497,3,-1,-1,2,1,-1,-1,10
117383274218,-12,-4,0,5,1,1,-1,-9
117383274218,4,4,-3,-18,-6,-1,0,-2
117383286065,7,6,2,1,1,0,0,4
117383286065,-4,-7,-5,-5,-4,-3,-4,-10
117383302797,-27,9,-4,-2,-1,-2,-1,-6
117383302797,1,-2,2,7,0,0,1,14
117383309346,1,-2,-1,-2,-2,0,-1,-23
117383309346,11,5,-1,-6,-2,-1,2,40
117383316165,2,-1,0,2,-1,-1,0,0
117383316165,-2,-1,-2,1,3,1,-2,-2
117383332451,1,2,-1,-2,-1,-1,0,5
117383332451,-15,-4,-2,2,-4,0,-3,-18
117383334071,8,-5,4,-1,-1,-1,-2,-15
117383334071,-17,-8,-6,2,-2,-2,-2,-2
117383346195,3,3,-2,2,1,-1,0,21
117383346195,10,8,2,-7,-3,-2,-3,-7
117383361203,-5,-9,-4,-1,1,-1,-2,-4
117383361203,-1,5,3,1,-1,1,-2,1
117383369289,10,3,-2,-4,-2,-1,2,10
117383369289,-5,-3,-1,1,1,0,1,-8
117383376183,10,-22,-5,-1,-4,-1,0,0
117383376183,-12,-2,-1,1,-1,-2,-2,-15
117383392509,-6,-8,-2,-2,-2,-2,0,6
117383392509,1,1,3,4,1,-1,2,-2
117383394109,4,1,0,-2,-1,0,-2,3
117383394109,-5,-8,-2,3,-1,-1,0,2
117383406115,15,3,3,-1,0,0,-1,1
117383406115,-4,-4,-3,0,-1,-1,-2,-7
117383415201,-10,3,-1,-3,-2,0,-1,-3
117383415201,-5,-3,-1,0,-1,-2,-2,0
117383429308,3,-5,-4,-3,0,0,-3,-11
117383429308,-1,-11,1,-2,-4,-2,-3,-5
117383436197,0,0,-3,-1,-1,-1,2,64
117383436197,4,-2,-2,0,0,0,-1,0
117383452501,-5,-2,-1,0,-1,0,1,-1
117383452501,7,3,-1,0,-2,-1,1,11
117383454226,-7,-3,0,0,0,-1,-3,-25
117383454226,9,-3,0,-1,-1,0,2,-1
117383466204,-20,0,1,0,1,0,-3,-39
117383466204,21,6,1,2,0,0,3,27
117383475212,-1,2,-2,-2,-3,0,1,11
117383475212,14,5,2,2,0,-2,-2,2
117383505012,-5,-2,-3,-2,-2,-3,-1,-3
117383505012,-9,-3,-2,1,2,-1,-1,-20
117383506606,3,-10,3,1,5,1,2,18
117383506606,4,-1,-1,-2,-2,1,1,11
117383512498,0,-3,3,-1,-2,-3,-2,14
117383512498,2,5,-3,-4,-2,-2,-2,-10
117383514172,-1,4,-1,0,-1,-3,-3,-6
117383514172,-22,-7,-5,-2,-1,-2,-5,-25
117383526103,-5,0,-1,-2,-1,-1,-2,-28
117383526103,-6,3,0,-1,0,1,0,34
117383535219,2,-2,-2,0,1,0,-2,-25
117383535219,1,0,-2,1,-1,-3,-2,8
117383549321,6,6,-3,0,-2,-2,0,5
117383549321,-10,-6,2,0,-1,-3,-2,-4
117383556163,-8,4,-3,-2,-2,0,-1,-11
117383556163,14,-31,-2,1,1,-1,-1,2
117383571868,-3,1,-2,-2,-1,-1,-1,18
117383571868,-11,-4,0,-2,-2,-1,-2,-7
117383578631,2,4,2,-2,-1,-1,0,-1
117383578631,0,12,1,-2,-1,-2,-2,-4
117383586100,-5,-2,-3,-3,-1,0,-3,-5
117383586100,-10,-15,-7,-5,-4,-3,-3,-24
117383595148,13,0,0,0,-1,-1,-2,2
117383595148,-2,4,-1,-1,-1,-2,1,2
117383609294,-2,12,1,0,-2,0,-1,9
117383609294,3,2,2,0,0,-2,-1,-9
117383616126,-9,-4,-4,-1,0,-1,-3,-48
117383616126,17,7,1,1,0,2,5,56
117383631769,6,1,-1,-2,-1,0,-1,15
117383631769,-6,3,-1,0,-2,-1,-3,-8
117383638653,5,-18,-1,-1,-2,-1,-1,-9
117383638653,10,10,2,0,-1,-2,-2,-11
117383646191,-2,-2,-1,0,-2,-2,-3,-2
117383646191,5,0,0,-1,0,2,1,-1
117383655180,10,4,1,-2,-3,-1,0,12
117383655180,-8,-2,-3,-2,-1,-2,-1,-13
117383669295,2,-10,-1,-1,0,0,0,15
117383669295,2,-2,-2,0,0,0,-2,-11
117383676164,-9,15,-1,-2,-1,-1,0,2
117383676164,-9,1,-2,-6,-2,-1,-3,-9
117383691779,-7,-2,-1,-3,-3,-2,-1,-11
117383691779,-5,-5,-2,-3,-2,-3,-2,10
117383698641,-8,-1,-2,0,0,-2,-1,-1
117383698641,-3,0,-3,0,-2,-1,-3,-4
117383706201,3,-5,-2,1,0,-1,-2,3
117383706201,-1,1,-1,-1,-1,0,-1,-2
117383715170,-4,-4,-2,-1,-2,-2,0,2
117383715170,-4,-3,-3,-3,0,-1,-1,-12
117383729274,3,-4,0,-1,-1,0,0,6
117383729274,-2,0,-3,-1,0,-2,-1,0
117383736202,-8,13,0,-2,-1,-2,-2,0
117383736202,-8,-14,-3,-1,-3,-1,0,-3
117383751837,0,0,0,-2,-1,-1,-2,1
117383751837,1,0,0,-1,0,-1,0,2
117383758645,-3,-3,-2,-2,-1,-1,-3,1
117383758645,-1,2,-1,-2,-2,-1,-1,-5
117383775018,-2,-1,-2,0,-2,-3,0,3
117383775018,-5,-5,-2,0,-2,0,-2,-3
117383776658,-3,-5,-3,-1,0,1,-1,0
117383776658,-3,1,-2,-2,-2,-2,-1,-5
117383797486,0,11,1,0,-1,-1,1,1
117383797486,13,4,3,1,-1,0,0,1
117383799105,-6,-5,-1,-1,0,-1,1,-4
117383799105,10,15,1,1,0,0,2,1
117383811799,-17,7,2,1,1,-1,0,21
117383811799,-5,-24,-2,-1,-1,-2,0,-4
117383818664,-2,-3,-1,-1,-1,-2,-1,1
117383818664,11,-1,-1,-1,0,1,0,3
117383834985,8,-23,-5,-2,-2,-2,-3,-7
117383834985,-9,5,-1,-1,-1,0,-1,-2
117383836541,1,14,0,-3,-4,-2,-3,-32
117383836541,-11,-8,1,-2,-1,0,2,10
117383849354,5,2,-2,0,0,0,0,-4
117383849354,-1,-1,-2,-2,-1,-1,-1,6
117383856201,-1,-4,-5,-2,-1,-3,-2,-9
117383856201,-2,2,2,-3,-3,-2,-1,-5
117383871839,1,-4,-2,-1,-2,0,-1,-4
117383871839,-7,6,0,-2,-1,-1,-1,-4
117383878603,-2,-5,-2,-2,-2,-1,-1,9
117383878603,-5,-3,-3,0,-1,-3,-3,-5
117383894995,3,-3,0,-1,-2,-2,-2,7
117383894995,1,-2,0,1,0,-1,-1,-5
117383896611,4,3,-4,-1,-1,1,-1,0
117383896611,0,-12,-2,1,-1,-1,-2,6
117383909296,-7,4,-2,-3,-3,-3,-3,-25
117383909296,-24,0,-2,-1,-2,-1,-3,-8
117383923649,-9,-2,3,-1,-1,0,-2,9
117383923649,-5,4,-2,-1,-3,0,-1,-7
117383931795,1,-24,-7,-3,-1,0,-1,-1
117383931795,6,-5,-2,-3,-4,-2,-2,1
117383938634,3,-9,1,1,0,0,1,3
117383938634,-3,11,-3,-4,-1,-1,-2,-5
117383954961,-2,-17,-3,-3,-1,-1,-1,5
117383954961,0,-5,-5,1,1,-2,-1,-1
117383956561,2,0,2,1,1,-1,-1,2
117383956561,2,4,-1,-1,0,-2,0,-1
117383969338,-1,9,1,1,0,1,1,0
117383969338,20,9,4,0,0,0,0,1
117383976237,0,-6,-4,-1,-2,-1,0,3
117383976237,-5,-8,-1,0,-3,0,-3,-2
117383991854,-2,11,2,0,1,-2,-2,-1
117383991854,-4,-3,-2,-2,-2,-3,0,-1
117383998621,-3,-2,-2,0,0,-2,-1,2
117383998621,1,-2,0,0,-1,-2,-1,-4
117384014995,-3,2,-1,0,-3,-1,0,-1
117384014995,0,2,-2,-1,-2,0,-1,2
117384016605,2,-2,-2,-1,0,0,-2,0
117384016605,-5,-2,0,0,1,0,-1,-4
117384029320,-5,-5,0,1,1,1,-1,-1
117384029320,3,2,-3,-3,-2,-1,-2,0
117384036114,0,1,0,-3,-1,-1,-1,0
117384036114,9,-34,-4,-1,-1,-1,-2,-1
117384051833,5,9,2,0,0,-1,0,0
117384051833,9,0,1,0,-2,-2,0,0
117384058587,-6,-8,-3,-3,-3,-2,-1,0
117384058587,-2,8,0,0,0,-1,-1,-5
117384075409,-5,-3,-2,-3,-2,-1,0,8
117384075409,14,-1,0,0,1,1,-2,0
117384076996,3,3,2,-1,-1,-1,-1,1
117384076996,-6,26,3,1,-1,0,-3,-2
117384089387,-1,0,-1,0,0,1,1,-2
117384089387,-7,4,-2,-1,-1,-1,1,-1
117384096174,-4,-5,-1,-1,-1,-2,0,1
117384096174,3,7,-3,-2,-2,0,0,-2
117384111844,-6,4,-2,0,-2,-1,0,-3
117384111844,-6,0,0,0,-3,-1,-1,1
117384126087,-8,-1,-3,-2,-2,0,-1,-3
117384126087,-7,-6,-2,-1,0,-1,-1,0
117384135018,17,3,-2,-1,-2,-3,-2,-4
117384135018,5,-9,-1,-1,-1,-2,-1,1
117384136593,0,1,0,0,0,-1,1,0
117384136593,0,-3,-1,-1,0,1,0,0
117384149330,-16,-4,0,1,-1,-1,-2,-1
117384149330,-1,1,-1,-1,0,0,1,-7
117384156117,4,-7,-2,-2,-2,-1,-2,8
117384156117,1,0,1,-2,-1,-1,-1,3
117384171798,3,23,0,-1,-2,-1,-1,-4
117384171798,-6,2,-2,-2,-2,-3,-4,-16
117384178630,5,-7,0,-1,-2,-1,-2,0
117384178630,-5,-7,-2,-1,-1,-1,0,-1
117384194993,3,-2,0,-2,0,0,-3,-1
117384194993,-11,0,-1,-2,-3,-1,-1,0
117384196575,13,9,2,-1,-1,-2,-1,-1
117384196575,3,3,-1,0,-2,-2,-1,-1
117384209290,4,-4,-3,-2,-2,-2,-2,0
117384209290,-12,-22,-4,-2,-1,0,-1,4
117384216192,-11,3,0,1,1,-2,-1,-3
117384216192,-13,-12,-2,0,-2,-4,-1,0
117384231851,0,-1,-1,-1,0,-1,-1,0
117384231851,2,1,-3,-2,-2,-1,-1,8
117384238710,-12,-5,-4,0,-1,0,-2,-4
117384238710,-1,0,-1,-2,-1,-1,-2,-7
117384254994,-7,-10,-4,0,0,-1,1,0
117384254994,-18,-5,-2,-3,-2,-4,-3,-9
117384256599,10,-19,-3,-3,-1,-2,-1,-4
117384256599,-7,0,-2,-2,0,-2,-1,6
117384268622,0,-1,1,0,-1,-1,-1,-5
117384268622,4,-9,-3,-2,-2,-2,-4,3
117384277617,4,9,1,1,-1,0,-1,1
117384277617,-2,-2,0,-1,-1,0,-3,-2
117384291784,10,20,1,-2,-1,-2,0,0
117384291784,-11,-12,-4,-2,-1,0,-2,0
117384298639,3,3,-1,-1,0,1,-2,-4
117384298639,-1,-3,1,0,-2,-1,0,2
117384314947,-5,1,-2,-2,-2,-1,-1,-2
117384314947,-10,0,1,0,0,-1,0,-4
117384316567,-9,-4,-2,-1,-2,-3,-1,0
117384316567,12,4,-1,0,-1,-2,-1,8
117384329134,-4,5,3,2,0,0,1,-3
117384329134,10,-1,0,-1,0,0,-1,0
117384337531,-3,-6,-1,-2,-1,0,-1,-1
117384337531,-7,-9,-2,-1,0,-1,-2,-6
117384351803,-2,-7,-3,-3,-2,-2,-2,0
117384351803,8,12,0,-1,0,-1,2,1
117384358607,1,9,0,1,-1,0,0,-8
117384358607,-5,-5,-2,-3,-3,-3,-2,12
117384374976,1,-9,-2,-1,-2,1,-2,-1
117384374976,0,0,-1,2,0,-1,1,1
117384376613,-2,-2,-2,-2,-3,-2,-3,-11
117384376613,5,5,2,2,0,-1,2,-2
117384388618,-6,-9,-3,-3,-2,-1,-4,-1
117384388618,2,5,-1,1,-1,0,-1,2
117384397614,-7,-3,-2,-1,-2,-2,0,-1
117384397614,5,0,0,-2,-2,-1,0,-4
117384411806,0,0,1,-1,0,-1,-1,4
117384411806,0,1,-2,-2,-3,0,-1,-3
117384418584,1,0,0,-1,1,-1,-1,3
117384418584,-6,-4,-4,-3,-6,0,-1,-5
117384435000,-10,-15,-4,-1,-1,-3,-4,-2
117384435000,0,5,1,-1,0,-1,-1,-2
117384436563,8,7,0,-2,-3,-1,2,6
117384436563,-1,-5,0,2,1,0,-1,-4
117384448649,9,6,1,-2,-1,0,0,-2
117384448649,-7,0,-3,-2,-2,-3,-1,0
117384457575,-5,-1,0,1,0,0,0,2
117384457575,-9,31,-3,-5,-1,-1,-1,-3
117384471837,-20,-14,-2,-2,-3,-2,-3,-10
117384471837,5,7,-3,-2,-1,-1,-2,4
117384478650,-6,-25,0,0,0,1,-1,2
117384478650,-7,2,1,1,2,0,0,-3
117384494399,37,30,3,1,1,-1,-2,13
117384494399,3,2,-1,-1,-4,0,-2,-2
117384501467,-4,3,-2,-4,-3,0,-2,-2
117384501467,-18,-35,-4,0,-1,-3,-3,-2
117384508610,-7,-7,-1,0,-2,-2,-1,-4
117384508610,0,-3,1,-2,-1,-1,0,-2
117384517670,-1,0,-2,-2,0,-3,-1,1
117384517670,8,-5,-1,-1,-2,-2,-1,-2
117384531824,0,-1,-1,-1,-1,-1,0,0
117384531824,-1,-3,-1,0,-2,-2,1,1
117384538631,-13,-3,-1,-1,-1,-3,-2,0
117384538631,18,12,4,0,0,0,1,1
117384554296,-11,-9,-1,-1,1,-2,0,-3
117384554296,5,5,2,1,-1,1,-2,-1
117384561127,-1,2,-1,-1,-2,-1,0,4
117384561127,0,-23,-4,-1,-1,-1,-2,-1
117384568612,-3,-4,-2,-1,-1,0,-1,-2
117384568612,0,-5,-1,-1,0,-1,0,-1
117384577603,5,5,0,0,-1,-2,-2,-3
117384577603,-4,4,-2,-1,0,-1,-2,-3
117384591819,-2,-4,-1,1,-3,-2,-3,-10
117384591819,-14,1,-2,-5,-1,-2,-1,-12
117384598623,-7,2,-2,0,-1,0,-1,6
117384598623,0,6,0,-1,-2,-1,-1,-2
117384614305,-2,-4,-2,-1,-1,-1,-2,-1
117384614305,2,1,0,2,-2,-2,0,4
117384629324,3,-1,-1,-2,0,0,-1,-3
117384629324,0,10,-1,0,1,0,-3,-2
117384630131,7,6,-1,1,-2,-1,0,2
117384630131,-8,-6,-2,0,-1,0,-1,-9
117384637571,9,21,-1,-3,-4,-1,-1,0
117384637571,-2,-20,-2,-1,3,-1,-1,0
117384651777,-11,-6,-4,-1,-3,-2,0,-1
117384651777,11,6,-3,-8,-13,-2,-1,-3
117384658585,-3,1,2,1,-2,-1,0,-4
117384658585,1,6,-1,-2,-2,-1,-2,-2
117384674323,-4,-1,-3,0,0,-1,-1,-1
117384674323,-1,-14,-2,2,2,-2,-1,5
117384681182,-6,-20,-6,-3,-1,0,-1,-1
117384681182,-6,0,2,1,-5,-3,-3,-3
117384697505,5,3,1,-2,2,0,0,-1
117384697505,0,-1,-2,0,0,0,-3,0
117384699068,1,14,1,0,-1,0,-1,-5
117384699068,-6,-5,-2,1,1,2,-1,5
117384711851,4,3,0,-1,0,0,1,-11
117384711851,18,18,-2,0,1,-2,-1,7
117384718611,-21,-24,-3,-1,1,-1,-1,3
117384718611,9,18,1,-2,-2,-1,0,1
117384734317,-12,-3,-5,-4,-1,-3,-1,0
117384734317,-15,2,-2,-3,0,-2,-1,-2
117384741187,11,0,-3,1,-2,-2,-2,-2
117384741187,-6,1,-3,-3,-1,-1,-1,-2
117384757477,17,-17,0,0,-1,-1,2,4
117384757477,-3,-5,4,-1,-1,-1,-1,-7
117384759164,4,4,-3,-5,-2,-3,0,-1
117384759164,0,-2,-1,-1,-1,-1,2,-3
117384771817,-4,4,-1,-3,-3,-2,-1,1
117384771817,-2,-7,-7,-4,-1,1,-3,0
117384778568,3,-4,4,4,-2,1,-3,-5
117384778568,3,-6,-2,-2,-1,0,0,-2
117384794342,1,15,1,0,0,0,-2,1
117384794342,-21,-17,-2,-1,1,0,-1,1
117384801190,22,18,-1,-2,-2,-1,-1,-1
117384801190,-3,12,2,2,0,0,-2,-2
117384816785,3,-15,0,0,0,-1,1,2
117384816785,-9,-4,-1,0,0,-2,-2,-3
117384817548,1,-2,-1,-4,1,-1,-2,7
117384817548,-18,-6,-3,-1,-2,-2,2,-4
117384832632,11,8,2,0,-1,0,-1,0
117384832632,11,6,1,2,-2,-1,1,3
117384838641,0,-3,-2,-2,-2,-1,0,-11
117384838641,2,-5,-3,0,-2,-1,-1,5
117384855165,-12,1,0,-1,-2,-2,-2,0
117384855165,-6,-16,-4,1,1,-1,0,-5
117384861166,2,7,1,0,0,-2,-1,-4
117384861166,-1,-7,-3,-5,-1,-3,-3,-2
117384876747,-7,3,0,-1,-1,-1,-1,-3
117384876747,19,7,3,0,-2,-1,-1,1
117384877491,-18,-3,1,2,-1,2,0,-1
117384877491,1,-4,0,-4,-2,-2,-2,-3
117384892597,4,-2,1,-1,-1,1,1,3
117384892597,-5,-4,-3,-1,0,-1,0,-8
117384898617,-4,-7,-2,-2,0,-2,0,7
117384898617,2,1,0,1,0,0,-2,-2
117384915186,-6,-3,-4,-3,-1,1,-2,-2
117384915186,-3,1,1,1,1,-2,-2,-2
117384921198,-1,2,-2,-2,-3,0,0,-3
117384921198,1,1,-2,1,-2,-1,-1,-2
117384936819,-2,-2,-1,-2,-1,-1,-2,-1
117384936819,5,19,2,-2,-2,-1,-1,4
117384937601,6,-9,-3,-2,-1,0,-1,11
117384937601,-2,-9,-4,-1,-1,1,1,-2
117384952589,-5,-5,-2,1,-1,-1,-1,-2
117384952589,-4,4,-3,0,-1,-3,0,-1
117384958618,4,-12,-3,-1,0,-3,-1,-13
117384958618,-21,-2,-4,-1,-2,-1,-1,10
117384973653,-2,-6,0,-1,-2,-2,0,-2
117384973653,-2,-6,-4,-1,-2,-2,-3,-7
117384981197,-1,4,0,-2,-1,-1,-1,4
117384981197,11,-2,-2,0,1,1,-1,-2
117384996755,-5,-2,-2,-2,-2,-1,-2,-4
117384996755,-1,0,2,-1,1,1,-2,2
117384997541,-5,-3,-1,-1,-2,-1,-2,-5
117384997541,2,2,1,1,0,-2,-2,-3
117385012584,1,4,-1,0,-1,-1,-1,2
117385012584,-4,-8,-1,-2,0,0,0,-1
117385018638,3,2,0,0,0,-2,0,-2
117385018638,2,-1,0,1,0,0,0,0
117385043287,-1,-9,-3,-2,-3,-1,-3,-1
117385043287,-6,-3,0,1,-2,0,-2,1
117385044161,-9,-1,-1,-1,-2,-1,-2,-3
117385044161,22,27,3,-1,-3,0,0,6
117385056810,2,0,-2,0,0,-1,0,-2
117385056810,3,16,1,-1,0,1,2,1
117385057566,9,-5,-4,-1,-2,-2,0,-7
117385057566,-14,-2,-2,-1,-1,-3,-1,4
117385072632,-4,-3,-1,-2,-1,-1,-2,1
117385072632,-2,1,1,-2,-1,-2,0,1
117385078621,-8,5,0,-2,-2,-1,-2,-5
117385078621,5,-5,-3,-2,-2,-1,-3,-7
117385093630,-4,-2,-3,-1,-1,-2,-1,-3
117385093630,-4,-10,-2,0,-3,-2,-2,-3
117385101199,-3,-4,-3,-1,-1,-4,-1,1
117385101199,0,-7,0,-3,-2,-1,0,-5
117385116792,6,1,-2,1,1,0,-2,3
117385116792,-2,-2,-1,1,-2,-1,0,-2
117385117605,-1,-1,1,0,1,0,0,0
117385117605,15,14,1,-2,0,0,-2,-1
117385132668,0,-3,-1,0,-2,-2,-2,-1
117385132668,0,-3,-1,-1,0,-1,-1,0
117385138637,3,-5,-1,-2,-3,2,0,0
117385138637,-13,9,-1,0,-2,-1,-2,-5
117385153644,-3,-1,0,1,-1,0,-1,-4
117385153644,13,10,1,0,-3,0,-1,0
117385161195,-16,-6,-1,-1,0,0,-1,2
117385161195,-14,-10,-1,1,-2,-2,-4,-20
117385184330,0,0,-6,-4,-3,-2,0,-5
117385184330,-1,-3,-2,-1,0,-2,-1,-1
117385185059,3,8,0,1,1,0,0,0
117385185059,1,-9,-1,-2,-2,1,-1,2
117385192611,-4,-1,-3,-3,-1,-1,-2,1
117385192611,-5,-7,-1,0,0,-2,-2,-3
117385198641,-1,-1,0,-1,-2,-3,-3,-3
117385198641,-3,-6,0,-2,-1,-2,0,1
117385213670,-4,21,3,-2,-3,0,0,-2
117385213670,-3,-4,-4,-3,-3,-1,0,1
117385221198,2,1,-1,-1,-1,-1,-1,0
117385221198,1,-4,0,-1,0,-1,-1,1
117385244324,-3,2,-1,-2,-1,-1,-1,-5
117385244324,-18,-9,-5,-2,0,0,-2,5
117385245193,1,-8,-2,-1,-3,-2,-4,-2
117385245193,20,26,2,-1,-1,-1,0,-1
117385252601,-5,-32,0,-1,2,1,2,3
117385252601,-6,-7,-1,0,-2,-1,-2,-5
117385258591,17,1,0,-1,-1,0,-2,0
117385258591,-2,-2,-3,-2,-2,-1,-1,4
117385273629,2,1,-2,1,-1,-1,-1,-2
117385273629,1,5,-1,-1,-1,-1,0,17
117385281096,1,-13,-3,-1,0,1,3,-5
117385281096,-2,-9,-3,-1,-3,-1,-2,-2
117385296747,1,3,0,-2,-2,0,-2,1
117385296747,-3,-4,-3,-2,-4,-1,-3,-6
117385297599,-8,5,-1,-1,0,-1,-1,-1
117385297599,-6,-9,-1,-1,0,-3,-1,1
117385312651,-1,-6,-3,-2,0,-2,-1,1
117385312651,4,2,-3,-4,-2,-1,-1,-1
117385318629,-5,0,-1,0,-1,-2,-2,-1
117385318629,-1,-6,1,0,-2,-1,0,-4
117385333629,-1,5,-3,-1,-1,-3,-2,-1
117385333629,4,-2,0,2,1,-2,0,-4
117385341207,-7,0,-1,-1,-1,-1,-2,-3
117385341207,-2,-5,-1,-1,-1,0,0,2
117385356822,-4,1,0,-2,-2,-2,-1,0
117385356822,4,10,1,-2,-2,-1,0,-6
117385357581,0,-5,-2,-1,-1,0,0,0
117385357581,-6,-5,-4,-1,-1,-1,-1,2
117385372619,10,-3,0,0,0,0,0,-3
117385372619,12,-3,2,-1,-2,-2,-2,8
117385378620,-2,14,-5,-1,-2,0,2,1
117385378620,-3,-7,-3,-1,-2,-1,-2,-4
