timestamp,emg1,emg2,emg3,emg4,emg5,emg6,emg7,emg8
89259963953,61,5,-4,1,2,0,-3,-2
89259963953,0,-3,0,0,-2,-1,-5,2
89259964705,-13,-2,1,-3,-1,2,4,-10
89259964705,4,0,-3,-1,0,-1,-1,-2
89259965506,-15,0,-1,-1,-1,-2,-5,-14
89259965506,1,-1,-2,-3,-2,2,8,-6
89259968367,-6,-3,-4,0,-1,-1,-5,7
89259968367,9,1,-4,-1,2,0,-2,-9
89259976977,-6,0,4,0,-3,0,-11,-3
89259976977,-22,-6,-4,-2,-1,10,31,30
89259984129,35,14,9,4,0,-10,-32,-9
89259984129,-29,-8,-2,-2,-3,1,20,11
89259991898,-6,-4,-1,0,-3,-8,-15,15
89259991898,-43,-3,-2,-3,-1,0,8,-10
89260005472,18,-2,-7,-2,1,2,-10,41
89260005472,-19,3,6,-2,-2,2,13,-35
89260016937,3,-2,-2,-2,0,-4,8,6
89260016937,4,3,1,1,-1,-7,-17,0
89260029047,0,-3,-2,-1,-2,6,15,-1
89260029047,18,1,-1,0,-1,-4,-10,15
89260037053,-23,-1,-4,-2,-1,2,9,-4
89260037053,34,4,2,1,1,-5,-9,-5
89260050320,2,-3,0,0,0,0,3,13
89260050320,-3,0,0,1,-1,-1,-2,-2
89260092099,9,-2,-3,-3,-1,2,1,4
89260092099,3,0,-4,-2,-1,-4,-5,-3
89260092904,-2,-1,-1,-2,-2,-2,-2,-2
89260092904,3,-4,2,2,-1,3,-18,5
89260096625,-20,0,-1,0,2,-2,14,-1
89260096625,2,9,4,-1,-1,0,9,-5
89260097414,17,0,-4,-1,-1,0,-4,1
89260097414,3,-1,-1,-1,-2,0,0,6
89260102748,-3,0,-1,0,-1,-2,-10,-6
89260102748,-9,-4,0,-1,-2,0,-3,-1
89260110957,-8,-3,-2,0,-1,-1,1,1
89260110957,-6,2,-1,-1,-2,-3,3,-3
89260117768,-2,-1,0,-1,-3,-2,0,1
89260117768,5,1,2,0,-1,0,4,4
89260133434,1,1,0,-2,-2,-2,1,-7
89260133434,-6,-4,-4,-2,-1,-2,3,-5
89260140289,13,-1,1,-1,-2,-2,-2,12
89260140289,4,-2,-2,-2,0,3,-6,19
89260164099,-4,1,-1,0,-1,-5,-2,-3
89260164099,-8,0,1,0,-1,-5,-5,-9
89260165693,2,-4,-2,-1,0,-2,-1,-5
89260165693,-16,-6,-5,-3,-1,-1,-12,-8
89260177820,-13,0,1,-1,0,1,19,1
89260177820,1,0,-3,-4,-1,0,2,-5
89260186807,2,1,12,3,-2,-1,-6,9
89260186807,-5,-6,-21,-11,-2,0,3,-4
89260201779,7,-4,5,-9,-2,-4,-11,-12
89260201779,1,-3,-5,-2,-3,-2,2,5
89260203343,-4,-2,0,-3,0,0,3,-8
89260203343,0,1,6,3,-3,0,-1,-1
89260224343,8,0,-1,3,0,1,-2,5
89260224343,-11,-2,-2,-2,-2,0,-1,-4
89260225771,12,1,-1,0,-2,-2,-7,-5
89260225771,-5,-4,0,0,-2,-2,6,3
89260238005,11,4,-5,2,1,-1,-13,-18
89260238005,-4,-2,1,-1,-1,-2,8,1
89260246881,-12,-3,-3,-1,1,2,1,1
89260246881,3,1,4,-1,0,-3,2,-10
89260261769,7,-1,0,-3,-1,-2,-2,12
89260261769,-27,-1,2,0,0,2,-2,-3
89260263240,-10,-2,-12,-4,-3,-3,-3,1
89260263240,9,-2,2,1,-2,-3,-2,-1
89260284313,-2,-2,1,1,0,1,1,-1
89260284313,15,1,-3,-3,-2,-2,-3,4
89260285779,14,1,-4,-1,1,0,-1,2
89260285779,3,-2,-2,0,0,-1,-5,-3
89260306090,-18,-5,-2,-1,-1,1,3,6
89260306090,21,1,-1,1,2,1,4,20
89260306803,-12,1,3,-3,-2,1,-8,-23
89260306803,3,-1,-7,-5,0,-1,-3,8
89260321254,-10,-7,-3,-7,-6,-3,2,0
89260321254,5,-2,-13,-15,-5,-4,-10,-4
89260321724,-10,-1,2,2,1,-4,4,-4
89260321724,34,4,6,7,1,0,-6,4
89260343473,-57,-5,2,1,-1,3,7,-6
89260343473,7,0,5,6,0,-3,-3,-3
89260344261,14,2,3,-1,-3,-1,-8,-8
89260344261,-7,-4,-11,-7,-1,-2,-4,-9
89260357861,19,-1,4,10,-1,-1,-5,1
89260357861,2,1,5,3,-1,0,2,-3
89260365554,-6,-1,0,-1,0,0,3,8
89260365554,-14,-4,0,-1,-2,-2,2,-13
89260381029,3,1,-6,-6,0,-1,-4,1
89260381029,-4,-1,-2,0,-2,0,-1,-9
89260381952,8,-2,2,0,-1,-1,-1,13
89260381952,-11,2,3,2,1,-1,-1,-4
89260403420,20,-2,-6,-5,0,-1,0,4
89260403420,0,-1,2,1,0,-1,-5,-15
89260404172,-12,0,-7,-4,-3,-1,6,0
89260404172,-5,-2,8,6,-3,-2,-4,-4
89260418007,-9,2,13,10,2,-1,-4,4
89260418007,-5,-4,-21,-13,-1,0,2,0
89260425589,22,-7,-12,-9,-5,-4,-4,3
89260425589,-15,-2,-2,-3,-1,-1,2,3
89260441216,-2,0,1,-5,-1,-2,-5,-8
89260441216,-6,-1,5,6,0,0,0,10
89260441802,-13,5,1,3,1,0,-9,-7
89260441802,-11,-3,-4,-5,-1,-2,12,-3
89260463564,42,6,1,3,0,-2,-1,9
89260463564,-9,-1,-1,-2,0,-1,2,-3
89260464472,-8,0,-1,0,-2,-2,2,-1
89260464472,2,1,5,1,0,2,-3,7
89260477799,-15,-3,-4,-4,-2,-1,-1,-6
89260477799,-1,0,2,0,-1,-1,2,-6
89260485400,33,-3,-1,-1,-1,-4,-2,7
89260485400,-7,-2,-3,0,0,0,-2,0
89260501065,19,-1,-6,-4,-3,-3,-2,20
89260501065,-4,-1,0,-2,-3,-2,-6,-12
89260501723,-7,-1,5,3,1,1,-2,-7
89260501723,1,-5,-5,-3,-2,-2,0,7
89260523632,2,-4,-11,-6,-4,0,-3,4
89260523632,-10,-4,4,2,-2,-1,-4,-12
89260524433,-3,0,0,-1,-1,0,3,2
89260524433,-18,-5,-3,-3,-3,0,3,-8
89260537815,-8,1,1,-1,0,-1,1,4
89260537815,5,1,3,3,1,-1,-8,7
89260545195,-16,-2,0,1,-4,-1,-2,-13
89260545195,8,3,-3,-4,-1,-1,-4,-7
89260561007,-11,-4,-1,-2,-1,-1,0,-13
89260561007,12,0,-2,-1,-1,-1,4,-4
89260561714,11,-3,-4,-2,-2,-4,-3,-7
89260561714,11,2,4,3,1,1,-4,2
89260583479,-20,-2,2,0,-1,-1,4,-4
89260583479,20,1,-6,2,-1,-6,-4,-4
89260584335,-15,-3,1,-3,-2,1,0,3
89260584335,8,-2,-1,-2,-2,-1,1,6
89260597880,-10,0,-2,-1,-1,0,-7,-38
89260597880,-12,-3,1,-2,-2,1,-2,12
89260605347,-7,-1,-1,-1,-2,-2,3,1
89260605347,-9,0,-1,-2,-2,-2,-8,-7
89260621190,14,-2,-7,0,-1,-1,-8,4
89260621190,-2,-2,1,-1,-1,2,12,13
89260621762,-6,-4,-2,-2,0,-4,-4,0
89260621762,5,-2,4,-3,0,-3,-3,-14
89260643518,-22,-3,-2,2,0,1,-1,8
89260643518,18,-1,-7,-11,-3,-4,-6,-10
89260644276,14,0,0,-1,0,4,2,3
89260644276,-23,-2,-3,0,-2,-2,2,3
89260657862,7,1,3,4,-2,0,-2,5
89260657862,-7,2,-2,-4,-1,-1,0,-10
89260665554,-14,1,0,0,1,-1,6,-5
89260665554,21,0,-1,0,-1,1,-2,14
89260680917,-3,2,-1,-4,0,0,1,-9
89260680917,-11,-1,1,0,-1,2,1,3
89260681706,6,-5,-4,-1,-1,-4,-6,5
89260681706,-4,0,3,4,0,0,3,12
89260703686,-5,-3,-10,-3,0,0,3,-9
89260703686,3,1,1,1,-2,-2,-4,5
89260704222,-8,-1,-3,0,-2,1,-4,-6
89260704222,-1,-1,0,2,-2,-3,-3,-10
89260718035,17,0,1,-1,-1,-1,1,6
89260718035,-6,-3,1,0,0,-2,1,0
89260725385,7,1,-2,-1,-3,-2,-5,-1
89260725385,-2,-2,-2,-2,-2,-1,-3,2
89260741118,18,1,0,-2,0,-2,1,9
89260741118,-4,-1,-1,3,1,2,-1,0
89260741830,0,1,1,0,-1,0,-2,1
89260741830,5,0,-5,-8,-2,-1,-1,-6
89260763696,3,1,0,-3,-1,-2,-5,1
89260763696,-11,-1,0,1,-2,-1,0,-1
89260764423,6,-1,-2,-1,-2,-2,-3,-13
89260764423,-9,-2,-4,0,-2,-2,1,-11
89260777896,-8,-2,2,-1,0,1,2,7
89260777896,6,-2,-2,-1,-2,-3,-1,-4
89260785550,-11,-1,1,1,1,-2,-4,-4
89260785550,-9,0,-1,2,-1,-1,5,-3
89260801168,22,1,-1,-2,-1,-2,-2,-4
89260801168,0,1,-1,1,0,2,3,15
89260801728,-20,-8,-5,-6,0,-3,-2,3
89260801728,38,3,0,-4,-1,0,6,14
89260823514,-13,-1,4,2,-1,0,-7,0
89260823514,-3,-3,-1,1,-1,-3,-3,6
89260824302,-6,-2,-2,-1,-1,-1,0,-2
89260824302,3,1,-1,1,1,-2,-2,-4
89260845974,-11,-3,-3,-1,-3,-3,-1,0
89260845974,-1,0,0,0,-1,1,-2,-10
89260846714,2,3,1,0,2,0,6,5
89260846714,1,-1,-1,0,-2,-2,-5,-2
89260860899,-4,-2,-1,-1,-2,0,1,1
89260860899,-9,-1,-1,-2,-3,-2,-1,-7
89260861679,-9,-3,-2,-2,-2,-4,-9,-7
89260861679,-3,1,-1,-1,0,0,1,-6
89260883677,-16,-4,-2,-4,-1,-2,0,-18
89260883677,4,0,1,-1,-2,-3,0,3
89260884398,1,-1,-4,-2,-1,-1,-3,-15
89260884398,-9,-1,0,0,0,0,-4,-3
89260906227,-3,-1,-1,-1,-2,-1,-3,4
89260906227,0,-2,-1,-2,-2,-1,0,-3
89260906796,24,3,2,0,-1,0,2,14
89260906796,-61,-9,-3,-2,-4,-2,-4,-32
89260921168,39,2,-1,0,0,-3,2,-6
89260921168,-6,-2,0,0,2,-2,-6,0
89260921788,8,1,0,4,-2,-1,3,6
89260921788,11,-1,-4,-6,-3,-3,-2,12
89260943397,-2,-1,-3,-3,-1,2,-1,-16
89260943397,-17,1,2,1,0,0,-3,-5
89260944313,0,-2,1,-1,1,-1,1,-2
89260944313,12,1,1,1,0,0,3,1
89260965921,-4,1,-1,-1,0,-1,-2,0
89260965921,6,-3,-3,-3,-2,-1,-2,4
89260966828,-7,-2,0,-1,0,0,2,1
89260966828,14,7,2,2,2,2,-6,2
89260981200,-13,-3,-1,0,-2,0,7,8
89260981200,6,-1,-2,-1,-2,0,3,0
89260981730,-12,-3,-2,-4,-2,-1,-11,-2
89260981730,2,-3,-3,-1,-2,-2,11,1
89261003410,3,0,0,0,-1,0,-8,1
89261003410,-19,-4,-5,-5,-4,-4,-6,-26
89261004177,-16,0,2,0,0,2,9,-11
89261004177,57,7,0,1,1,0,-11,9
89261025999,-31,-4,0,-1,-2,0,10,4
89261025999,18,-2,0,0,-1,-1,-2,4
89261026938,0,0,-1,-2,-1,1,6,2
89261026938,-9,-6,-2,0,-1,-3,-6,-3
89261040962,-6,-3,-1,0,-2,-1,-7,2
89261040962,-4,-3,-3,-6,-1,0,3,5
89261041706,19,1,-4,-1,-4,-4,-6,-10
89261041706,-13,-2,2,-1,-1,-2,-4,1
89261071652,5,-2,-1,-1,0,-1,1,0
89261071652,-4,-1,-1,1,0,0,-2,6
89261072405,-4,-2,-1,-1,-1,-2,-3,5
89261072405,3,-4,-1,-4,-4,-2,-3,-2
89261086013,-1,-1,0,2,0,1,2,-2
89261086013,18,2,1,2,-1,-3,-7,-1
89261086727,-12,0,-3,-2,0,-1,9,17
89261086727,-18,-1,1,1,0,1,-2,-11
89261108497,3,1,-3,-2,-1,-3,1,0
89261108497,-25,-3,0,-1,-1,0,-8,6
89261109285,-1,-3,-2,-3,-1,0,-1,3
89261109285,-1,-2,-1,-2,-1,-1,-4,-2
89261122765,-8,-1,-2,-3,-1,-2,2,-4
89261122765,6,0,-2,0,1,1,3,0
89261130954,6,3,0,1,1,1,-4,2
89261130954,-18,-2,-1,-1,-2,0,2,-2
89261145916,4,0,-7,-3,-2,-1,-4,1
89261145916,-2,-1,0,-2,-3,-2,1,0
89261146750,-5,-1,-7,-3,-4,-3,-3,-2
89261146750,6,-2,-2,2,1,-2,1,3
89261168454,-2,-1,-1,-1,0,-2,-5,1
89261168454,-5,-3,-1,-2,-3,-1,2,-3
89261169297,7,2,5,2,1,1,0,-4
89261169297,-1,0,-2,1,-1,2,-2,2
89261191615,2,-3,1,-1,0,-1,-3,0
89261191615,-5,0,0,-1,-1,-2,6,-7
89261192474,-23,-4,-1,-2,-3,-4,-5,-19
89261192474,23,3,-1,-3,0,-2,-2,7
89261205909,-5,-1,1,1,1,-1,-1,0
89261205909,5,0,-3,0,1,1,-2,0
89261206690,-1,-4,-1,0,0,-2,-1,-1
89261206690,-31,-7,-2,-2,-2,-4,0,-23
89261228474,3,-1,-3,-2,-2,-1,-1,1
89261228474,13,1,0,-1,1,0,-2,3
89261229318,-3,0,-1,0,-2,0,0,-2
89261229318,-2,-3,-2,-2,0,-1,-1,5
89261242790,3,1,1,-1,-1,-1,1,1
89261242790,-5,-2,1,1,-2,-1,-2,-4
89261251209,8,-1,-2,-2,-2,0,1,9
89261251209,-2,-3,3,-5,-8,-5,-3,1
89261266048,-5,0,-1,-7,-16,-33,-13,-6
89261266048,4,1,0,0,-15,-11,-1,2
89261266847,9,1,5,10,33,56,16,4
89261266847,2,0,-4,7,39,23,7,4
89261288384,-9,-2,2,-4,-19,-13,-5,-6
89261288384,-3,-4,-7,-16,-24,-25,-7,-5
89261289142,4,1,2,11,-10,-11,-7,-1
89261289142,-7,-3,-6,-4,-5,-14,-5,-2
89261302709,2,0,0,-25,-15,-34,6,5
89261302709,-2,0,-3,1,-14,58,7,0
89261311036,-3,-2,0,-4,68,38,5,-1
89261311036,0,2,4,17,2,12,2,4
89261326032,3,4,4,17,13,-3,4,3
89261326032,3,0,3,-2,-16,-40,-5,0
89261326763,-4,-5,-6,-11,-48,-37,-9,-5
89261326763,1,1,-6,-24,-47,-53,-16,-2
89261348744,-6,-6,-8,-16,-15,3,-10,-12
89261348744,1,1,-7,12,51,49,9,1
89261349360,-1,-2,0,0,-14,-9,-1,1
89261349360,-1,-1,-2,-2,-13,-44,-4,-2
89261371843,-2,-1,-3,9,-14,48,0,-3
89261371843,7,7,3,-9,77,19,0,3
89261372409,-2,-3,4,2,-22,-22,4,-3
89261372409,-4,0,9,11,45,106,24,-1
89261386163,5,5,6,2,40,7,-9,4
89261386163,-5,-9,-7,30,-66,-69,-10,1
89261386735,1,-2,-15,-19,-67,-39,-14,-6
89261386735,-5,-2,4,8,76,45,14,3
89261408504,0,-3,-3,12,38,16,0,1
89261408504,-2,-2,-3,-7,-33,-24,-1,-4
89261409244,-4,-3,-4,-28,-91,-73,-20,-7
89261409244,0,-2,-4,-16,-82,-48,-16,-5
89261431839,-2,-1,-3,-7,7,24,-3,-5
89261431839,-4,-2,0,-7,20,6,-1,1
89261432447,-1,-1,-1,1,27,0,7,-4
89261432447,6,4,-3,-7,1,19,3,2
89261445978,2,0,4,13,48,44,16,6
89261445978,0,0,4,0,-1,11,5,2
89261446787,9,4,8,19,10,25,12,1
89261446787,22,-5,-8,9,34,-16,-18,-1
89261469035,-13,-1,1,-1,-48,0,5,5
89261469035,1,3,14,27,54,35,5,8
89261469754,2,-3,-13,-12,19,15,0,-2
89261469754,-4,-4,-8,9,-47,-61,-12,-7
89261491867,-5,-4,-4,-20,-55,-54,-12,0
89261491867,-2,-2,2,-16,-9,6,-8,-15
89261492492,-1,7,29,20,55,21,1,1
89261492492,5,5,11,-3,-9,20,11,13
89261506125,-11,-4,3,20,-5,-1,-1,-30
89261506125,-26,-8,-7,-20,-1,-11,-7,-6
89261506746,12,-2,-28,0,8,-3,-12,-2
89261506746,4,-2,6,-5,-11,8,26,17
89261528610,5,10,26,20,20,2,-11,9
89261528610,2,3,-2,-11,-19,-19,-10,-18
89261529399,0,-9,-43,-6,-9,-1,-7,6
89261529399,-3,-3,-38,-6,13,15,23,20
89261551863,0,-4,2,-10,1,-8,-7,12
89261551863,-14,1,9,1,-15,-11,29,-5
89261552486,4,-1,6,-8,8,9,-29,-25
89261552486,-21,-5,6,-3,-1,-12,-41,-16
89261566137,11,-5,-29,-7,-9,-9,12,15
89261566137,0,3,-14,-12,-3,5,-6,-25
89261566763,9,0,17,14,9,9,12,-3
89261566763,-5,1,30,3,0,-9,19,38
89261588423,33,2,-53,34,-6,-2,-16,-23
89261588423,6,1,28,41,8,6,-7,8
89261589201,-3,-7,-47,-75,-9,-5,16,4
89261589201,-13,-8,25,-45,-12,-13,-34,-26
89261611595,-5,-10,-26,10,3,5,33,7
89261611595,-8,0,7,1,2,-5,-18,25
89261612537,-6,4,-1,26,5,3,-5,21
89261612537,14,7,25,32,3,5,15,5
89261625953,-12,-1,14,-48,3,-1,-4,-27
89261625953,0,-9,-55,-37,-11,-5,-6,-9
89261626745,-20,-1,33,15,-1,1,0,-3
89261626745,-8,-4,-12,-3,-3,-2,-11,-18
89261648456,7,8,14,-9,0,-7,5,5
89261648456,7,-8,-6,2,-2,-4,-6,-3
89261649230,4,3,-38,18,3,0,-3,3
89261649230,-1,-2,-28,-4,-5,1,3,-12
89261671645,-5,-9,35,-4,-3,-3,-7,1
89261671645,4,3,3,2,0,3,7,17
89261672416,-2,2,17,-1,2,3,9,8
89261672416,-10,3,28,-8,2,0,-1,-12
89261685905,-15,-2,-6,26,3,-3,-2,0
89261685905,8,-5,0,-13,-15,-3,-3,7
89261686686,-5,-8,-28,-3,0,-1,-1,-8
89261686686,-11,0,1,4,2,0,11,3
89261708411,12,12,30,-7,5,2,-6,7
89261708411,2,-1,37,38,7,5,7,-1
89261709163,-3,-3,-7,-3,-14,-9,-9,-7
89261709163,-2,-1,-14,29,0,1,-2,-8
89261731589,25,-2,-15,-25,-5,-2,5,5
89261731589,-9,-1,-4,-21,-3,-1,-9,-2
89261732380,1,6,20,11,5,4,11,0
89261732380,5,8,47,-1,2,2,-2,1
89261745908,-10,-24,-62,-7,-8,-5,-2,-4
89261745908,8,3,38,18,3,0,-1,-2
89261746691,-8,-3,-25,-21,-2,-3,-4,-3
89261746691,5,0,-8,6,-3,-3,1,7
89261768433,-7,5,18,-2,2,1,-3,0
89261768433,11,6,11,1,5,2,5,0
89261769227,-6,-6,13,16,-6,0,-2,3
89261769227,-5,-7,-22,-19,-16,-8,-4,-9
89261791650,14,2,-3,-4,-1,0,-1,11
89261791650,-32,-3,-18,-12,1,-1,7,-27
89261792418,23,3,36,6,10,2,4,4
89261792418,4,-3,-22,5,12,4,-5,-3
89261805913,-7,-2,12,1,-3,-4,-6,1
89261805913,25,-2,-19,-18,-17,-7,-3,4
89261806699,-27,0,10,5,-7,-1,5,8
89261806699,-6,-7,-2,-3,6,0,-19,-1
89261828396,0,4,4,1,5,2,23,-21
89261828396,10,1,-20,-12,-1,-1,-11,3
89261829171,-5,2,73,-7,-10,-10,-4,-10
89261829171,7,-13,-76,4,12,16,10,9
89261851599,-26,3,53,11,18,8,-11,-31
89261851599,-11,1,0,-15,-2,2,9,25
89261852391,28,4,28,91,6,-13,-20,-22
89261852391,-12,-3,-22,-23,-28,-17,-3,-11
89261865988,-5,-7,-7,0,-26,-24,-11,4
89261865988,-3,-2,-2,-21,-12,4,-1,-15
89261866728,-40,1,-8,-6,11,46,23,13
89261866728,7,0,9,12,32,29,7,-22
89261888433,0,9,42,73,26,-5,-9,1
89261888433,-3,-7,-41,-80,-42,-36,-14,3
89261889243,3,-8,-53,-34,-22,-27,-12,-2
89261889243,7,-1,-14,1,-14,-15,13,-25
89261911578,7,6,11,-21,7,14,50,54
89261911578,-9,2,23,49,30,9,-66,-35
89261912444,11,3,-9,1,8,8,12,20
89261912444,-12,-4,-4,-20,-13,-6,-2,-9
89261925930,6,-1,-19,-12,-13,-10,-16,2
89261925930,-8,-2,0,27,10,5,32,21
89261926688,49,3,-4,-30,-3,-10,-1,-26
89261926688,-11,9,23,1,5,-1,-12,36
89261948530,-11,-6,-6,15,-2,15,-5,-29
89261948530,-5,-14,-39,-3,-5,2,4,-2
89261949260,-7,2,16,1,10,-1,-4,2
89261949260,6,-1,17,4,-8,-14,0,2
89261971610,-1,-1,-5,-15,-1,1,-5,6
89261971610,-9,-2,10,15,-7,-8,-7,-19
89261972395,-12,-18,-38,-14,-5,-7,-5,-4
89261972395,3,0,-4,18,-5,-4,-4,15
89261985309,-11,1,9,-11,-1,6,0,-3
89261985309,12,9,52,12,10,4,-11,9
89261993469,-18,-12,-49,-17,-6,-4,14,0
89261993469,-6,2,53,18,-2,-3,-11,-25
89262008382,0,-7,-33,-25,-7,-6,-5,8
89262008382,8,-2,11,0,1,0,13,3
89262009155,14,5,0,9,1,0,-5,-3
89262009155,-37,0,36,-10,0,3,-2,-1
89262031530,4,5,49,12,-2,0,9,-2
89262031530,13,1,-76,-2,-4,-3,-4,18
89262032318,-6,-1,31,-5,2,13,-8,-7
89262032318,7,0,-16,-4,0,-15,28,12
89262045330,-7,0,3,-8,-7,-9,-3,13
89262045330,1,-1,2,11,6,4,5,3
89262053489,-2,7,15,-5,0,-1,3,7
89262053489,3,-10,-1,3,-1,5,-20,-17
89262068425,-7,-1,-24,2,-1,2,-1,-1
89262068425,-2,-3,7,-4,2,3,-4,-11
89262069251,10,-3,-14,-3,-1,-4,13,29
89262069251,5,5,-3,5,1,0,-2,20
89262099319,2,-7,-25,-10,-4,-6,-14,-17
89262099319,-9,3,14,-10,1,0,-6,-16
89262099910,-5,-6,17,-1,0,-3,-5,0
89262099910,8,2,-19,-2,-4,3,31,41
89262105387,33,4,0,-1,0,-3,-28,4
89262105387,5,8,36,33,12,3,23,2
89262113596,-12,-1,-17,-25,-3,-4,-9,2
89262113596,1,-2,2,-12,-13,-5,-1,-14
89262128409,-15,-8,-64,-65,-5,1,-7,-12
89262128409,0,3,34,4,-5,3,17,11
89262129181,-10,2,14,6,5,-1,10,-2
89262129181,1,5,-7,10,4,1,-25,-13
89262151619,2,3,63,21,0,1,5,-2
89262151619,-12,-26,-98,-38,-9,-10,-11,-4
89262152337,-7,-4,10,6,-1,0,-5,1
89262152337,30,-1,-12,-16,-2,1,-6,-7
89262165340,-38,-2,24,17,4,3,20,12
89262165340,15,9,35,31,5,3,-1,16
89262173478,-13,-6,-19,-25,6,-8,-19,-28
89262173478,8,-3,-21,7,-6,2,5,9
89262188390,-1,-5,7,15,-15,-5,-2,-2
89262188390,-1,0,-23,2,15,1,-1,-8
89262189162,-7,9,26,4,-17,0,-8,-10
89262189162,-7,-2,-10,-30,0,0,0,4
89262211609,4,2,-21,62,30,5,2,-9
89262211609,-7,-2,-29,38,-33,-1,-1,0
89262212379,4,-6,-25,-30,-9,-11,-12,-6
89262212379,-6,0,5,31,12,8,5,-4
89262225243,7,7,-8,-10,8,7,4,4
89262225243,2,-3,-1,1,4,-8,6,10
89262233405,-9,-10,-17,13,-1,-1,-4,0
89262233405,-6,-5,-60,-17,1,-11,-4,-2
89262248504,-9,-1,32,1,-13,0,-7,2
89262248504,-9,3,19,-37,15,6,-2,-8
89262249270,46,9,37,22,2,1,-2,20
89262249270,0,1,-15,-30,4,6,-4,-2
89262271685,-3,-15,-18,16,-18,-12,-15,-11
89262271685,-5,-5,40,-4,-4,-2,3,-2
89262272406,-11,7,35,4,2,-2,6,5
89262272406,4,-5,-27,18,9,0,-10,-10
89262301678,13,7,-1,-35,-12,-13,-33,-17
89262301678,-18,-9,-8,-2,-8,11,91,69
89262302406,20,-1,1,-4,19,-9,-88,-25
89262302406,-10,1,57,7,-10,-3,-11,-23
89262308458,-8,-10,-60,-14,-3,-3,1,-1
89262308458,-10,1,-6,-10,-6,-6,-18,-62
89262309218,9,1,-5,10,-4,6,23,11
89262309218,2,-2,0,6,-3,-1,9,10
89262331670,4,2,-2,-11,-1,-3,-6,-9
89262331670,4,2,4,3,10,-1,-22,-6
89262332424,-9,2,-7,-1,-13,-1,19,4
89262332424,-3,-3,12,-2,-2,-3,-15,-12
89262354800,-4,1,3,1,9,6,23,12
89262354800,13,3,6,0,0,-5,-16,0
89262355581,-13,-6,-6,16,-2,0,9,5
89262355581,-5,0,5,-10,-7,-4,5,5
89262368484,1,0,-6,-6,1,0,1,4
89262368484,7,-3,2,3,-2,-2,-8,12
89262369273,-6,0,-19,-6,-1,1,2,-24
89262369273,1,3,9,5,1,-1,-1,1
89262391629,0,-4,-2,-1,-1,0,5,4
89262391629,0,-2,1,-4,0,-1,-18,-5
89262392419,-2,0,1,7,-1,4,26,7
89262392419,12,1,6,3,0,0,-6,16
89262414167,-3,-2,1,-4,-2,-3,-1,-6
89262414167,-1,0,-4,0,-2,-2,-5,-4
89262415025,-14,-7,-5,2,0,0,3,1
89262415025,-4,1,-2,-2,-4,-2,-3,-3
89262428537,1,-3,-9,-4,-4,-4,-6,-5
89262428537,1,6,15,3,1,-3,-11,-6
89262429429,-2,5,-14,-3,2,0,-1,-6
89262429429,0,-3,1,-24,-10,-3,-1,-3
89262451856,-11,-5,7,10,3,4,2,0
89262451856,-1,-3,-9,-4,-3,-2,-4,-6
89262453381,6,-43,-24,-7,-4,-6,-5,0
89262453381,-1,87,54,22,9,11,8,6
89262474137,-6,9,2,-1,4,3,3,1
89262474137,0,3,-2,-1,-3,-2,-2,-2
89262475754,-1,2,4,1,-3,-3,-2,2
89262475754,3,-30,-22,-5,-6,-6,-6,-3
89262488035,13,19,7,-1,-3,0,7,13
89262488035,-10,11,-4,2,6,8,9,-11
89262496767,1,3,6,4,2,2,7,8
89262496767,-36,-13,-3,3,1,-7,-18,-8
89262511823,5,4,0,-6,-3,-4,-6,-1
89262511823,1,-19,-14,-5,-6,0,10,-4
89262513253,-6,8,4,2,2,-1,-7,3
89262513253,5,-13,-5,2,1,1,10,-1
89262534087,-3,-8,2,3,0,-3,-4,-4
89262534087,0,1,0,3,4,-3,-26,-5
89262535693,1,18,25,6,1,0,3,1
89262535693,-3,-6,-15,-6,-4,-1,3,-4
89262547788,1,-13,-7,-7,-2,-2,-3,1
89262547788,4,5,-1,-4,-1,-1,2,-2
89262556788,-5,6,5,5,4,0,4,2
89262556788,1,-19,-13,-4,-5,-2,2,-3
89262570672,-8,-4,1,-1,-1,0,-15,-4
89262570672,6,0,1,-3,-4,-7,6,10
89262579306,-1,1,-1,-5,-8,-4,6,5
89262579306,3,4,14,8,6,1,-19,-5
89262601662,-2,-13,-12,-1,-2,-4,-2,-9
89262601662,1,2,1,1,1,4,-1,5
89262603368,-13,2,-2,-5,1,1,4,-1
89262603368,12,-4,0,-1,-1,2,8,3
89262607760,3,6,0,2,0,0,0,-1
89262607760,-5,-3,-2,-6,-4,-4,-6,-4
89262616830,-8,-6,-8,-2,-2,0,-3,-9
89262616830,1,-4,-5,1,-1,-1,1,-3
89262631789,-7,-8,0,-2,-1,-4,5,-3
89262631789,-2,1,7,8,1,1,-2,-1
89262633321,0,-4,-13,4,-3,1,-4,-6
89262633321,-2,0,-10,-34,-11,-9,-2,1
89262654124,3,6,2,0,-2,4,2,5
89262654124,-3,-7,-16,-6,3,-4,-3,-2
89262655771,3,6,13,21,14,9,0,1
89262655771,0,-4,9,5,-1,2,0,0
89262667846,-2,-3,-5,-7,-11,-8,4,-2
89262667846,3,1,1,1,-5,-3,-2,-2
89262676802,1,2,-3,-7,2,0,-2,-3
89262676802,-1,-4,-3,5,0,3,-10,0
89262691687,-4,3,4,1,4,3,16,-3
89262691687,0,-2,0,-5,-5,-11,-3,7
89262693344,-3,-7,-6,-10,-7,-4,-6,-5
89262693344,-5,-5,-1,3,0,1,1,-8
89262714356,-2,0,-3,2,0,-2,-2,0
89262714356,-5,-3,-2,-4,-4,-3,-9,-4
89262715748,-18,-4,-4,-9,-4,-4,0,-1
89262715748,-4,-4,-2,3,1,0,3,-2
89262728051,1,-4,0,0,2,2,-2,3
89262728051,-13,-5,-2,-3,0,2,4,-3
89262736817,19,4,2,2,-1,-1,-4,-1
89262736817,0,-5,-12,-4,-3,-2,3,5
89262751684,-6,-3,-1,-2,1,0,0,0
89262751684,4,-1,0,-1,-1,1,-2,-3
89262753263,12,-2,-8,-2,-4,-4,-3,14
89262753263,-15,2,1,2,2,0,0,-28
89262774116,4,-3,-7,-6,-1,1,0,4
89262774116,6,-2,-5,-4,-1,0,-2,-3
89262775702,3,0,1,-4,-5,-6,0,1
89262775702,-2,-1,1,3,1,-2,1,8
89262788014,-8,-4,-3,-3,-1,4,8,-10
89262788014,-4,2,-8,-3,0,-4,-14,4
89262796798,-12,-7,-9,-6,-3,-7,-7,-8
89262796798,5,-1,1,-2,1,0,-18,1
89262811666,-1,0,14,12,-2,-3,18,-3
89262811666,4,-1,-3,-4,1,8,2,6
89262813248,10,-3,-14,-12,-6,-8,-17,-5
89262813248,17,-2,-3,-1,-3,-2,5,10
89262834201,3,-3,-7,-2,-2,-6,-25,-6
89262834201,-8,-1,7,5,1,2,10,-1
89262835769,5,-2,1,0,-1,2,5,1
89262835769,-11,-2,2,2,0,-1,3,-3
89262848005,2,-2,-8,-11,-3,0,-8,3
89262848005,-1,-2,-7,-4,-5,-2,5,-6
89262856809,-10,-5,-9,-4,-3,-2,-2,-9
89262856809,4,0,3,3,-1,-4,0,5
89262871674,-7,-3,-6,-3,-1,-1,3,-9
89262871674,-5,-5,-13,-8,-4,-2,-4,-5
89262873215,-3,1,8,3,0,0,2,-1
89262873215,-7,-3,-9,-6,-3,0,0,3
89262894160,-3,0,-1,-3,0,-3,-3,-9
89262894160,1,1,10,3,2,0,0,0
89262895715,-3,4,14,10,4,2,4,2
89262895715,-7,-7,11,9,-6,-1,10,-1
89262908002,11,1,-28,-26,-4,-7,-22,4
89262908002,-15,-7,-3,0,-3,-4,6,-9
89262916838,4,2,8,2,1,1,2,6
89262916838,2,4,11,11,3,1,-5,0
89262931875,-4,-2,8,7,1,2,2,2
89262931875,14,-3,-5,-5,-3,1,-9,5
89262939565,4,-3,-9,3,0,0,2,6
89262939565,-10,0,-7,-8,-5,-3,1,-7
89262948007,8,-4,-5,-2,-2,-2,-5,10
89262948007,-4,6,7,0,3,1,-1,-4
89262949451,1,-2,0,-7,-5,0,1,-4
89262949451,12,-1,-8,-8,0,-3,-5,5
89262960246,-18,1,9,7,2,1,4,-1
89262960246,-3,2,6,4,0,-1,0,0
89262967814,-6,2,0,-1,0,0,-2,-5
89262967814,-2,-2,-6,-1,-1,-1,2,1
89262982749,3,0,3,1,1,-2,-1,-3
89262982749,-1,0,4,-1,-2,-1,0,-4
89262990638,-6,-1,-1,0,0,-1,-1,1
89262990638,17,-2,-15,-11,-3,-4,-1,1
89263005872,-26,4,5,3,-1,1,1,-35
89263005872,34,3,0,1,-1,-3,8,9
89263006672,-3,2,9,3,1,-1,-4,2
89263006672,-9,-3,2,18,0,2,2,-4
89263020379,-27,-2,-4,-6,0,0,-6,14
89263020379,5,-4,-6,0,-3,-5,-10,-12
89263027854,1,-4,-7,-2,-2,-1,13,-7
89263027854,-7,-2,3,-3,2,-6,-5,10
89263042922,22,0,-1,3,-1,0,-6,-10
89263042922,-12,0,3,-2,-2,-2,2,3
89263051030,-6,-3,0,3,0,-1,-13,-2
89263051030,-3,2,3,-2,3,1,3,13
89263066068,1,-1,-7,-3,-2,0,0,-11
89263066068,-7,1,2,-3,-2,-2,4,7
89263066815,2,-2,1,1,-2,0,-4,-8
89263066815,-11,-4,-7,-8,-3,-1,4,-12
89263080463,5,2,2,-2,-1,-2,-4,5
89263080463,-4,-2,2,3,-2,2,0,-2
89263087799,6,-5,-23,-10,-5,-3,-3,0
89263087799,-40,3,-1,-7,-1,1,-5,-8
89263102755,6,-3,8,8,0,0,10,18
89263102755,15,1,2,-2,1,-1,-11,-7
89263110950,-6,0,1,-4,-1,-2,-2,0
89263110950,14,2,6,1,0,-2,4,3
89263125751,12,2,-2,2,-2,1,4,6
89263125751,-27,0,20,19,4,0,-6,-7
89263133687,4,-1,-11,19,0,1,3,-7
89263133687,2,-4,-9,-46,-9,-1,-1,-8
89263140299,1,-2,-2,0,1,-2,-7,12
89263140299,11,-1,-5,-9,-1,-2,-2,0
89263147894,-4,0,9,14,0,0,0,5
89263147894,-4,-1,0,12,1,0,-3,-17
89263162694,-17,-4,-6,-5,-2,-1,3,-5
89263162694,22,3,-2,2,-2,1,2,19
89263170907,-3,1,1,-12,-3,-2,-4,-4
89263170907,15,0,-2,3,0,1,4,0
89263185408,-23,1,5,-4,0,-1,3,6
89263185408,-9,1,2,5,1,-2,1,-4
89263193608,0,-8,-7,-13,-4,-1,1,2
89263193608,9,2,0,2,1,-1,-5,7
89263200270,16,-3,2,8,-1,0,-3,-6
89263200270,13,-1,-6,-7,-1,1,1,9
89263208039,-34,-1,2,-8,0,1,3,-2
89263208039,1,1,3,9,0,-5,-7,0
89263223010,12,0,-1,-1,-1,-2,3,16
89263223010,-16,-4,-5,-9,-4,-1,-2,-5
89263231175,12,-2,-5,-8,-3,-3,2,-4
89263231175,8,1,-4,5,-1,-3,-11,19
89263246002,-15,1,6,0,-2,-3,-4,-31
89263246002,-2,-1,-6,-2,-1,-3,-1,-3
89263246760,-6,0,1,5,0,-1,1,1
89263246760,24,-1,1,-3,-2,0,-1,-11
89263260376,6,1,-2,-2,-1,-1,0,6
89263260376,-11,-5,-1,0,0,-1,-3,-7
89263267873,-11,-1,4,-2,0,0,-1,-11
89263267873,7,-1,-4,2,-2,-3,2,4
89263282818,6,-2,-3,-3,-1,-2,-5,-1
89263282818,-14,-4,-5,-4,-3,-3,1,-3
89263290978,16,-2,-1,-4,-3,-2,-5,28
89263290978,-7,1,2,2,1,3,4,-7
89263305334,15,1,-1,1,-3,-1,0,7
89263305334,-18,-6,-14,-6,-4,0,-1,0
89263313458,13,2,0,-5,-2,-5,-2,-10
89263313458,-19,-2,-4,2,-1,-2,-3,-8
89263330523,0,0,-1,-2,-1,1,-10,-3
89263330523,8,1,0,-2,-2,0,5,3
89263331330,-3,0,2,1,0,0,-1,-6
89263331330,-25,-5,-2,0,-1,1,7,14
89263342809,10,3,1,-1,0,1,-5,-8
89263342809,5,-1,-1,-1,-1,-2,-6,-3
89263351092,-16,-1,-1,0,-1,1,-1,-2
89263351092,7,1,3,0,1,-3,0,8
89263365545,1,-4,-1,0,-2,-3,1,3
89263365545,-9,0,-2,-7,-1,-1,3,-5
89263373700,-6,-1,-3,-3,-1,-1,-2,-9
89263373700,6,-2,-4,-2,0,-1,-4,-2
89263380468,4,1,1,0,-2,-3,-2,-8
89263380468,-3,0,-1,1,-1,-4,-4,-1
89263388675,-2,-3,-2,-1,-1,0,-2,-2
89263388675,-5,1,1,-1,-1,0,-3,-11
89263402841,-1,-2,-4,-2,-1,0,1,4
89263402841,4,0,2,0,-1,1,3,-1
89263411011,-6,-1,-2,-1,-1,0,-2,-1
89263411011,2,0,1,0,-3,-2,0,-5
89263425599,24,2,2,0,-1,-2,3,8
89263425599,0,1,4,2,0,2,2,0
89263433606,16,3,-1,0,1,-4,-9,6
89263433606,-4,-2,-4,-2,0,-1,-3,-9
89263440505,-6,-3,-2,-3,-1,-2,-1,1
89263440505,0,-5,-5,-4,-2,-2,-1,0
89263448427,-5,0,4,0,-1,2,1,-2
89263448427,1,-1,-1,0,0,0,0,-3
89263462785,-6,0,-5,-2,-1,-1,1,3
89263462785,-5,0,3,0,0,-1,-4,-5
89263470896,-1,0,-1,-3,-2,0,2,-1
89263470896,-2,-4,-4,-1,-2,0,-9,-12
89263485491,20,3,3,1,-1,3,9,11
89263485491,32,2,-2,2,2,-2,-2,3
89263493460,-12,-3,-1,-2,0,-1,2,-3
89263493460,1,0,1,-1,-1,-1,-3,-3
89263509292,-17,-6,-5,-3,-3,-1,-2,0
89263509292,-3,0,0,1,-2,-2,0,-11
89263509968,17,2,-1,0,1,0,-2,7
89263509968,-4,-2,0,-2,-1,-1,-1,-1
89263522774,-8,0,-1,0,-3,-2,-1,-1
89263522774,-10,-2,-4,0,-1,0,-1,0
89263530986,-9,-3,-4,-2,-1,-1,-1,-1
89263530986,-3,0,0,-2,-1,-2,0,-5
89263545425,-18,0,4,-2,-2,-3,-1,-23
89263545425,3,-1,-1,-2,-1,0,-5,-4
89263553632,-2,-1,-2,-1,-3,-3,1,5
89263553632,7,0,0,1,0,-3,-1,12
89263569146,-2,0,1,0,-1,0,-1,0
89263569146,-9,-1,-2,-1,0,0,0,-2
89263569939,0,-1,0,0,-1,2,-1,-5
89263569939,0,-1,0,0,0,-1,-1,3
89263582777,-9,-3,-3,-3,0,-4,-4,0
89263582777,-6,-3,-1,-1,-3,-2,0,2
89263590935,5,0,-2,-1,-2,-2,0,-2
89263590935,4,-3,-3,0,-1,0,1,0
89263605312,-2,1,-1,0,-1,1,-3,1
89263605312,-10,-1,-2,-6,1,-1,0,-7
89263613528,4,0,-1,-2,-1,-2,1,-1
89263613528,-2,-6,-5,-3,-3,-2,-2,-3
89263629151,-2,-2,-2,-1,-1,0,-1,-2
89263629151,0,-1,-1,0,-2,-3,-2,3
89263629874,-5,-1,-1,0,1,-1,-2,-4
89263629874,-9,-2,0,0,-2,-1,0,-1
89263642886,-4,-2,0,0,0,2,2,-2
89263642886,3,0,-2,-4,-3,-5,-7,-17
89263651036,0,0,4,1,1,0,-1,-4
89263651036,-3,-2,-4,-1,-2,0,0,1
89263665405,5,0,-2,-1,1,0,2,0
89263665405,-6,-4,-3,-2,-2,-1,0,1
89263673535,-1,-1,0,-1,-1,-2,-1,2
89263673535,12,0,-2,0,1,0,0,-7
89263687728,-52,-8,-2,-2,0,-2,-4,-1
89263687728,4,-1,0,0,-1,-1,1,7
89263696746,1,0,-4,0,-3,-3,7,1
89263696746,3,0,3,-1,0,-2,-3,10
89263702822,4,-2,-1,-3,-2,0,1,0
89263702822,1,0,-2,0,1,-1,0,6
89263711780,-4,-3,-3,-2,0,0,-5,-5
89263711780,-7,1,2,-1,-2,-1,2,-4
89263725248,16,0,-3,-2,-2,-3,-3,1
89263725248,-3,-2,0,0,-2,1,0,1
89263734329,2,0,1,-1,-1,0,-4,-2
89263734329,-13,-3,-1,0,-1,-1,0,-5
89263747778,21,-2,-5,-1,-2,-2,-1,20
89263747778,14,8,5,2,-2,1,-1,-8
89263756791,-9,-3,-2,-4,0,0,-4,-3
89263756791,-1,-1,-1,-3,-3,-1,4,1
89263762737,-4,-1,0,0,2,-2,-2,-2
89263762737,-6,-4,-1,-1,-2,1,0,5
89263771739,6,-1,-1,-1,-2,0,-1,2
89263771739,-7,1,3,0,0,1,-3,-2
89263785266,36,0,-1,-2,-1,-2,-7,-10
89263785266,-18,-2,1,0,1,0,1,-20
89263794362,28,-5,-3,-3,-3,-5,10,32
89263794362,-3,0,1,1,1,-5,-7,-5
89263807805,0,1,-1,-2,-2,0,-1,-9
89263807805,1,-5,-3,0,-2,-2,-6,5
89263816806,-10,-2,-3,0,-1,2,1,-8
89263816806,3,0,-2,-1,0,1,1,1
89263830327,-4,-3,-2,-2,-2,-1,-1,5
89263830327,-4,-1,-3,-1,-1,0,2,-1
89263839365,-9,0,-3,-1,-2,-2,-4,-7
89263839365,1,-4,-2,-1,-2,-1,-1,1
89263854099,-8,1,0,2,0,0,-1,-5
89263854099,-9,-4,-2,-2,-2,-2,-5,-20
89263855692,9,5,1,1,1,1,-1,3
89263855692,0,1,-1,-1,0,0,-4,0
89263876661,-6,-4,-3,-2,-1,-2,1,-2
89263876661,4,0,-2,-1,-2,0,2,6
89263878200,-5,0,2,-1,-2,-2,-6,-2
89263878200,-3,-1,-1,0,-1,-1,0,-7
89263890283,-11,-2,3,0,0,-1,-1,4
89263890283,11,3,2,2,0,0,-2,10
89263899293,-13,-3,-3,-1,-1,0,0,-14
89263899293,18,1,0,-2,0,-2,1,24
89263914108,-33,-6,-3,-3,-4,-3,0,-4
89263914108,11,5,2,0,1,-1,-1,4
89263915668,7,0,0,0,-1,1,-3,-4
89263915668,-5,-2,-2,0,0,1,-2,-5
89263936620,-1,1,2,-1,1,-1,-2,-7
89263936620,-8,-5,-3,-2,0,-3,-1,0
89263938323,18,0,1,-2,1,-2,0,1
89263938323,-30,-3,-2,-3,-4,0,0,1
89263950249,-8,0,-2,1,0,-1,-4,-8
89263950249,4,-1,-2,-1,-2,-1,7,16
89263966758,5,-2,-1,0,-1,-1,-2,-1
89263966758,1,1,-1,-1,0,-1,-2,-8
89263974134,13,0,-3,-1,-2,-1,0,4
89263974134,-14,-6,-3,-2,-1,0,-5,-7
89263975810,-23,-7,-6,-4,-4,-5,-6,-2
89263975810,13,4,-1,-2,-1,-2,3,-8
89263996667,0,-1,-1,-1,-1,-2,-4,5
89263996667,5,0,0,-1,0,0,-2,5
89263998147,-12,-3,0,-1,-2,0,1,-2
89263998147,1,-2,-1,-1,0,-1,-3,-5
89264010431,10,-1,0,-2,-2,-2,1,3
89264010431,-6,-2,0,0,1,-2,-4,-4
89264019345,-45,-4,0,0,-1,1,-2,-5
89264019345,22,-5,-5,-2,-2,-4,-11,12
89264034264,-2,-2,-1,-1,-1,-1,2,-2
89264034264,-1,1,-3,-1,-2,-1,3,-2
89264035688,8,0,-1,0,0,-2,-1,1
89264035688,-1,0,1,-1,-2,1,2,-6
89264056599,-6,-3,-5,-2,-1,0,-3,-8
89264056599,0,-3,-1,-2,-2,-4,-4,-5
89264058191,10,0,0,1,0,-1,2,2
89264058191,-7,-2,-2,-1,0,-1,-1,-3
89264070360,8,1,0,-1,-2,-1,-1,0
89264070360,-5,2,2,-2,0,0,0,4
89264079252,-4,-7,-13,-7,-3,-1,-4,-6
89264079252,17,1,-1,-1,0,1,5,30
89264094171,6,1,0,0,-1,-4,-4,-16
89264094171,0,-2,-1,-2,-1,-2,2,4
89264095902,-2,1,4,0,0,-3,-1,-1
89264095902,-3,-3,-3,-3,-2,-1,-1,-7
89264116551,-9,-5,-5,-2,0,0,3,5
89264116551,10,2,-2,-1,-1,0,-1,1
89264118183,7,1,0,0,-2,-2,-4,-3
89264118183,-7,-3,-2,-1,-1,0,-1,-7
89264130417,-2,1,2,0,-2,0,0,1
89264130417,-7,-2,-3,-1,-1,-1,-1,-6
89264139254,0,-1,-2,-2,-1,0,-1,2
89264139254,-5,0,1,1,-2,-2,-1,-9
89264154176,-1,-1,-2,-4,-1,1,-2,1
89264154176,-2,-1,-2,-2,-1,-1,-3,3
89264155742,-16,-6,-4,-3,-2,-2,0,8
89264155742,18,1,0,0,0,-1,-3,-8
89264176568,9,2,1,-1,-2,2,-2,-26
89264176568,-9,-2,0,-1,0,0,3,4
89264178204,-1,-1,1,-1,-1,0,-1,1
89264178204,-11,-3,-2,-2,-1,-3,1,-3
89264199081,6,1,0,1,-1,-3,-3,8
89264199081,-2,-1,-3,-2,0,2,-2,-4
89264200770,5,-2,-3,-1,-3,-3,0,-7
89264200770,5,5,1,1,-1,1,-1,2
89264214061,-4,1,2,2,0,2,3,6
89264214061,-4,-3,-3,-3,-2,-3,-6,-10
89264215656,6,3,2,0,-1,-1,0,1
89264215656,-5,-4,-1,-3,-2,-1,0,-5
89264244040,-4,-2,-1,-1,-1,-2,2,5
89264244040,5,1,0,0,-1,-1,0,-1
89264245687,-9,-2,-1,0,0,2,2,-5
89264245687,14,-4,-5,-4,-5,-3,0,3
89264259039,-29,-1,-3,-3,1,-2,-6,-12
89264259039,1,0,-1,-1,-1,0,-1,10
89264260634,5,0,1,0,-1,-1,-3,-8
89264260634,-25,-3,-1,0,0,1,0,4
89264274140,9,-3,-2,-1,-2,-2,0,5
89264274140,3,-1,0,0,-2,-1,-3,-6
89264275777,-8,-1,-1,-1,-2,0,-1,3
89264275777,-1,0,-2,1,1,0,-2,-6
89264296717,8,-1,-1,-1,-1,-4,0,2
89264296717,-31,-6,-1,0,-2,-2,-2,1
89264298446,11,4,1,-1,0,-1,-3,-1
89264298446,-2,-1,0,-1,2,0,0,-2
89264319338,-1,-2,0,-1,-1,0,0,-3
89264319338,2,-1,-3,-2,-1,0,0,2
89264320738,3,-2,-3,-2,-2,-2,-2,-10
89264320738,-14,-3,-2,-2,-1,0,-3,-3
89264334343,11,-1,0,0,0,1,-2,6
89264334343,3,0,0,-1,0,-3,-1,-4
89264335734,0,-1,1,0,-2,-2,-3,1
89264335734,-6,-6,-6,-2,-3,-1,-4,-4
89264356593,-24,-10,-6,-3,-3,0,5,17
89264356593,15,5,3,1,-1,-2,-5,-20
89264358204,3,0,0,-1,-1,0,-3,0
89264358204,-8,-2,-2,-1,-1,-2,-1,-3
89264379248,1,-1,-1,0,-1,-1,-2,3
89264379248,0,-1,-3,0,-2,-2,-2,3
89264380797,-3,-2,-2,-1,-1,-1,2,1
89264380797,6,1,0,-1,-1,-3,-1,-7
89264393592,2,0,-1,1,-1,0,-3,-7
89264393592,2,-3,-2,-1,-1,-1,1,0
89264400272,-15,-3,0,-2,-2,0,-5,-2
89264400272,19,4,2,-3,-2,-1,5,11
89264416873,-37,-5,-1,-1,-1,-2,-2,-1
89264416873,-11,-2,-1,-2,-1,-1,0,-4
89264418242,13,0,-1,0,0,0,-1,-10
89264418242,-9,-2,0,0,-2,-2,-2,0
89264439222,9,3,-1,-1,0,0,-2,-2
89264439222,5,1,0,1,0,-2,-1,0
89264440734,-7,-3,-3,-1,-1,-2,0,1
89264440734,-5,-2,0,-1,-3,-2,-3,-3
89264453673,16,0,-1,0,0,-3,-2,-13
89264453673,-11,-5,-4,-1,-3,0,1,3
89264460386,6,-2,-3,-1,-1,-2,-5,-1
89264460386,11,4,1,1,1,1,9,7
89264476614,-2,-2,1,-2,-2,-2,-2,-8
89264476614,0,-1,-3,-1,-1,1,0,-1
89264478274,-8,-1,-1,-2,-2,-1,1,12
89264478274,-5,-1,-2,0,-1,0,-3,-7
89264499072,3,-2,-2,-3,0,-1,-1,-1
89264499072,5,0,0,-1,0,0,1,3
89264500676,0,0,-2,-1,1,0,1,-4
89264500676,-9,-2,-1,-2,-3,-3,-8,-11
89264513375,-31,-8,-6,-1,-3,-1,1,-2
89264513375,-7,2,3,0,-1,-1,-4,-14
89264520279,18,2,-1,1,-1,-1,2,5
89264520279,-23,-5,-1,-1,-1,0,-2,-2
89264544171,25,3,-3,-1,0,0,0,7
89264544171,1,-1,-2,-3,0,-1,-1,3
89264545754,-7,-3,-2,0,-3,-2,-1,-2
89264545754,1,-1,0,0,0,0,2,-5
89264559398,7,1,-1,-2,-1,-1,0,-3
89264559398,5,-1,-3,-1,-2,-1,-4,6
89264560815,5,0,-1,-2,-1,-1,-4,-14
89264560815,0,-3,-3,-2,-3,-2,-2,8
89264573447,-2,-2,-1,-1,0,-2,-4,1
89264573447,0,-1,0,-2,-3,-1,2,0
89264580295,-5,-1,-1,-1,0,0,-2,-3
89264580295,-1,-2,-3,0,1,-1,-3,-3
89264596645,21,1,1,0,-1,0,-2,1
89264596645,-1,-4,-2,0,-1,1,0,-5
89264598407,2,1,-1,-1,-1,-3,1,7
89264598407,-19,-6,-3,-3,0,0,-3,7
89264619211,23,5,2,0,1,1,3,7
89264619211,7,-2,-1,1,0,-3,-2,16
89264620757,-4,-2,-2,1,-2,-1,0,-5
89264620757,-3,2,0,-1,1,0,-1,0
89264633658,-5,-3,-3,-4,-2,-3,1,-11
89264633658,1,-3,2,-1,1,-2,-5,-1
89264640346,-4,-2,1,0,-1,0,0,0
89264640346,-1,-1,-2,-1,-2,-3,-3,-4
89264656701,-3,-1,-4,0,-1,0,0,2
89264656701,-5,0,-1,-2,-2,-1,0,-4
89264658258,3,-1,0,-1,-2,-3,1,2
89264658258,-1,-1,-1,1,-1,-2,-3,-4
89264679360,22,2,2,-1,-2,-2,-6,-3
89264679360,-12,-2,-3,0,2,-1,3,1
89264680830,-4,0,-2,-1,0,-1,-4,-3
89264680830,5,-2,-5,-3,-2,-2,1,2
89264692752,-11,-3,-1,-1,-2,-1,-2,-7
89264692752,9,-2,-2,-1,-2,-1,-4,-6
89264701793,1,-1,-3,-1,2,1,3,2
89264701793,8,1,0,1,-1,0,2,9
89264717360,-21,-1,1,1,0,1,-2,-22
89264717360,0,-1,-5,-2,-1,-1,-1,14
89264718861,5,0,-2,0,-2,0,-3,0
89264718861,9,1,-1,-1,-1,-1,0,2
89264739057,-19,-4,-1,-2,0,-2,-2,1
89264739057,12,2,0,-1,-2,-2,2,3
89264740658,2,0,-1,-3,-1,-2,-2,-3
89264740658,-5,-1,0,-1,-1,-1,1,-8
89264752743,1,1,-1,0,-1,-1,-2,5
89264752743,16,1,0,-1,0,1,-1,-10
89264761760,-10,1,0,0,-2,0,1,4
89264761760,2,-2,-2,-3,-2,-2,-5,-3
89264776842,-10,-4,-3,-1,-1,-2,0,6
89264776842,-3,-2,-2,-2,-2,-2,-1,-19
89264778426,13,1,2,2,2,3,4,12
89264778426,-24,-2,-2,-1,-2,-2,-5,-14
89264799593,13,1,-1,-2,-2,0,0,6
89264799593,-9,-2,-3,-2,-2,-1,-2,-3
89264801263,-6,-3,-1,1,-3,-1,0,-2
89264801263,-2,0,-1,-1,0,-2,1,-3
89264812773,-2,-1,-1,0,-2,0,0,-9
89264812773,-10,0,0,-1,-2,-4,-5,-10
89264821808,-5,-3,-3,-2,-1,-3,-4,-12
89264821808,6,0,2,-1,0,1,0,4
89264836601,-4,-2,-5,-3,-2,-3,-3,2
89264836601,0,-3,-4,0,-1,1,1,5
