timestamp,emg1,emg2,emg3,emg4,emg5,emg6,emg7,emg8
83779037462,0,-2,0,6,5,0,0,-1
83779037462,-1,-1,-3,-8,-9,-3,-1,-1
83779046458,-1,-2,-2,4,-1,-1,0,-1
83779046458,-1,-1,-4,-4,-1,-1,-3,-2
83779061321,-3,0,0,4,-1,-1,0,-1
83779061321,0,0,0,-4,3,-2,-2,0
83779062880,-2,-2,-1,-3,-1,-1,-1,-1
83779062880,-1,-2,0,1,-2,0,1,-2
83779083844,-3,-1,-2,-5,-1,-2,-1,1
83779083844,-1,-1,0,6,0,0,-3,-3
83779085432,0,-2,-3,-9,-1,-1,-1,-1
83779085432,0,-1,0,1,1,-1,-2,-2
83779097531,0,-1,-3,-6,-3,-1,-1,-1
83779097531,-2,-1,-2,-2,-1,0,0,1
83779106418,-3,-1,1,2,0,-1,0,-2
83779106418,-1,-1,-2,-2,0,0,-2,-1
83779121309,1,-1,-1,-1,-1,-1,0,-1
83779121309,-1,1,-1,0,-1,-1,0,-2
83779122904,0,-2,-1,-11,-1,1,0,-1
83779122904,-1,-1,-2,12,-1,-2,-1,-1
83779143830,-1,-2,-2,-6,-2,-3,-1,-1
83779143830,0,-2,-2,0,0,-1,0,1
83779145416,-1,-1,0,-3,0,-2,-1,0
83779145416,-2,0,-3,-14,-4,-1,-2,-1
83779157477,-2,0,-1,7,0,-1,-2,-3
83779157477,-1,-3,-1,-2,0,-2,-1,0
83779166511,-3,0,-2,-1,1,0,-2,0
83779166511,-1,0,0,3,-2,0,-1,-1
83779180637,-2,-2,-1,-3,-2,-1,0,-1
83779180637,-1,-1,-1,-4,-2,-2,1,-1
83779187610,0,-2,-2,6,-3,-3,-1,-1
83779187610,-1,-2,-2,-5,-2,0,0,0
83779203760,-2,-2,-1,-2,-2,-2,-1,-1
83779203760,1,0,-1,-8,0,0,-3,-1
83779205424,-1,-1,-3,-1,-2,-2,-2,0
83779205424,-2,-1,0,2,1,-1,0,-1
83779226328,0,-1,-1,1,-2,0,-1,1
83779226328,-2,-3,-1,-1,-2,0,-3,-1
83779227958,-1,-2,-1,8,-2,0,-2,-3
83779227958,-1,-2,0,0,-1,0,0,0
83779241423,1,1,-1,-8,-1,-1,-1,0
83779241423,-1,0,-1,2,-1,0,1,-2
83779243052,1,-2,0,0,1,0,-1,-1
83779243052,-2,-2,-3,-2,-2,-2,0,-1
83779263931,-2,-3,-1,3,0,-1,-1,-1
83779263931,0,-3,-1,-2,-2,-1,-1,-1
83779265430,-2,0,-1,0,0,-1,-1,-2
83779265430,-1,-1,-1,-11,-1,-2,-2,-3
83779286505,-1,-2,-2,7,-2,-2,-3,-2
83779286505,-1,0,-1,-4,-1,0,-2,0
83779288039,-2,-1,0,2,-1,0,0,-1
83779288039,0,-1,0,-2,0,-2,-1,-2
83779301336,-1,-1,-1,0,-1,-2,-1,-1
83779301336,-2,-3,-1,-5,-2,-2,-1,-2
83779302914,0,-1,-2,0,-2,-3,-1,1
83779302914,-2,0,-1,-1,-2,0,0,2
83779323763,-2,-1,-2,2,-1,-1,-1,-2
83779323763,-2,-1,-1,-3,-2,0,-1,-2
83779325386,1,-1,0,-1,-1,-1,-1,0
83779325386,0,-1,-2,1,0,0,-1,-2
83779346323,-1,-2,-1,-5,0,1,-1,-1
83779346323,0,-1,-1,4,0,-1,-2,1
83779347892,-2,0,-1,2,0,1,0,0
83779347892,0,0,-1,-1,-1,-1,-2,-3
83779360622,0,0,-1,0,1,0,-1,-2
83779360622,-1,2,-1,0,-2,-2,-1,-1
83779367427,-1,0,-2,-5,-1,-1,0,-1
83779367427,-2,-1,-1,4,0,1,-3,0
83779383773,-2,-1,-1,-1,-3,-3,0,-1
83779383773,-3,-1,0,1,-1,0,-1,-1
83779385387,-1,-4,-1,-3,-2,-2,-3,-1
83779385387,-1,0,0,-1,-1,0,-1,0
83779406333,-1,-1,0,1,-1,0,-3,-2
83779406333,-2,-2,-1,-7,-1,-2,-2,0
83779407952,0,-1,0,7,0,0,-1,0
83779407952,0,-2,-5,-20,-3,-3,-3,-3
83779420883,-1,-1,-1,-4,-2,-1,-2,-1
83779420883,-2,-1,-3,1,-2,-1,-1,-2
83779427674,-2,0,0,-2,-2,0,0,-1
83779427674,-2,-2,0,4,-2,-2,1,1
83779444079,0,-2,-2,-5,-1,0,0,-1
83779444079,0,-1,-1,5,0,-1,-1,-1
83779445394,-1,-1,-1,-4,-2,-2,0,1
83779445394,-1,-1,-1,-2,-1,-2,0,-1
83779466602,-2,-1,-1,-1,-1,-2,-1,0
83779466602,0,0,0,1,-2,0,-3,-2
83779468022,-2,-3,-2,-9,-3,-2,1,-2
83779468022,0,-2,0,-4,-2,-1,0,-2
83779480969,-1,-1,-1,1,-1,-2,0,-1
83779480969,0,0,-1,0,2,-1,-2,-3
83779487729,-1,-1,-2,2,-1,0,-2,-2
83779487729,0,-1,0,-2,0,-1,-3,-2
83779503914,-3,-3,-1,-2,-2,0,0,0
83779503914,-1,-1,-2,-1,-2,-1,0,1
83779505437,-2,-2,-1,0,-2,-2,-1,-1
83779505437,0,-1,0,5,0,-3,0,0
83779526558,-1,-1,-2,-7,-1,0,-1,-2
83779526558,-2,-2,0,4,0,-2,-1,-2
83779527994,-1,-2,2,-5,-2,-1,0,-1
83779527994,-2,-1,0,3,-2,0,0,0
83779540709,-1,-2,-1,4,-1,-1,-2,-2
83779540709,0,-2,-2,-8,0,0,-1,-1
83779547599,-2,0,0,2,-1,-1,-2,-1
83779547599,0,-1,-2,-1,-2,0,-2,-1
83779563909,-1,1,-1,-3,-2,-2,-1,-2
83779563909,0,-3,-2,0,0,-2,-1,-2
83779565407,1,-1,-4,10,-1,-1,-2,1
83779565407,-1,-1,-2,-8,-1,-1,-1,1
83779586583,-1,-2,-1,-3,-3,0,0,-1
83779586583,-2,-2,-1,6,0,-1,-2,0
83779587961,-1,0,0,-6,-3,-1,-1,-1
83779587961,-1,-1,-1,10,3,-1,-2,0
83779600897,1,0,0,-11,-1,-2,-1,1
83779600897,-1,-2,-2,-4,-4,-2,0,0
83779607642,-1,-1,-3,1,0,-1,0,-1
83779607642,-2,-2,-2,-3,-2,0,0,-2
83779624063,-2,-2,-2,3,0,0,-1,-1
83779624063,0,1,-2,-1,-1,-1,-1,0
83779625432,-1,-1,-1,0,-2,-1,-2,-2
83779625432,0,-2,0,-3,0,-1,-2,-2
83779646348,-1,0,-1,0,0,-1,-3,-1
83779646348,0,0,0,0,1,0,-2,-3
83779652742,-3,-1,-2,-3,-1,1,-1,1
83779652742,-2,-1,-3,1,-1,0,0,0
83779660976,-2,-2,-2,0,-2,-2,1,-1
83779660976,-1,-1,1,-2,0,1,0,0
83779667606,-2,-2,1,-2,-1,-2,-1,-1
83779667606,-1,0,-1,0,0,-1,-1,0
83779683978,0,-1,-3,-2,2,-2,-3,-1
83779683978,-1,-2,-3,2,-2,-3,-1,-1
83779685491,0,-1,-2,0,-2,-2,-3,-1
83779685491,-2,-2,0,-1,-3,-4,-2,-2
83779706550,0,0,0,-3,-3,-2,-1,0
83779706550,-1,-1,-1,-1,-1,0,0,0
83779707976,1,0,-1,-1,-1,-1,-1,-1
83779707976,-1,0,-1,-2,-1,-1,0,0
83779720051,-1,0,-1,-1,-2,0,-2,-2
83779720051,-2,-1,-3,-2,-2,-1,-3,0
83779729070,0,-1,-3,-1,0,0,0,-2
83779729070,-1,-3,-2,3,1,-2,1,0
83779743838,-1,-2,-3,-4,-1,-1,-2,2
83779743838,-1,0,-1,2,-3,-1,-2,-1
83779745407,-3,0,-1,-1,-1,-1,0,-2
83779745407,0,-1,-1,-2,-1,-1,-2,-1
83779766330,0,-1,1,-5,-2,-1,0,0
83779766330,-1,-2,-1,4,1,-2,-1,0
83779767928,-2,0,-1,-7,0,0,-1,-2
83779767928,-1,0,0,3,-1,0,-3,-2
83779779977,-2,0,-1,-1,-2,-2,-1,-1
83779779977,-1,-1,-1,-5,-2,-1,-1,0
83779788960,0,-2,-2,-3,-1,-1,-1,-1
83779788960,-1,-1,-1,0,-3,-1,1,-2
83779803791,-1,0,-3,4,0,-1,-1,-3
83779803791,-1,-2,1,3,-1,-3,0,-1
83779805401,-1,0,-1,-3,-1,-2,-1,-1
83779805401,-1,-1,-1,-1,-1,0,0,-1
83779826332,-3,-2,-3,0,-1,0,-1,-2
83779826332,1,0,-2,1,1,-1,-2,0
83779827951,-1,-1,1,-2,-1,-1,-1,0
83779827951,0,1,-2,-6,-2,-1,-1,-1
83779840050,-1,-1,0,3,1,0,-1,0
83779840050,-2,0,-2,-5,-1,0,0,-2
83779848978,-2,-2,0,6,0,-2,0,-1
83779848978,-1,-1,0,-1,1,1,0,0
83779864094,-2,-2,-1,-1,-3,-3,-3,-2
83779864094,-3,-1,-2,-5,-2,-1,-1,0
83779865438,-3,-1,-2,-6,-2,-2,-1,-1
83779865438,-1,-1,-1,4,-1,-2,-3,-1
83779886475,2,1,-2,-15,-3,-1,1,1
83779886475,0,-4,2,14,1,0,0,0
83779887966,0,-2,-2,-2,-1,-3,1,-1
83779887966,1,-2,1,8,-2,-6,-3,-3
83779900173,-2,0,-2,-18,-1,3,1,-1
83779900173,-2,-1,-2,0,-2,1,-4,-2
83779909081,1,-1,-1,12,2,-2,-2,-1
83779909081,0,0,-1,6,0,8,4,2
83779923903,0,-2,0,-4,-9,-13,-2,-1
83779923903,-1,-1,0,-9,0,-5,-1,-2
83779925482,0,0,0,-6,6,6,2,1
83779925482,0,-3,-3,-11,-8,-4,-4,0
83779946534,-3,-2,1,10,-2,-4,-3,-3
83779946534,-1,-1,-3,-14,-8,-2,1,0
83779947958,0,1,2,8,3,3,0,1
83779947958,1,0,0,-4,7,3,4,1
83779960212,-2,-2,1,7,11,20,3,1
83779960212,-5,-3,-3,-16,-28,-26,-7,-4
83779969067,-3,-2,0,3,-8,-5,-5,-5
83779969067,-4,-2,0,2,-3,-13,-7,-1
83779983437,-1,-3,-3,-4,-6,-19,-2,-5
83779983437,1,4,5,8,16,25,14,-1
83779990205,0,1,3,-1,0,13,5,11
83779990205,-1,-2,-3,0,11,9,4,2
83780006318,-7,-5,-2,6,-1,4,2,-6
83780006318,3,2,2,3,-5,-30,-9,2
83780007941,0,1,1,0,-3,6,4,-35
83780007941,1,3,2,0,38,28,6,26
83780019981,1,0,-2,2,-11,-10,-8,0
83780019981,-3,-4,-6,-15,-16,-33,-21,-2
83780029036,-8,-3,-3,0,-15,6,9,-38
83780029036,5,0,1,29,-8,13,8,3
83780043202,-4,-2,-5,-55,13,15,0,-4
83780043202,3,1,1,13,8,15,-2,17
83780049948,-3,0,2,8,8,13,-17,-3
83780049948,1,-8,-15,-62,-29,-52,2,17
83780066381,0,3,-3,17,1,11,12,-11
83780066381,-1,-1,-2,-7,-2,0,-6,-16
83780067939,-5,-5,-6,-3,-2,-23,-19,14
83780067939,2,-1,1,29,-10,2,-10,-67
83780079985,4,-2,-6,31,-2,-6,7,54
83780079985,-9,0,-4,-34,-8,-6,-7,-24
83780088959,13,0,-4,21,11,19,-6,79
83780088959,0,4,3,-30,-6,-18,-7,-16
83780103090,-3,-2,0,-10,5,60,18,-10
83780103090,2,-3,3,12,7,-19,18,10
83780109950,-2,-4,-1,24,-4,7,3,0
83780109950,-12,-4,-7,-64,-31,-49,-35,-26
83780126527,6,1,1,3,9,10,-1,29
83780126527,-5,-1,-3,7,18,16,6,11
83780127960,-5,1,-3,-20,-21,24,9,-29
83780127960,2,2,4,50,25,13,9,32
83780148828,-3,1,-3,-30,-16,-49,-2,-44
83780148828,-1,-3,0,12,15,75,-5,12
83780150406,-6,-4,-6,-18,-17,-59,-1,-7
83780150406,-6,-3,-2,10,-3,40,19,4
83780163739,-2,1,5,1,8,-21,-10,-12
83780163739,-1,3,-1,-16,-17,-40,-20,-24
83780170211,-1,-7,-7,-13,1,-6,-15,4
83780170211,-1,1,0,-1,-8,4,7,63
83780186281,5,1,3,13,3,21,13,17
83780186281,-3,-2,1,6,2,36,23,-29
83780187952,-5,0,1,15,5,-12,-25,-36
83780187952,3,-2,1,15,18,10,3,-11
83780208865,-3,-4,1,-5,-11,-22,-16,4
83780208865,-4,-2,-3,0,-4,13,29,0
83780210369,-1,-1,2,-7,8,-3,9,18
83780210369,-8,-6,-5,17,-10,-8,-4,-21
83780231412,-1,4,5,13,28,-36,-5,-16
83780231412,6,-1,1,-22,-37,7,-19,13
83780232999,1,0,-1,2,8,-13,13,12
83780232999,1,3,5,7,8,19,-8,1
83780246310,0,-2,-3,10,-2,26,-22,-13
83780246310,-2,0,-5,11,8,-41,13,15
83780247896,7,-1,-1,-17,-16,3,18,25
83780247896,-11,-4,-6,-10,-1,-5,-9,-27
83780268964,6,-3,-2,8,3,58,12,8
83780268964,-17,0,-5,4,-1,-45,-27,-6
83780270486,-8,0,-2,-29,-24,-59,-42,-20
83780270486,-8,-2,-3,-25,-1,30,17,-60
83780283160,18,1,4,39,-11,-24,5,71
83780283160,5,-5,-6,4,38,21,14,7
83780289919,6,5,6,32,21,32,15,14
83780289919,-1,-2,-5,-42,-37,-48,-33,-5
83780306464,-6,-3,-3,-19,-23,-11,7,-9
83780306464,3,1,3,-15,-5,27,1,-3
83780307987,-2,-5,0,19,11,2,14,6
83780307987,18,4,4,18,16,6,-6,3
83780329073,19,1,0,-9,1,-11,-25,-31
83780329073,-61,-11,-6,11,-1,-12,-7,-6
83780330476,-7,2,0,-22,2,-22,-1,-17
83780330476,-6,-4,1,0,-22,6,10,20
83780342464,1,-2,2,-2,-3,-6,-1,-13
83780342464,20,2,-4,-6,-4,-25,-31,-16
83780351513,-1,-2,-2,14,16,28,26,5
83780351513,-4,0,2,0,7,10,1,1
83780373828,-11,-2,-5,-10,1,-4,0,0
83780373828,3,-5,1,16,10,6,-2,9
83780375436,-7,0,1,-13,-14,2,-10,-39
83780375436,9,1,-2,3,3,-15,5,22
83780388770,-15,-2,-6,-27,-11,7,0,-9
83780388770,8,0,2,11,-5,-4,6,7
83780390384,6,-2,-1,22,2,-4,-2,0
83780390384,-3,0,6,6,8,11,4,4
83780402419,-14,-3,-10,-23,-9,-14,-9,-48
83780402419,6,-2,-3,-77,-11,-3,5,12
83780411542,1,1,1,10,4,6,0,16
83780411542,-7,-1,-5,-38,13,-3,-18,-48
83780427616,-2,1,3,23,-29,-3,17,45
83780427616,9,8,-3,4,10,-1,3,-2
83780429253,-2,-7,-8,-16,-12,7,-2,-5
83780429253,-1,-3,5,30,13,0,2,7
83780448852,0,-2,-6,-67,-1,-17,-5,-6
83780448852,2,5,-1,6,3,11,-2,-9
83780450443,-2,2,-1,-5,-11,-2,-5,-1
83780450443,-4,0,2,49,-2,-8,-1,6
83780462464,-1,-4,5,33,23,1,3,5
83780462464,3,-3,1,13,2,3,-2,-5
83780471416,-5,-3,-8,-28,-18,-2,-5,-9
83780471416,2,-2,-2,-21,-15,-4,2,11
83780486309,-5,-1,10,31,17,5,-3,-7
83780486309,2,3,-5,13,-14,-3,2,-1
83780487958,1,-9,0,20,26,1,-3,1
83780487958,-4,-4,-12,-25,-17,-7,4,7
83780508778,-4,-3,-9,-10,-5,-4,-9,-4
83780508778,1,7,5,18,5,4,1,0
83780510432,5,-4,-1,-26,-15,-1,4,12
83780510432,5,1,7,29,1,-3,2,7
83780522699,-4,2,1,12,20,-4,-4,-9
83780522699,3,-4,3,6,-4,0,1,-11
83780531516,2,3,2,31,-9,-3,-7,7
83780531516,-4,-5,-6,-62,-3,-1,2,-6
83780546276,0,-2,1,35,-1,-3,1,5
83780546276,-2,-4,-6,-20,0,4,-2,-16
83780547889,-2,0,-1,2,3,-2,-2,4
83780547889,-4,-4,0,27,10,-1,1,-2
83780568884,2,-1,-5,-23,-10,2,5,18
83780568884,-1,0,7,-9,-18,-3,-2,6
83780570418,-3,0,2,4,18,4,0,-5
83780570418,-2,0,-8,-46,4,-3,-1,5
83780582391,-3,-4,-7,6,-30,0,-2,-6
83780582391,-1,-7,-4,9,5,-1,-1,3
83780591442,2,1,-2,-24,1,-2,1,6
83780591442,1,2,5,9,3,-2,-3,-7
83780606380,1,0,3,14,6,0,1,-6
83780606380,1,1,0,-20,-4,-7,-3,3
83780608017,0,1,-8,-35,-8,5,5,-1
83780608017,-6,-13,-7,35,11,2,0,4
83780628973,3,13,4,12,0,-4,-5,-9
83780628973,1,0,12,17,-3,-3,2,2
83780630587,1,2,-9,-31,1,2,1,-4
83780630587,-3,-3,-4,49,-6,-2,-9,-4
83780642709,23,8,6,-28,8,2,9,18
83780642709,-16,-10,-22,-62,-20,0,-1,4
83780651491,-12,6,-3,13,-2,-3,-5,-24
83780651491,15,6,14,-5,-8,-9,-7,-2
83780666395,-4,-25,-6,26,0,-4,-14,-30
83780666395,-31,-27,-11,8,13,9,13,-27
83780667947,10,3,10,8,4,5,8,60
83780667947,2,15,-10,-13,-8,-4,-4,7
83780688787,-14,3,4,-17,-6,-7,-17,-49
83780688787,-5,-17,2,2,6,5,13,28
83780690383,8,7,-4,-4,-12,-6,-6,-1
83780690383,-5,-1,-2,31,7,2,3,-41
83780702420,41,-1,-11,0,-5,3,11,50
83780702420,-3,16,-5,19,4,-3,-6,1
83780711429,1,4,22,10,1,1,-4,-3
83780711429,-7,-8,1,29,-7,-3,-6,21
83780725636,-23,6,-14,31,8,-4,-7,-105
83780725636,45,-6,8,-6,-15,-1,11,55
83780732451,-20,6,1,-6,-6,-4,2,-18
83780732451,1,2,-12,-31,2,-2,-1,15
83780748878,-19,-7,-9,4,-19,-11,-7,-31
83780748878,7,19,11,55,27,11,-8,30
83780750425,-4,-9,-2,-6,1,-1,6,-1
83780750425,4,-3,-6,-5,-1,15,9,12
83780762446,-8,0,9,-7,12,-7,1,34
83780762446,4,6,-1,-6,-12,2,-6,-39
83780771467,-4,-7,-11,-42,-5,-10,-4,-1
83780771467,-15,-6,-11,-33,-16,-27,-18,-17
83780786516,2,4,9,13,7,14,9,47
83780786516,13,3,4,38,9,-11,-10,1
83780787921,-6,-8,-13,-23,-5,8,1,-17
83780787921,-3,-2,6,-2,7,14,11,1
83780808867,-7,-5,7,18,9,18,24,18
83780808867,-7,-2,-7,-17,1,17,-3,-16
83780810456,10,-7,2,19,14,-23,-5,-2
83780810456,-4,-5,1,-40,-29,-26,-12,19
83780822498,-17,7,-8,10,-12,-14,-16,-3
83780822498,-13,-5,-2,0,3,-2,4,-4
83780831451,2,2,-7,-25,1,13,-6,-16
83780831451,1,6,6,-5,-4,0,1,-8
83780846410,10,-4,-4,-12,9,1,4,11
83780846410,-9,1,3,-3,-3,0,0,-10
83780847941,-4,-9,-1,38,-1,-4,-5,-5
83780847941,-1,2,5,21,7,2,7,2
83780868744,6,-2,-8,-32,-8,5,1,11
83780868744,-6,7,-3,-20,-3,-12,-7,-11
83780870453,-12,-6,-1,11,-6,-2,-2,-6
83780870453,4,9,1,11,9,10,9,6
83780882530,-1,-11,5,1,-2,-2,-3,-4
83780882530,0,-1,-3,1,-10,-8,-3,-7
83780891568,-8,2,-3,-6,2,0,0,-3
83780891568,-1,0,-1,-2,11,5,-1,-1
83780905692,3,-3,-1,-33,-16,-5,-7,-2
83780905692,-5,-1,-2,26,6,-7,-1,-2
83780912525,7,-5,-4,-19,-8,3,3,12
83780912525,-1,-3,-7,4,8,0,0,-5
83780928922,0,4,3,3,-8,-3,-4,3
83780928922,6,-3,2,-11,-3,-1,2,3
83780930509,7,8,4,12,4,1,-3,-6
83780930509,-6,-7,-6,-12,-7,0,-1,-3
83780942792,-12,-17,-2,1,10,-1,-2,3
83780942792,-5,-11,-3,-1,-5,-2,-3,-6
83780951445,2,-19,-1,16,-1,-3,-1,-1
83780951445,-9,-1,2,-5,-5,0,3,0
83780965620,15,6,3,1,5,2,0,2
83780965620,3,-5,-5,9,2,-3,-4,-3
83780972453,1,0,-3,4,-11,-1,-2,1
83780972453,3,-3,0,-4,-6,2,0,1
83780988916,0,5,-1,7,9,-4,-4,-2
83780988916,-4,3,-5,-29,1,-2,0,-3
83780990642,-11,1,0,5,-1,-2,0,0
83780990642,13,9,3,12,-3,0,-4,0
83781002453,-10,6,1,-2,-3,2,6,-3
83781002453,1,2,-1,-9,-1,-6,-4,0
83781011433,-4,6,0,-10,3,-1,-5,-3
83781011433,-7,-11,-3,2,-4,1,-1,-3
83781025718,4,3,-1,-11,-5,-7,-2,3
83781025718,-5,-6,1,13,2,2,-1,0
83781032503,15,11,3,-12,1,-5,3,3
83781032503,0,2,-1,-4,0,-1,0,-2
83781048756,-31,-5,-1,-8,2,0,-6,-6
83781048756,-3,1,0,-8,-10,-5,1,-4
83781050387,-5,-2,-1,6,2,10,-3,-2
83781050387,-4,-4,-4,7,2,-17,-4,-3
83781062535,1,-4,-1,-7,-1,8,4,4
83781062535,3,-3,-2,14,1,-3,0,0
83781071533,4,8,-1,-6,-5,1,-2,-3
83781071533,-3,-5,1,20,7,0,1,-1
83781085732,0,0,-3,-35,-7,-4,-4,-1
83781085732,-2,-2,0,-1,-6,-2,-2,-2
83781092679,2,0,0,10,0,-2,3,-1
83781092679,4,4,-1,-9,-11,-2,-3,1
83781108812,1,-3,-1,6,5,-3,-2,-1
83781108812,0,4,4,4,1,7,3,0
83781110372,-4,-7,-3,-10,7,-2,0,-3
83781110372,-7,-4,-5,-8,-12,-6,-3,-2
83781131370,-5,-3,1,14,6,10,4,-2
83781131370,-1,-2,-4,-11,-1,1,-5,-3
83781132901,-3,-1,0,-1,-15,-14,-5,-2
83781132901,-2,-3,0,-1,6,-3,1,0
83781145828,-7,-3,-4,-9,-6,0,-2,0
83781145828,-1,-1,-1,8,1,2,1,-2
83781152602,7,-1,-4,-30,-2,3,-5,1
83781152602,2,-13,2,15,11,3,5,1
83781168902,1,-3,0,13,-7,-6,-2,-1
83781168902,2,2,0,0,2,3,-1,0
83781170429,-3,-2,1,26,3,-2,-2,-1
83781170429,-3,2,-7,-34,-8,-6,-4,-2
83781191629,3,1,-2,9,1,-2,-4,-2
83781191629,2,-4,-1,3,-10,-10,-4,-1
83781192950,-4,-1,-1,12,8,9,1,-1
83781192950,2,3,0,-7,-2,11,2,-1
83781205788,-3,-1,-1,-3,-3,-15,-3,0
83781205788,-3,0,0,9,3,0,-4,-2
83781212569,-5,-3,-1,-2,-5,-1,3,-2
83781212569,0,-1,0,1,2,2,-3,-1
83781228786,3,-1,-1,-6,-2,-6,-1,-2
83781228786,-3,-3,-3,-13,-3,2,0,-1
83781230371,-3,-2,-1,5,2,0,0,1
83781230371,4,0,1,-12,3,6,-1,2
83781251436,2,-1,0,-9,-9,-4,-4,-1
83781251436,10,-14,-6,0,2,6,-1,-2
83781252994,-9,-5,1,-7,-6,-10,-1,1
83781252994,11,6,0,10,8,-3,-4,-2
83781265180,21,12,2,-4,-8,-2,-2,2
83781265180,-5,-25,-3,-5,-1,1,3,-1
83781274036,1,1,-1,-4,-1,5,-3,-1
83781274036,-7,-7,-2,-7,-1,-9,-3,-1
83781288799,-6,-1,-1,9,8,1,-1,-1
83781288799,-4,7,-1,-14,-5,4,1,2
83781290486,2,4,1,9,5,-3,1,0
83781290486,-6,-2,-1,-9,-1,0,-2,-2
83781311431,3,-21,-3,6,-3,5,2,-2
83781311431,-13,2,2,8,-1,-6,0,1
83781313027,-6,-7,-3,-4,-3,-5,-4,-2
83781313027,4,4,0,0,-4,-6,-1,-3
83781325174,4,8,-2,-5,3,11,-1,3
83781325174,3,3,0,6,0,-10,-5,-2
83781333967,1,-4,0,29,-1,-1,0,-4
83781333967,-6,-2,-4,-17,-7,0,-1,-1
83781348928,-8,-3,-3,-1,1,-3,-2,-3
83781348928,-1,4,-1,-15,7,0,0,1
83781350470,-4,1,-3,23,-6,-2,-4,-1
83781350470,-4,1,1,4,-1,0,0,-1
83781371602,-7,-4,-4,-12,-6,-5,0,-2
83781371602,2,4,-1,0,-4,-3,-2,-2
83781373064,4,0,-2,-18,1,1,0,-1
83781373064,-1,-2,-2,10,-2,0,-2,-1
83781385007,-6,-3,0,-5,-2,0,-4,-2
83781385007,-1,6,0,-3,-3,-3,-2,0
83781401450,-2,-25,-1,8,6,-2,-3,-2
83781401450,-3,-3,-3,-3,-2,1,0,-1
83781408970,-5,2,-2,0,1,-1,-2,-1
83781408970,-1,0,-5,-9,-6,-1,-2,-1
83781410559,0,5,-7,-13,-2,1,-3,-1
83781410559,2,-1,-4,0,-2,1,-4,-4
83781431373,4,-1,-5,-3,-2,-3,-2,-7
83781431373,0,0,-2,-8,-4,-2,-2,-9
83781433014,-15,-2,-2,-10,-6,-3,-1,-4
83781433014,-6,-1,13,9,1,-2,4,4
83781445216,-9,2,11,0,0,-1,7,10
83781445216,-6,-2,6,7,3,0,4,21
83781454020,-3,2,-5,-2,3,1,-2,11
83781454020,-1,-3,-8,-5,-2,0,-12,9
83781468913,3,-2,-4,2,-3,-1,-16,2
83781468913,4,1,3,1,-2,-4,-12,-25
83781470397,6,4,16,1,1,0,1,-40
83781470397,1,0,13,8,5,-1,17,-41
83781491425,3,1,12,11,6,-1,28,-30
83781491425,1,-5,-3,-2,3,-1,32,1
83781492981,3,1,-13,-14,2,0,21,20
83781492981,2,-4,-18,5,-3,-1,0,19
83781514143,1,0,-21,-6,-6,1,-21,13
83781514143,0,0,-16,-9,-9,1,-33,4
83781515486,-2,1,-3,-4,-7,-1,-32,7
83781515486,-4,2,14,6,-2,-1,-25,8
83781528889,6,13,16,10,2,-3,-12,15
83781528889,-2,10,23,-2,4,-3,2,18
83781530557,-1,13,16,15,1,-4,13,22
83781530557,-6,1,10,12,6,-2,19,21
83781551300,-3,-2,1,0,5,-3,14,9
83781551300,-4,-8,-8,3,5,2,14,1
83781552970,2,18,-4,-3,5,2,13,-3
83781552970,1,-4,-10,-7,-1,0,10,-9
83781565058,-2,-4,0,0,1,1,8,-11
83781565058,-3,-2,-4,9,0,-1,2,-13
83781574019,8,-3,-6,-3,1,2,3,-13
83781574019,-11,-6,-8,-16,-3,-2,-1,-12
83781588823,-4,-7,-2,16,3,0,-1,-9
83781588823,1,0,-12,-10,-6,-1,-3,-4
83781590367,-2,-4,-5,-31,-8,-1,-7,-3
83781590367,1,9,-5,2,0,-1,-6,-5
83781611544,-2,-2,-7,-5,-2,-1,-7,-2
83781611544,1,-2,-7,4,-5,-2,-8,-2
83781613027,8,-14,-7,-5,-3,-1,-9,-3
83781613027,3,5,-10,-20,-7,-1,-5,-2
83781625056,-1,0,-5,-18,-8,-3,-7,0
83781625056,-3,-5,-8,-29,-11,-3,-9,-3
83781633945,-8,-21,-3,16,1,-2,-5,-2
83781633945,1,-2,1,1,-3,-1,-7,-1
83781648936,-1,-3,-2,6,-1,-1,-4,-3
83781648936,0,-4,-3,-22,-6,-2,-5,-1
83781650454,-1,3,0,-3,-4,-1,-4,-1
83781650454,1,-3,1,3,-1,-1,-1,-3
83781671333,-2,-3,0,-1,-1,-1,-2,-1
83781671333,-1,3,4,1,0,-1,-3,0
83781672932,-5,1,2,6,0,-3,-1,-2
83781672932,-3,-5,-4,3,-2,-1,-1,-1
83781685020,15,10,-1,-9,-4,0,1,0
83781685020,-1,-22,4,13,1,-1,-1,0
83781694008,-3,-1,0,3,0,-1,1,-1
83781694008,-21,-2,2,0,1,0,0,-1
83781709135,-4,-2,0,11,-2,-3,-1,-3
83781709135,-8,-14,-2,-10,-3,-2,-1,-4
83781710440,-16,9,-4,-7,-3,-4,-2,-1
83781710440,7,-17,-3,-9,1,1,2,2
83781731427,-6,-4,-3,3,-2,-1,-1,-1
83781731427,-3,4,9,4,8,2,4,0
83781733008,3,22,3,-4,-7,-2,0,1
83781733008,3,3,1,5,-3,-2,-3,0
83781745027,-9,-5,-6,-8,-2,-1,1,1
83781745027,10,8,1,6,2,-1,2,2
83781753985,3,-7,-3,0,1,0,1,0
83781753985,2,7,1,-2,-3,-2,-2,-2
83781768811,-5,-5,1,-12,0,-1,1,-1
83781768811,-5,7,-4,8,-3,-1,-1,-3
83781770407,4,-5,-3,11,2,-1,0,0
83781770407,4,1,3,3,0,1,0,0
83781791300,-3,-8,-4,4,-2,-2,-2,-1
83781791300,-1,3,2,20,0,-4,-1,-1
83781792905,-1,-6,0,2,1,0,-2,-1
83781792905,-4,-4,-6,0,1,1,0,-1
83781805104,1,3,0,-2,-1,-1,0,-2
83781805104,0,4,2,-7,-2,-1,-2,-1
83781813995,-15,-16,1,10,-3,-3,-3,-5
83781813995,-3,-4,-6,-10,-4,-1,-2,0
83781828392,4,-18,0,21,6,-1,-2,-1
83781828392,-1,2,-2,12,-8,-3,-2,-3
83781835102,-1,3,-2,-15,-3,-1,-1,-1
83781835102,-2,-5,-5,-35,-5,-4,-1,-2
83781851530,-1,3,-8,-45,-2,1,0,0
83781851530,-2,-3,1,8,-2,-1,-3,-3
83781852992,7,1,3,18,2,-1,-2,-2
83781852992,3,4,-3,-54,-9,-2,-2,-1
83781865186,13,-6,-1,8,1,-3,-3,0
83781865186,6,5,1,-13,1,1,0,1
83781874032,1,2,-3,-9,-2,0,-2,-1
83781874032,4,2,0,20,2,-1,-3,-3
83781888329,-3,3,1,8,3,-1,-2,-2
83781888329,-4,-3,-2,-12,-3,0,-1,0
83781894984,2,11,2,-12,-1,-3,0,2
83781894984,-4,-28,1,23,3,0,1,1
83781911262,-6,3,4,1,-1,-1,2,2
83781911262,-2,0,4,15,2,-1,1,1
83781912872,-6,-4,-1,0,1,1,2,1
83781912872,2,8,1,10,3,-1,0,1
83781924945,-4,0,1,7,-1,0,2,0
83781924945,-3,-4,-8,-13,-2,-3,1,-2
83781933981,1,-6,-2,4,-5,-1,-1,-1
83781933981,10,4,1,18,2,-1,-1,-3
83781948184,-1,-2,-4,-11,-5,-1,-1,-2
83781948184,-28,11,-5,10,5,-1,-5,-6
83781954943,3,-6,2,-11,-8,-2,-2,0
83781954943,-4,3,-1,11,1,1,0,0
83781971344,-2,6,3,8,1,-1,-2,0
83781971344,3,-3,-1,-48,-1,-1,-2,0
83781972908,-2,-3,-4,8,1,-2,-3,-4
83781972908,-2,3,0,-2,0,0,0,2
83781985035,-3,-3,-4,2,-1,-2,-1,-2
83781985035,2,-5,0,13,0,2,0,-1
83781994018,2,-14,-2,-11,-2,-2,-3,-2
83781994018,3,0,0,11,2,0,0,0
83782008178,-8,-3,-4,9,0,-1,-2,-2
83782008178,1,-4,-7,-67,-16,-5,-3,0
83782014947,-6,0,3,1,2,1,0,-2
83782014947,-1,0,-3,0,3,0,0,-1
83782031288,-7,-4,-4,-2,-12,-5,-4,-3
83782031288,7,-2,2,23,1,1,0,-1
83782032887,4,17,-3,-19,0,0,0,0
83782032887,-18,1,1,27,0,-2,-2,0
83782044975,-1,2,-2,-42,-4,1,-2,-1
83782044975,1,-4,-3,16,1,-2,0,1
83782053987,7,3,0,4,2,1,-1,-1
83782053987,2,0,-3,10,-2,-1,-1,1
83782068250,-3,0,-2,2,0,-1,-1,-1
83782068250,2,2,2,8,1,-2,-2,-1
83782075018,-9,-13,-3,-3,0,-1,-1,-1
83782075018,3,2,-1,-14,-6,-1,0,1
83782091557,16,-1,0,18,1,-1,0,-1
83782091557,0,-3,1,-5,1,-1,-2,4
83782092917,-2,-1,1,13,0,-1,0,-2
83782092917,1,-7,-6,-27,-6,-3,-2,-4
83782113835,-3,6,-1,-18,-1,-1,-3,0
83782113835,5,-3,1,26,2,0,1,-1
83782115402,-4,-3,-3,-3,0,0,1,-1
83782115402,7,-1,-3,11,-2,0,-1,-2
83782128299,-1,0,-2,11,1,0,1,-1
83782128299,1,-3,-1,9,3,-1,-2,-3
83782135012,-5,-1,-3,-40,-10,-3,-1,-1
83782135012,0,-2,-1,-3,-1,-3,-1,-1
83782151336,-3,-3,-1,7,-1,-2,-2,0
83782151336,1,0,-1,0,0,0,-1,0
83782152919,6,0,1,11,1,1,1,0
83782152919,-5,0,-3,-28,-7,-3,-1,-1
83782174055,13,-2,2,-6,-1,0,0,0
83782174055,-7,0,-2,7,-2,-2,-2,-2
83782175474,-5,-22,-4,4,-1,-1,-2,-3
83782175474,2,2,5,3,1,-1,-1,0
83782187490,-8,1,-2,1,-1,-2,-2,-2
83782187490,1,-4,-2,-3,-2,1,0,-3
83782196471,-1,2,-1,3,0,-1,-1,-1
83782196471,0,9,1,2,1,-1,-3,4
83782211521,-3,-9,-4,0,-4,-1,0,-1
83782211521,-3,3,-3,-1,-1,0,1,-1
83782212937,-3,-2,-3,-3,-3,-3,-5,-3
83782212937,-4,0,0,7,1,-1,-1,-1
83782233941,-3,2,2,-3,-1,-1,-1,-4
83782233941,-15,-6,-5,-3,-4,-4,-2,-3
83782235532,-1,6,2,-9,0,-1,-1,-2
83782235532,-6,-35,-6,-1,-5,-3,-3,-4
83782247613,-1,4,-1,-10,1,0,0,1
83782247613,1,-4,0,-9,-4,-2,-1,-3
83782256407,2,3,1,17,6,0,0,0
83782256407,2,7,0,-8,0,-4,-1,-4
83782271275,-3,-3,-2,-2,-3,0,0,-1
83782271275,1,-1,1,1,2,0,0,0
83782273060,-1,0,-4,2,-3,-2,-3,-2
83782273060,-2,4,2,12,1,1,1,0
83782294068,-4,-3,-4,-5,-2,-1,-1,-3
83782294068,3,3,2,-7,-1,-1,-2,-2
83782295492,-5,-6,-2,5,2,-2,-1,1
83782295492,21,7,0,-3,-1,0,-2,2
83782308387,0,4,-3,4,1,-2,-3,-1
83782308387,1,11,2,2,0,1,0,-1
83782314976,4,0,-1,3,-1,-1,-2,-1
83782314976,-9,0,-3,6,-4,-1,-2,-1
83782331383,-2,1,-1,-7,-3,-1,-1,0
83782331383,4,5,2,6,0,-1,0,1
83782332982,-4,-4,-8,0,-2,-1,-1,0
83782332982,-1,0,0,-4,1,-1,-1,-2
83782361542,3,3,0,1,-2,-1,-1,-2
83782361542,-19,-12,-7,-6,-3,-2,-2,-5
83782363005,1,2,4,1,2,0,1,1
83782363005,-7,-3,2,15,1,0,-1,-1
83782368300,0,-4,-1,-25,-5,0,0,1
83782368300,-3,-5,-1,9,1,-2,-2,-1
83782375236,-1,1,-2,-15,-4,-2,-2,-2
83782375236,-2,4,-1,10,-1,2,-1,-2
83782391552,-6,-3,0,13,2,-2,-1,-1
83782391552,7,0,-1,-2,-1,-2,1,1
83782393061,6,-22,-2,-8,-4,-2,-1,0
83782393061,-10,5,-1,-13,-3,-1,1,0
83782413906,-3,0,2,14,5,0,-1,1
83782413906,3,-5,-4,-10,-10,-1,-2,0
83782415458,2,6,2,3,0,0,0,0
83782415458,-1,-2,0,0,1,-1,-2,-3
83782428315,-8,-21,-2,-7,-2,-2,-2,-2
83782428315,0,4,0,0,0,0,-1,-1
83782434988,-7,2,-2,7,-3,-1,-2,-2
83782434988,1,-3,-1,-9,-4,-1,-2,-2
83782451323,0,5,-1,1,-1,0,-2,-2
83782451323,2,-2,-2,-4,-3,-1,-1,1
83782452898,-3,0,-1,0,0,-2,-4,-2
83782452898,0,-1,-1,0,0,0,0,0
83782474066,-1,0,-2,1,-1,-1,-1,-2
83782474066,15,0,1,3,0,1,0,2
83782475453,-2,2,-2,-3,-2,-2,0,-1
83782475453,-2,0,-2,-1,1,-3,0,0
83782488386,0,0,0,-2,-2,-1,0,-2
83782488386,-6,-4,-2,9,1,-1,-2,0
83782495183,-1,3,2,-2,-1,1,2,0
83782495183,1,-2,-2,-10,-2,-1,-1,-3
83782511385,-1,-1,-2,3,-2,-2,-3,-2
83782511385,-4,-3,-2,1,-1,-1,-2,-3
83782512979,-1,0,-1,0,-1,-1,0,-2
83782512979,-3,-2,0,-2,-1,-1,-2,-2
83782533974,-1,2,-1,1,-1,0,-1,0
83782533974,-2,1,-1,-6,-1,1,0,-1
83782535519,0,-1,-1,3,-2,-1,-2,-1
83782535519,-2,-4,1,5,-1,-2,-2,-2
83782548172,-1,1,0,-9,0,0,-1,-1
83782548172,-9,-29,-3,-3,-2,-3,-1,0
83782555042,5,3,2,-3,1,0,-1,0
83782555042,0,-1,-1,13,-2,1,-1,-1
83782571509,1,-1,1,-4,1,0,-2,0
83782571509,-7,3,0,-2,-1,-1,1,-1
83782572949,-2,0,-1,5,-1,0,-2,-2
83782572949,-2,-5,-4,-7,-1,-3,0,0
83782594097,-23,0,0,0,3,-2,-1,-4
83782594097,2,4,-1,1,-7,-1,-2,-1
83782595390,-4,-1,-1,4,-1,-1,0,-1
83782595390,-1,4,0,-3,0,0,-1,0
83782607680,0,-3,-3,2,-2,0,1,1
83782607680,0,5,-1,-10,0,0,-1,-1
83782616475,-4,-27,-4,-2,-1,-1,-1,-3
83782616475,-3,-4,-1,-2,-2,-2,-2,-2
83782631303,5,0,-2,-3,-2,0,-1,1
83782631303,0,2,-2,0,1,-1,-1,-2
83782632988,3,7,0,-4,-2,-1,-3,0
83782632988,-2,-2,0,-5,-1,1,0,-2
83782653809,3,-6,-3,-1,-4,-4,-1,0
83782653809,0,3,1,4,0,-2,-1,0
83782655396,-3,1,-1,0,-1,-1,-1,0
83782655396,0,-1,0,-15,-1,-1,0,0
83782667597,0,5,1,9,0,-2,0,0
83782667597,0,-2,-1,1,-1,0,-1,-1
83782676492,-2,3,-1,-6,-1,-1,-1,-1
83782676492,-1,-2,-2,0,0,-1,-1,-1
83782690841,3,1,-1,-5,-3,0,-3,-2
83782690841,0,0,-2,1,0,-3,-3,0
83782691441,-2,-2,1,4,-1,-2,0,-1
83782691441,-9,-1,-2,2,0,-1,-1,-4
83782713210,1,-1,0,3,2,1,-1,-1
83782713210,-3,0,0,11,-4,0,-1,-1
83782713966,-2,2,-3,-24,-4,-1,-3,-2
83782713966,-3,-3,-2,7,0,-2,-2,-1
83782735664,-2,-13,-2,-2,0,-1,1,-2
83782735664,-2,-1,2,-5,2,0,0,-3
83782736438,-4,2,2,10,-1,0,-2,-2
83782736438,2,-4,-2,-5,-4,-2,-1,-2
83782750628,0,3,0,1,-1,-2,-2,-2
83782750628,4,2,0,-7,-2,0,0,1
83782751380,-1,-3,-1,-8,-1,0,1,-1
83782751380,0,4,-1,-4,-1,0,-3,-1
83782773122,-1,0,-2,1,-2,-1,0,0
83782773122,-3,-1,-2,-9,0,-1,-2,-3
83782773900,-1,2,-2,7,1,-1,0,-1
83782773900,1,1,2,0,0,0,2,-1
83782795604,1,0,-2,0,-4,-3,-2,0
83782795604,-1,-2,-1,-2,0,0,-2,-1
83782796393,1,-1,-1,6,1,-1,-2,0
83782796393,0,-2,-2,-3,-1,0,-2,0
83782810588,-1,-1,2,-5,-2,-1,-1,0
83782810588,1,1,-3,-13,-3,-1,-1,-1
83782811409,-1,0,-2,6,0,-2,-1,0
83782811409,-1,-1,-3,-16,-2,-2,-2,-4
83782833118,1,0,-2,-2,1,1,-1,-1
83782833118,1,-1,0,10,-6,-4,0,-2
83782833904,-2,-2,0,0,1,0,0,0
83782833904,0,-3,-3,6,-3,-2,0,2
83782855589,-2,-2,-2,-10,-1,-1,-1,-2
83782855589,-2,0,-1,3,4,0,-1,1
83782856381,0,-1,0,-6,-3,-3,-1,0
83782856381,-1,1,0,2,-2,-2,-2,0
83782870577,0,0,-1,-4,-2,-2,-2,-1
83782870577,-1,15,1,1,0,-1,-2,0
83782871391,-1,-5,-4,-8,-2,-1,0,-1
83782871391,-4,1,-1,1,1,0,-2,-1
83782893083,0,0,1,6,0,-1,0,0
83782893083,0,-2,-3,-15,-3,-3,-1,-1
83782893882,-1,1,-2,2,-2,0,-2,0
83782893882,-8,-7,-1,-2,-2,-2,0,-2
83782915625,3,4,1,3,0,1,-2,-1
83782915625,-3,-6,-2,-2,-1,-2,-1,-2
83782916456,-1,0,-2,-6,-2,0,-1,-1
83782916456,-1,-4,-2,2,-1,-1,-3,-1
83782930562,-3,-2,0,-2,-1,0,-2,0
83782930562,0,-5,-2,-1,0,0,0,-1
83782931394,1,-1,0,3,0,-2,-2,-2
83782931394,3,2,-2,-9,-4,0,-2,-1
83782953191,-2,-2,0,-3,0,-1,0,-3
83782953191,0,-3,-3,-5,-3,-1,0,0
83782953945,-6,-3,-2,0,0,-1,-2,-2
83782953945,2,2,1,-2,0,-1,-1,0
83782975655,-2,-3,-1,7,-1,0,-1,-1
83782975655,-2,-5,-1,0,-1,0,-1,-1
83782976467,-2,0,-4,-7,-3,-1,0,-1
83782976467,1,-1,1,1,-1,-1,1,1
83782990672,-1,-2,-2,0,0,-2,-1,-1
83782990672,-1,-1,-1,-3,1,0,-2,-1
83782991381,-1,-2,-2,-7,-4,0,0,0
83782991381,0,-2,2,10,1,-1,0,-1
83783013144,-3,-2,-2,2,-2,-3,-2,-1
83783013144,1,12,-1,-9,-2,-1,0,-1
83783013888,0,-9,1,-1,-1,-4,0,-2
83783013888,-2,-1,-1,-4,-2,0,-2,-2
83783035846,-2,0,-2,0,-3,-1,-1,-1
83783035846,-2,-2,-1,7,1,-1,-1,-1
83783036423,-1,6,-2,-8,-1,-1,-2,-1
83783036423,-1,-3,-1,7,0,-1,-1,-2
83783050732,0,-1,-1,-6,0,0,-1,-1
83783050732,-2,-7,0,-5,-1,-1,-1,0
83783051410,2,1,0,14,1,1,0,0
83783051410,0,-3,-1,-9,-2,-1,-2,-1
83783073095,-2,-1,-3,-1,-3,-3,-2,-3
83783073095,-4,-6,-2,-1,1,-1,0,-2
83783073910,-1,-1,-1,-5,1,1,3,0
83783073910,-8,-2,-3,-1,-2,-1,0,-1
83783095723,6,3,2,1,-2,-1,1,0
83783095723,0,-3,-1,0,0,0,-2,-2
83783096441,-4,-2,-1,6,-1,-2,-2,-3
83783096441,-3,-1,-1,-7,0,0,-1,-1
83783110733,-3,-3,-2,-7,-2,-2,0,-2
83783110733,-2,-3,1,7,-1,-1,-2,-2
83783111412,4,20,0,5,-1,0,-1,0
83783111412,0,-4,-1,-12,-2,-3,-2,-2
83783133119,-1,-1,1,-1,-1,-1,1,1
83783133119,0,0,-3,-1,-1,-1,-1,-1
83783133843,-3,-1,-1,0,1,-2,-1,0
83783133843,2,4,-2,-3,1,-1,0,-1
83783155596,-1,-2,0,2,-2,-1,-2,-1
83783155596,-2,0,1,-1,0,0,1,-2
83783156353,-4,-5,-1,-4,-1,-1,-1,-1
83783156353,3,0,1,1,1,0,-1,-1
83783170780,-1,-3,1,3,2,0,0,-1
83783170780,1,-2,-2,6,0,-1,0,-1
83783171388,-1,-5,0,-1,-2,-1,-1,-2
83783171388,1,0,0,3,1,-1,-1,-1
83783193154,11,-17,-4,-4,-3,-1,-2,-1
83783193154,-1,1,0,-1,-1,0,-2,-1
83783193943,-1,-3,-1,-6,-1,-1,0,-2
83783193943,-2,0,-1,4,-1,-1,-1,-2
83783216397,-3,3,-1,3,-1,-2,-1,0
83783216397,-4,-4,0,-1,-2,-1,-3,-2
83783217082,0,-5,-3,-5,-1,-1,-2,-2
83783217082,2,3,-1,2,0,-1,-2,-2
83783230670,-4,0,1,-9,1,0,0,-1
83783230670,-1,-2,-2,9,-3,-2,-3,-1
83783231435,-3,0,-1,0,-1,-1,-1,0
83783231435,-3,-1,-2,5,0,-3,0,-1
83783253099,-8,0,-4,-9,0,0,0,-2
83783253099,-1,-3,0,5,1,-1,-2,-2
83783253950,2,-2,0,-1,-2,-1,-1,0
83783253950,-1,-2,-3,-6,-3,0,0,-1
83783276560,-1,2,-1,-2,-2,-2,-1,-1
83783276560,0,17,1,-7,-1,0,1,-1
83783277172,2,-7,-3,3,-1,-1,-2,0
83783277172,-1,-1,0,-2,-2,0,0,1
83783290692,-3,4,-1,-1,0,-1,-2,0
83783290692,-1,0,-2,-8,-3,-1,0,-2
83783291399,-4,0,-1,-7,-2,-3,-2,-2
83783291399,-4,-5,-1,3,0,-2,-1,1
83783313314,16,4,2,3,0,0,-1,1
83783313314,-4,-7,-5,-1,-2,-2,2,-2
83783313892,-1,-1,0,-1,-1,-1,-1,-2
83783313892,3,-2,-1,-6,-2,-2,-1,0
83783343863,-28,-2,-5,0,-1,-1,-2,-5
83783343863,-1,-5,0,0,-2,0,-2,2
83783344593,-4,-1,-2,-8,-1,-1,-2,-2
83783344593,-1,2,-1,10,-2,-2,0,0
83783350715,0,-3,-3,1,-1,-2,0,-1
83783350715,-1,-5,0,-1,-2,-2,-2,-2
83783351467,-4,2,-2,-12,-2,-1,-1,-2
83783351467,-2,-3,1,8,0,-1,-5,-3
83783373178,1,-2,0,-5,-1,-2,-1,0
83783373178,0,15,3,3,0,0,1,-2
83783373957,4,-7,-2,6,-2,0,-2,0
83783373957,-1,-1,-2,-3,-2,-1,-1,-3
83783396255,2,1,0,0,-4,-2,-2,-3
83783396255,0,0,-1,0,0,-1,-1,-2
83783397069,-2,1,2,3,0,-3,-1,-1
83783397069,0,-1,-2,-6,0,1,1,-1
83783410692,-4,-2,-1,3,-1,0,-2,-1
83783410692,-11,-12,-4,-2,-1,-2,-3,-2
83783411359,1,3,0,-3,-1,-1,0,0
83783411359,-1,-4,-1,-2,-1,-1,0,0
83783433340,2,-1,-3,-11,-1,0,0,0
83783433340,-4,-7,-2,11,-1,-3,-2,0
83783433920,-1,-2,-2,0,0,-1,0,0
83783433920,-3,3,-3,0,-2,-1,-2,-1
83783456842,-1,12,2,-4,-2,1,-1,0
83783456842,4,-3,-3,-4,-3,-2,-1,-2
83783457645,11,-5,-3,3,-2,-1,0,-2
83783457645,5,3,4,-3,-2,1,1,3
83783470913,-2,-1,-2,-2,-2,-1,0,-2
83783470913,3,-2,0,-5,-1,-2,-2,-1
83783471508,1,-2,0,2,-1,-1,0,-2
83783471508,-3,2,-3,-3,-2,-2,-1,-2
83783493200,0,-4,-2,1,-1,-2,-2,2
83783493200,1,1,1,-4,0,-1,-2,1
83783493978,-7,-3,-3,-1,-1,-1,-1,-3
83783493978,-1,-2,0,-3,0,-1,0,0
83783516254,-1,-4,-3,0,-2,-1,-1,-2
83783516254,1,-3,0,1,-1,-2,-1,-1
83783517069,-12,-1,-1,0,-1,-1,-1,-1
83783517069,8,4,0,2,-2,0,-1,2
83783530591,3,6,1,-3,0,1,-1,-1
83783530591,-1,-18,-5,-4,-3,0,-1,0
83783531384,-4,0,0,-8,-1,0,-1,-1
83783531384,-5,0,-2,7,-1,-2,-1,-2
83783553081,0,-2,0,1,-2,-1,0,0
83783553081,1,3,-2,-5,-2,-2,-1,-1
83783553885,-1,1,-1,3,0,0,-1,-1
83783553885,-3,-8,-1,-6,-1,-2,-1,-1
83783576354,-1,-4,0,5,-3,-3,0,-1
83783576354,-3,1,-3,-1,0,0,-1,-1
83783577201,-1,-5,-3,-2,-1,-1,0,-2
83783577201,-2,2,0,-5,0,-2,-1,-1
83783590595,-2,-4,-3,0,0,-1,0,-1
83783590595,-2,2,-1,-1,0,-1,-1,-1
83783591359,0,3,-3,-1,0,-1,0,-3
83783591359,-6,-1,-3,-1,-2,0,-1,-2
83783613183,3,-26,-4,-3,-2,-1,-3,-3
83783613183,-1,1,1,-1,-1,-1,-1,0
83783613959,1,0,0,2,-1,-1,-1,0
83783613959,-4,-1,2,1,1,0,-1,-2
83783636317,-2,3,-3,-1,0,0,-1,0
83783636317,-2,0,-2,-4,0,0,-1,-2
83783637119,-1,-3,-1,6,-2,-2,-2,-2
83783637119,0,-4,-2,-3,-2,0,-3,-1
83783650202,-1,3,0,-8,0,-1,1,-2
83783650202,0,-1,-1,2,0,-1,-1,-2
83783658500,-2,4,0,1,-3,-4,-1,0
83783658500,-1,-4,-3,6,-1,-1,-1,-2
83783673127,0,1,-1,1,-1,-1,-3,1
83783673127,0,1,0,-4,-2,-1,0,1
83783673872,-2,0,0,-4,-2,-1,0,-1
83783673872,-2,4,-2,-2,-1,-3,-1,-3
