timestamp,emg1,emg2,emg3,emg4,emg5,emg6,emg7,emg8
85897984914,-12,-1,-1,0,-1,-3,-2,-3
85897984914,12,3,0,1,-1,-1,0,1
85897986494,4,-1,-2,-4,-3,0,-1,-1
85897986494,-3,-2,-2,-1,-1,-2,-1,-1
85897999890,2,2,-2,-1,-2,0,0,0
85897999890,-5,6,-1,-1,-2,-2,-1,0
85898001543,6,0,-1,-1,1,-1,-1,-1
85898001543,1,-13,-2,-1,0,0,-1,-1
85898014361,-4,-2,-2,-1,-1,0,-2,-3
85898014361,-5,-2,1,-1,0,-3,0,-2
85898020984,-1,-4,-3,-2,-1,0,-1,-2
85898020984,-3,2,1,-1,-2,0,-2,0
85898037403,0,-1,-2,-2,-2,-2,-2,0
85898037403,-1,-2,-2,-3,-1,-1,-1,-2
85898039010,-6,0,2,1,-2,-2,-1,0
85898039010,-2,-1,0,-2,0,0,-2,-2
85898059848,-6,-2,-1,1,-1,0,0,-3
85898059848,17,8,0,0,0,0,2,4
85898061449,-2,-3,-3,-1,-1,-4,1,0
85898061449,-2,1,-2,-2,-2,-2,-1,-3
85898074209,1,0,0,-2,-3,-1,-3,-1
85898074209,-9,-5,-4,-3,0,-2,-3,0
85898081028,2,-2,0,-3,-1,0,-2,-1
85898081028,-1,3,-1,0,0,0,0,0
85898097325,-1,-13,0,0,-1,-1,-1,-1
85898097325,-6,-4,-2,0,-2,-1,-1,-3
85898098950,0,1,-2,-1,-2,-2,-2,-1
85898098950,0,2,0,-3,-2,-2,0,-1
85898127355,-9,-5,-3,-3,-2,1,-2,1
85898127355,-2,-4,-1,-2,-1,-2,1,-1
85898128969,-8,0,-3,0,-2,-2,-1,-3
85898128969,0,-2,0,0,-1,-1,-3,1
85898134206,-7,-11,-1,-1,0,-3,0,-1
85898134206,-2,-3,-1,-1,-2,-1,0,2
85898141109,-3,-1,-1,-1,-1,-1,-1,-2
85898141109,10,1,-2,0,1,1,0,-2
85898157368,4,4,-1,0,-1,-1,-4,-1
85898157368,-5,-3,2,-2,0,0,0,-3
85898158960,3,-3,-2,1,-1,-1,-1,1
85898158960,-5,0,0,0,-3,-2,-2,-2
85898179889,4,0,-1,-1,0,-1,-1,0
85898179889,-4,-3,0,-1,-1,1,-3,-2
85898181480,0,4,-1,-2,-1,-2,-1,-2
85898181480,0,-4,-3,-1,0,-1,0,-2
85898194197,11,7,-3,-1,-1,-2,-2,0
85898194197,-9,-8,-2,-1,-2,0,-4,-1
85898201221,2,3,0,-1,0,-1,0,0
85898201221,-5,-1,-2,-1,-3,-1,-2,-1
85898217546,3,1,0,0,-2,-1,1,0
85898217546,-13,-2,-3,-3,0,-2,-1,-2
85898218970,-2,-5,-2,-2,-2,0,-2,-1
85898218970,-2,-1,1,0,0,-3,0,-3
85898240112,-1,1,0,-1,-2,0,-3,-2
85898240112,4,-2,-2,-3,-1,-2,-2,-1
85898241492,-9,-5,-1,1,1,0,0,-2
85898241492,-5,-2,-1,-1,-2,-2,-1,0
85898254229,6,-1,-3,-2,-2,-1,0,0
85898254229,2,-3,-2,-1,-1,-1,-1,-2
85898261047,2,3,-2,-1,-1,-2,-1,-1
85898261047,4,-1,-2,-2,0,-2,0,0
85898277343,-10,-7,0,0,-2,-1,-2,-2
85898277343,-6,-2,-2,0,0,-1,-3,-2
85898279026,4,-1,-1,-1,-1,-1,-1,-1
85898279026,-17,-17,-2,-3,-5,-2,-3,1
85898300336,1,5,1,0,0,0,0,-1
85898300336,2,-1,-1,-2,-2,-1,-1,-1
85898301945,-2,-6,-3,-2,-3,-1,-2,-1
85898301945,0,4,-2,-1,0,-1,0,-3
85898313508,-2,-1,1,-2,-1,-2,-2,-3
85898313508,1,-2,0,-2,-2,-2,0,-2
85898322528,0,-3,-1,-1,0,0,0,1
85898322528,3,1,-2,-1,-1,-1,-1,0
85898336435,0,4,-1,-1,0,-1,-1,-1
85898336435,16,6,-1,0,1,-1,0,-4
85898344991,10,5,-2,-1,-1,-2,-1,2
85898344991,-5,0,0,0,-2,-2,-1,-2
85898359874,-7,-3,-1,-2,0,-1,-1,-3
85898359874,-1,-1,-2,0,-2,-1,-1,1
85898361474,-1,-4,1,-3,-1,-2,-1,0
85898361474,5,4,0,0,0,-1,-2,0
85898373534,-2,-1,-2,-2,-3,-2,0,1
85898373534,-5,-1,-1,1,-1,0,-2,1
85898382553,-1,-1,0,0,-1,0,-1,-1
85898382553,-16,-7,-2,-2,0,-1,-3,-4
85898397381,2,3,1,0,-2,0,1,0
85898397381,-3,-3,-2,-1,-2,-1,-1,-2
85898398960,-1,-1,-1,-2,0,1,0,0
85898398960,0,5,-2,-1,-1,-1,-1,2
85898420131,-1,0,-2,-2,-2,-1,-2,-2
85898420131,-3,-2,0,0,-1,-1,-1,-2
85898421573,-3,-1,-1,-1,-2,-1,0,-2
85898421573,0,-2,-1,-1,-3,-3,-1,-2
85898433977,-1,-5,-2,-2,-1,-1,0,1
85898433977,-1,0,-2,0,-2,-2,-1,-2
85898442533,-4,-3,-1,-3,-2,-3,-2,-1
85898442533,5,3,2,0,-1,0,-1,-2
85898464924,-1,-3,0,1,-1,0,0,0
85898464924,-2,-2,-1,-2,-1,-1,-1,1
85898466458,0,-1,-2,0,-1,-2,-3,0
85898466458,-1,-1,-1,-1,1,0,0,-1
85898479812,3,-1,-3,-1,0,-3,-3,0
85898479812,-5,1,-1,-1,-2,-2,-2,-2
85898481432,-7,-6,-2,-2,-3,-1,-2,-1
85898481432,7,0,-1,-1,-1,-1,0,0
85898493788,-1,1,1,-1,1,-2,0,-1
85898493788,3,0,-1,0,0,-2,-2,2
85898502567,1,-2,-3,1,-2,-1,0,-3
85898502567,-10,-14,-2,-2,-2,0,-1,2
85898517375,-4,-4,-2,-1,-3,-2,-1,-2
85898517375,0,-2,0,0,-1,2,-1,-2
85898518989,2,3,-1,-2,-2,-2,1,-1
85898518989,2,1,-1,-2,-2,-2,-1,-1
85898539950,-11,-5,-5,-2,-1,-1,-2,-3
85898539950,-4,-3,-1,-2,-1,-1,0,-2
85898541506,-9,-7,1,0,-1,-2,-1,-3
85898541506,3,0,-2,1,-2,1,0,-1
85898553517,0,-2,-1,-2,-2,-1,-2,-3
85898553517,1,2,-1,-3,-2,-2,-3,-2
85898562547,5,1,-1,1,-1,-1,-4,1
85898562547,5,1,-2,-2,-1,-2,0,-4
85898577631,1,2,-1,0,0,-1,1,-2
85898577631,3,-2,-1,-1,-2,-2,-3,1
85898579059,0,0,-3,-2,-1,-2,-1,0
85898579059,1,4,-1,-2,1,-1,-2,1
85898600133,4,7,2,0,-2,0,-1,-1
85898600133,1,-1,0,-3,-1,0,0,0
85898601561,0,0,1,0,0,0,-1,-3
85898601561,-3,1,-3,0,1,1,-1,-4
85898613613,-2,-4,-3,-2,-2,-1,-1,-1
85898613613,-6,-5,-3,1,0,-1,-1,0
85898622543,2,0,-1,-1,-1,-1,-2,-3
85898622543,-6,-8,-2,-1,-4,-1,0,-3
85898637654,-8,0,-1,-1,-2,-1,-1,-2
85898637654,5,2,-1,-1,0,0,1,0
85898639022,1,-2,0,-1,-2,-2,-3,-1
85898639022,1,0,-1,-4,-3,-2,-2,-2
85898659896,6,-2,-2,-1,-1,-1,1,-1
85898659896,-17,4,0,-3,1,-1,-2,-2
85898661493,0,2,0,-1,-1,-1,-1,0
85898661493,0,-1,-1,0,-2,1,-1,0
85898673460,3,-2,0,0,0,0,-1,1
85898673460,2,-1,0,-2,-2,-3,-1,0
85898682583,-2,-14,-2,-2,0,-1,-1,0
85898682583,-3,2,-1,-1,1,-2,-2,1
85898697342,-3,-4,-2,0,-1,-1,-2,-1
85898697342,-1,-5,-2,-1,-2,-3,0,-3
85898698968,-3,2,-3,-4,-3,-1,-1,-2
85898698968,0,-2,4,3,0,-2,-2,-1
85898727475,-1,-3,-5,-11,-2,-2,0,2
85898727475,2,-1,0,1,-1,1,-1,-2
85898729045,-12,-2,-3,-3,-2,-2,-1,0
85898729045,0,0,-1,-1,-1,-3,-1,-1
85898742342,3,0,1,1,-2,-1,-1,0
85898742342,-32,-14,-6,-3,-3,-3,-4,-2
85898743984,3,5,1,0,-1,-1,-1,2
85898743984,4,10,-1,-2,1,-1,-1,6
85898757442,1,6,1,1,-2,0,-1,-1
85898757442,3,-2,-3,-3,-2,-1,-2,-2
85898758990,2,1,1,2,-2,-2,0,-1
85898758990,-2,-1,-2,-1,0,1,-1,-4
85898780098,9,0,-1,-2,-1,0,0,0
85898780098,4,2,-1,0,-1,-1,-1,-1
85898781585,4,3,0,-1,-1,-1,-1,-3
85898781585,3,1,-1,-3,-2,-1,-1,-4
85898802341,-5,-3,-1,0,2,1,-3,-1
85898802341,1,1,1,1,0,3,1,1
85898803974,-9,-7,-3,-5,-1,0,-2,-2
85898803974,5,4,4,-1,-4,-2,-2,-3
85898816893,-2,-1,-1,-2,-2,-3,0,-2
85898816893,1,2,1,-1,-3,-3,-1,2
85898823784,-2,2,-2,-1,-1,-3,-2,-1
85898823784,-3,-2,0,-3,-4,-1,-2,0
85898839907,-4,0,0,1,1,-3,-2,-1
85898839907,12,1,1,-2,0,-2,-1,2
85898841542,0,0,0,-2,1,0,0,1
85898841542,-4,4,0,-1,1,0,0,0
85898862648,-5,-3,-1,0,-1,-2,-4,-3
85898862648,-7,-3,-2,0,-1,-4,-1,-3
85898864044,9,3,-1,2,-2,0,-2,-4
85898864044,-7,-1,-3,-3,0,-1,1,-2
85898877011,-2,-2,-4,0,-1,1,3,-1
85898877011,5,1,-1,-3,-3,0,-1,0
85898883826,2,3,-1,-2,-2,-2,-3,-2
85898883826,4,-5,-1,0,2,0,1,2
85898899858,-3,-3,0,2,-2,-1,0,-2
85898899858,-2,-1,-2,2,-3,-2,-2,-4
85898901473,-1,-2,-1,-6,-3,-2,-2,-1
85898901473,-7,-8,-3,-3,-1,-3,-4,-2
85898922622,-4,-2,1,0,0,8,-1,-1
85898922622,1,-1,0,-1,-4,-15,2,0
85898924098,2,0,-4,-9,3,13,2,1
85898924098,5,-2,1,13,2,0,1,-1
85898935991,-10,-3,1,16,-10,-7,-8,-3
85898935991,3,2,0,0,12,-7,-7,-1
85898952505,-4,-3,-2,-5,-4,2,8,0
85898952505,8,7,-2,-24,-12,16,3,7
85898959786,7,-2,-1,-2,5,-13,-1,-1
85898959786,-10,-7,-2,9,2,28,-1,-1
85898961455,-5,-7,-2,-4,-5,-38,-9,-2
85898961455,11,13,-1,0,9,16,0,-1
85898982463,-4,8,5,-9,-7,-7,2,3
85898982463,10,0,-1,0,1,3,-7,-24
85898984022,6,-1,1,5,2,-11,1,22
85898984022,2,-6,-2,-5,-6,0,7,35
85898995968,0,-5,-11,-36,-20,-43,-15,-10
85898995968,0,1,2,4,22,44,15,-5
85899005018,-4,-4,0,4,6,20,7,-4
85899005018,11,-1,0,16,-14,-33,-17,-14
85899019898,-28,-17,-1,-3,16,36,5,6
85899019898,-5,-1,-1,27,8,-35,4,7
85899021468,-8,-3,-1,1,-3,24,-11,27
85899021468,-7,-3,2,15,8,-15,6,-12
85899042543,-2,1,-3,-2,-18,-15,-16,-51
85899042543,3,-1,-9,-16,-4,14,11,17
85899044111,-4,0,3,3,-15,3,-14,-6
85899044111,-12,-19,-2,0,10,-43,-9,-6
85899056244,11,10,9,9,7,-6,-13,-8
85899056244,7,0,0,-16,4,-2,11,9
85899065087,1,-2,1,-3,1,-8,-5,-15
85899065087,-26,-5,-5,-19,-38,5,-1,-11
85899079917,3,-4,-6,1,-9,-12,5,10
85899079917,-28,2,4,11,12,-1,-17,-42
85899081471,5,2,-3,-5,15,36,21,10
85899081471,40,7,3,3,0,12,-13,27
85899102424,45,-12,-19,-16,-16,10,19,29
85899102424,-65,-10,-4,-13,-40,30,-9,-30
85899103990,26,1,0,11,38,-70,0,-3
85899103990,14,4,5,-2,21,15,13,5
85899116269,46,18,11,11,3,14,20,52
85899116269,56,-3,-13,-17,-32,1,-18,68
85899125056,-74,-7,-1,2,-10,7,-6,-57
85899125056,10,3,-2,4,8,4,8,18
85899147465,-19,-8,-2,1,1,-7,-2,4
85899147465,32,0,3,2,-4,0,10,9
85899149038,12,0,-4,0,-10,-9,5,1
85899149038,-17,-18,-16,-5,-3,-17,-19,-14
85899162610,-22,1,6,4,8,9,0,-14
85899162610,-9,7,4,-2,0,10,7,-5
85899164055,16,-3,-4,-4,-4,-21,-11,11
85899164055,-21,-4,3,1,-2,-8,-12,-21
85899176285,-10,-5,-8,-7,-3,40,11,-14
85899176285,1,2,5,0,10,-30,-4,5
85899185146,5,-7,0,0,-5,4,12,14
85899185146,1,-2,-13,-13,-19,-8,-8,-5
85899199974,13,3,1,10,0,-3,-16,-21
85899199974,11,3,3,5,24,-7,11,12
85899201516,-25,4,-1,-10,-14,33,-19,-41
85899201516,8,5,-5,-8,9,-37,-1,7
85899222576,-2,-16,2,-6,-1,-16,-7,4
85899222576,9,-4,1,-5,-21,-47,5,13
85899224048,9,9,1,2,10,37,10,14
85899224048,-30,-6,1,-4,-16,22,-8,-47
85899236196,-18,-3,-7,-5,-5,-38,-3,-11
85899236196,20,3,-4,7,7,1,-7,8
85899245064,68,2,-4,-6,1,1,16,72
85899245064,-60,-12,4,3,3,12,-13,-69
85899259852,33,1,2,3,15,29,-4,9
85899259852,-48,-7,-5,-8,-14,-15,2,-26
85899261446,-3,-1,-7,-5,-26,-24,-6,-13
85899261446,5,-2,5,10,17,11,15,32
85899282642,3,5,4,5,18,4,-4,5
85899282642,-59,-15,-8,-13,2,8,-6,-36
85899284026,58,8,7,7,-4,20,14,43
85899284026,-10,-2,-14,-5,1,-13,-9,-27
85899296248,-53,4,6,2,-8,-2,0,-18
85899296248,39,5,-7,2,-8,-9,-10,25
85899305093,-22,-4,-1,2,11,4,-2,-32
85899305093,23,4,5,7,-1,13,12,29
85899319954,14,-4,1,-2,0,-17,-2,12
85899319954,6,8,4,3,-1,-2,-5,-14
85899321554,-6,2,-1,0,5,-18,-9,8
85899321554,9,4,-7,-10,-12,2,2,17
85899342633,-7,3,1,6,16,33,11,-6
85899342633,-3,-14,-5,-6,-5,3,3,14
85899344049,-12,-8,-12,-5,-8,-31,-12,-31
85899344049,15,48,8,-1,-8,24,11,18
85899356247,12,2,-3,7,-2,-7,-9,-13
85899356247,31,-22,-10,-11,2,4,10,20
85899365095,-47,-17,1,-3,2,5,-15,-83
85899365095,-15,-22,5,3,0,4,6,3
85899379889,15,0,-8,-5,-14,-22,-13,6
85899379889,13,11,-1,2,2,0,9,24
85899381468,-12,-7,4,6,15,20,3,-6
85899381468,22,-8,1,-6,0,8,6,7
85899402374,-20,106,8,4,2,-17,8,-5
85899402374,-6,-4,-2,-5,-5,-4,-13,-6
85899403986,-9,1,4,1,-3,1,1,13
85899403986,-11,-104,-2,-5,-1,-8,-4,-12
85899415992,18,-92,-4,-6,0,9,9,18
85899415992,-34,-62,7,10,3,-2,-11,-12
85899425046,14,-1,-5,-5,-8,-2,-2,-19
85899425046,9,29,3,6,3,-2,6,17
85899439198,5,8,-9,-6,-5,-3,-14,6
85899439198,-9,36,5,0,2,-4,3,-19
85899446018,-27,69,-1,-6,-15,-11,-10,2
85899446018,7,-91,6,-4,2,-3,2,34
85899462386,-53,-114,7,0,-1,5,6,-17
85899462386,27,-118,0,-4,-3,-6,-8,-8
85899463964,-4,-18,-1,13,7,-2,8,31
85899463964,15,86,-12,-7,7,6,-4,-19
85899476060,-36,82,4,-7,-20,-3,-1,-21
85899476060,7,55,-8,-3,5,4,-2,5
85899485021,-26,9,-1,-6,-3,-2,-2,-17
85899485021,11,45,7,9,-2,-9,9,9
85899500090,21,-2,-3,-2,7,0,-5,3
85899500090,-18,31,11,8,3,0,-2,-2
85899501571,3,-20,2,0,-14,-2,8,10
85899501571,-18,2,-1,2,4,-5,-16,-19
85899522444,-1,-13,-4,-2,1,1,4,17
85899522444,9,15,-10,-12,-21,0,2,12
85899524011,8,-6,-7,4,20,-2,4,4
85899524011,-12,-15,6,9,-12,-2,-5,-7
85899536042,-2,0,6,-9,5,1,1,20
85899536042,-27,12,8,-4,-3,-6,-4,4
85899545752,12,-3,-2,-7,-6,-7,-5,4
85899545752,14,3,-5,2,11,7,-1,-11
85899559230,-10,14,-12,0,-1,-3,-3,-7
85899559230,4,-7,-11,-6,-4,-5,-6,-43
85899566035,-1,-6,10,6,-2,-2,0,5
85899566035,-5,-6,5,-4,-5,-4,-1,17
85899582392,17,7,11,4,-1,2,5,11
85899582392,-24,15,-49,-15,-6,-6,-20,-48
85899584056,26,-2,21,4,0,1,11,44
85899584056,-4,5,-17,-13,0,-4,0,-20
85899606322,-10,-10,-10,-4,-6,-6,-4,36
85899606322,-4,12,6,2,11,2,3,-25
85899607889,2,0,-12,0,-19,-3,-5,21
85899607889,-28,-6,7,-3,-2,-3,3,95
85899619224,23,-8,-6,-15,-18,-10,-16,-61
85899619224,2,7,20,19,3,-1,10,16
85899626197,4,-12,-7,-9,-6,-8,-2,21
85899626197,-30,-12,-3,6,-1,-1,2,-14
85899642544,0,3,-4,5,-4,0,-7,-39
85899642544,16,-5,3,-6,-3,-4,2,12
85899644029,19,-19,-7,-5,2,1,2,-6
85899644029,-6,14,3,8,-1,-4,-18,-63
85899665107,-9,-3,2,-7,-12,-3,12,0
85899665107,30,4,6,13,10,-9,-4,18
85899666542,-55,-8,-6,-10,-2,10,-5,-34
85899666542,19,7,1,-10,-5,0,-5,-28
85899679467,-18,-25,-10,3,2,-9,2,56
85899679467,-4,0,14,-2,-6,13,-5,-8
85899686085,1,-6,-10,-26,-18,-6,0,-32
85899686085,-14,-1,0,2,29,8,21,71
85899702602,11,9,5,1,-21,-5,-39,6
85899702602,-10,-7,2,9,-1,4,35,-9
85899704143,-2,4,3,5,0,40,-1,-5
85899704143,16,6,-10,-6,-2,-34,0,-15
85899724934,-13,-3,-11,2,-1,8,13,-11
85899724934,8,7,-1,15,18,-35,-3,15
85899726535,25,9,-21,-1,19,-3,-19,31
85899726535,-51,-15,-8,-10,-16,20,5,-75
85899739151,5,-2,16,1,3,19,1,1
85899739151,9,-9,27,0,-24,-14,-10,14
85899746001,-8,-6,16,-6,5,-1,11,0
85899746001,7,2,7,5,-6,1,-12,25
85899762316,0,3,0,-1,0,-12,7,3
85899762316,-28,-1,-11,-7,2,14,-12,-30
85899763935,-3,-2,-3,15,12,-15,-4,3
85899763935,16,4,-8,-13,-9,11,0,2
85899784957,0,4,-6,-4,-1,-12,-3,-13
85899784957,3,0,-4,-2,5,9,0,13
85899786543,-5,1,5,-1,-10,-2,-3,-15
85899786543,10,-1,-13,-11,-7,-20,-6,-5
85899798533,-6,-6,4,9,11,7,9,-2
85899798533,9,8,-1,-5,-3,5,-3,17
85899807552,1,1,5,5,-1,-9,0,-12
85899807552,-26,-6,-5,0,-9,-4,-8,-10
85899822442,9,0,-14,-9,7,3,3,10
85899822442,-11,3,1,-1,-3,7,-6,-8
85899824021,0,3,1,-2,-7,-13,-9,-26
85899824021,22,4,3,0,3,2,0,8
85899844976,3,-1,3,2,4,10,9,4
85899844976,-17,-3,-10,-19,-18,-20,-5,2
85899846538,-6,-8,-1,5,0,-2,-2,1
85899846538,6,2,5,1,4,6,-2,7
85899858664,4,1,-6,-2,2,-3,-8,2
85899858664,-6,-5,0,-5,-10,5,1,1
85899867618,4,1,-5,-5,-4,-9,-5,3
85899867618,14,-1,2,-2,-6,-2,5,0
85899882383,-10,0,0,-6,-2,-15,-11,-8
85899882383,6,0,-4,2,14,23,12,14
85899883968,-6,-1,1,6,-3,-8,-1,0
85899883968,15,2,3,9,3,-2,-5,10
85899904894,8,5,0,0,-8,-2,0,-14
85899904894,-12,0,-5,-6,2,-2,-2,3
85899906446,-14,0,0,-3,1,1,5,5
85899906446,-4,4,-1,2,-3,4,6,-22
85899918518,8,0,-1,1,-4,-5,-1,13
85899918518,-4,0,0,3,4,6,4,8
85899927574,-1,-4,0,1,-2,2,-4,-9
85899927574,-17,-2,-8,-5,-2,-1,4,8
85899942361,-7,2,-1,4,3,-2,-3,-9
85899942361,9,-12,-3,2,8,-3,-4,-1
85899943993,2,2,1,-2,-11,0,1,0
85899943993,4,-1,3,-3,-5,-8,-1,4
85899965169,1,0,-3,2,3,5,0,3
85899965169,9,-2,2,-2,4,0,-4,-9
85899966491,0,4,5,9,10,-4,-1,3
85899966491,1,-3,0,-1,-4,-3,-1,6
85899978758,-11,0,8,7,1,1,-2,-28
85899978758,3,2,1,-9,-14,-6,-6,-4
85899987540,-2,-4,-2,-2,2,3,1,5
85899987540,7,3,1,-4,-3,0,-7,-7
85900002426,12,2,8,1,2,1,7,16
85900002426,-22,3,2,5,-4,-4,-5,-21
85900003992,13,-1,4,-5,-9,0,1,15
85900003992,-8,-5,-11,-6,7,4,-1,-11
85900024881,-6,-5,0,3,2,-1,2,8
85900024881,-7,-1,3,3,-2,-4,-5,-12
85900026504,0,0,-3,-6,1,-11,-9,-6
85900026504,-2,-5,-17,1,-3,2,7,9
85900038543,-11,-6,3,2,7,6,-3,-11
85900038543,19,10,11,8,0,-3,0,5
85900047544,-20,-24,-33,-27,-1,-1,-4,-5
85900047544,-1,6,13,7,1,-4,-6,-9
85900062401,4,6,-2,-1,-2,-2,-8,-36
85900062401,8,-11,-2,-3,-5,-1,7,39
85900063976,-7,-3,5,0,-2,-1,-2,-2
85900063976,6,3,-4,-7,1,3,3,-7
85900085096,-8,5,-3,-3,-3,2,9,45
85900085096,-15,4,7,17,4,0,-1,-69
85900086558,-11,-5,-15,-23,-7,-3,5,32
85900086558,-31,-18,-2,2,-3,-1,-8,-34
85900098621,-6,-3,-2,-7,-6,-4,-17,-54
85900098621,-28,-13,0,4,1,-4,-20,9
85900107506,-12,5,2,-5,0,1,28,-16
85900107506,-6,-7,5,-3,-11,-12,-20,-3
85900122349,-6,-3,-19,-14,6,9,-28,-58
85900122349,65,8,9,6,1,3,54,66
85900123919,-7,-11,-7,-5,-13,-14,-67,-30
85900123919,35,-10,3,10,1,-7,49,55
85900144883,-2,0,-1,-4,-11,-13,12,-10
85900144883,-13,2,-9,-15,-8,-4,-23,-6
85900151259,39,11,-6,2,13,40,40,89
85900151259,1,5,17,9,26,24,40,-19
85900158569,12,-1,11,9,-3,2,-23,37
85900158569,-25,-15,-23,-22,-35,-23,-27,-53
85900167557,2,7,7,9,1,-9,16,-2
85900167557,-25,-3,-4,8,-4,3,-38,-11
85900182661,8,1,-4,4,11,-5,57,31
85900182661,-7,5,-7,-7,15,-5,-25,4
85900184092,2,2,14,10,1,7,-27,-40
85900184092,8,3,4,-11,-9,-4,-4,0
85900204890,-4,-3,8,2,-7,-3,-11,-6
85900204890,7,-3,-3,-1,0,15,16,-1
85900206475,1,2,6,7,-2,-10,4,2
85900206475,1,-1,-8,4,8,-6,-14,-14
85900218632,6,-1,-3,-3,-8,1,9,14
85900218632,-5,-9,-4,-13,-7,1,-5,-1
85900227552,-8,2,6,16,16,0,2,-23
85900227552,5,4,-3,-5,-28,-12,-7,16
85900242398,-5,-4,0,3,5,3,-4,1
85900242398,7,3,-2,8,5,3,8,-6
85900244042,1,1,0,-9,-1,-9,-7,-16
85900244042,1,-2,-3,-6,-1,1,0,-2
85900265100,6,-1,2,-2,0,-2,1,15
85900265100,-18,-1,0,3,3,6,-1,-10
85900266593,3,-3,-4,-1,-9,-5,4,3
85900266593,-2,1,-4,-5,1,-2,-8,-5
85900279272,-13,-10,-11,-12,-3,-3,-1,-5
85900279272,0,-8,-4,2,-2,-5,2,12
85900287527,-1,-1,-1,-3,-4,0,-4,-16
85900287527,14,2,-4,-9,-4,-3,2,4
85900302349,-12,1,-2,-1,0,-6,-8,-4
85900302349,6,3,2,-5,2,7,8,8
85900303929,-7,0,4,7,3,-2,-6,-14
85900303929,5,2,1,2,1,3,-5,-1
85900325014,3,-11,-5,-6,-2,-4,6,16
85900325014,1,6,0,-6,-2,-17,-9,-7
85900326540,0,3,2,5,-1,20,8,-5
85900326540,0,0,0,-3,-2,-30,1,9
85900338667,-2,2,0,-3,4,17,-1,-3
85900338667,3,-9,0,4,0,3,6,1
85900347573,8,-4,-3,-8,-5,-7,-3,2
85900347573,-17,-1,-3,0,-1,9,-5,-7
85900362586,17,3,5,5,3,-4,-3,-1
85900362586,-1,1,0,-2,-3,2,1,-4
85900364092,6,-3,-5,-3,-6,3,-4,-1
85900364092,-3,-3,4,4,0,-17,-2,5
85900384903,9,4,-3,-5,2,4,1,0
85900384903,8,2,1,-2,1,6,-2,-4
85900386537,-7,-1,4,4,3,1,1,-1
85900386537,-4,-4,-6,-9,-6,-3,-3,-4
85900398602,-4,0,1,3,-6,-10,-7,-4
85900398602,0,-2,-4,-3,2,10,-1,-3
85900407535,-1,1,-2,0,-1,-14,0,1
85900407535,-9,0,-1,-1,4,16,-4,-9
85900421727,-7,-2,-1,-3,-2,-8,-3,-1
85900421727,-4,0,2,2,-3,-7,-3,-3
85900428479,-1,-6,-1,-4,-1,0,-1,-2
85900428479,1,4,-1,0,2,1,0,-3
85900444943,-1,0,0,0,-2,3,1,-3
85900444943,-2,1,-2,-1,0,-1,-3,-1
85900446475,-2,-4,-4,-5,-3,-4,-2,-2
85900446475,6,-2,-1,-1,1,5,3,0
85900468742,0,-2,0,3,-2,-4,0,-1
85900468742,-7,1,-5,-5,1,-1,-1,-1
85900470418,4,6,-1,-1,-2,-10,-5,-3
85900470418,-5,-3,0,0,-3,3,0,-1
85900481728,-1,-1,4,2,-1,1,-2,0
85900481728,-1,0,-2,-3,-3,-6,-1,-2
85900488505,0,0,-1,1,3,8,1,-1
85900488505,-1,3,2,3,0,0,-3,0
85900504871,2,2,-2,-3,1,-1,1,2
85900504871,2,0,-3,-5,-1,-2,-1,0
85900506474,-12,-1,0,2,-3,-8,-3,-2
85900506474,6,0,-2,0,-1,-1,-1,1
85900518545,-1,-1,-1,4,-2,7,0,-3
85900518545,-4,-3,-4,-5,-3,-17,-4,-1
85900527523,-2,1,0,2,-2,3,0,-2
85900527523,1,-5,-2,-6,2,5,1,0
85900541735,-4,-2,-4,-3,-3,-5,-3,-2
85900541735,1,-3,0,1,-4,-2,-3,0
85900548526,5,2,0,-3,1,1,0,1
85900548526,0,0,-1,-2,-2,1,-1,1
85900565128,-6,-1,-2,-4,-8,3,-3,-1
85900565128,3,1,1,1,4,-9,-2,2
85900566460,0,-2,-1,0,2,1,4,-3
85900566460,-3,-3,-3,-2,-4,2,-3,2
85900578552,5,1,4,1,0,-3,0,-4
85900578552,-3,-2,-4,0,-3,2,0,-3
85900587540,-4,-1,-3,-2,-5,-6,-3,0
85900587540,-5,-5,-3,-2,0,0,2,-1
85900601845,-5,0,2,1,2,-1,-2,-1
85900601845,2,-3,-3,2,-2,2,-1,0
85900608519,-1,-1,1,8,4,-1,-2,0
85900608519,0,2,3,27,-1,-1,-3,-2
85900624926,-1,-11,-24,-83,-20,-9,-4,-1
85900624926,2,1,5,7,2,6,-1,-1
85900626485,-5,-4,-3,-24,3,-5,2,2
85900626485,0,1,5,15,2,4,-1,-3
85900647358,-1,-2,0,9,-2,-1,2,0
85900647358,-2,-3,-5,61,4,-3,-3,-2
85900649032,-6,-5,-22,-18,-31,-9,-5,-3
85900649032,3,-3,0,91,-2,-12,-3,2
85900661713,-9,-4,4,22,8,15,0,-4
85900661713,0,8,10,0,14,-8,1,2
85900668523,4,4,13,71,10,4,-1,-1
85900668523,-2,-8,-15,-9,-12,-7,-3,-4
85900692418,-12,-9,1,18,3,-1,0,1
85900692418,6,0,-2,-44,-12,0,-1,0
85900694014,2,2,13,-6,14,3,2,-1
85900694014,-20,-14,-32,-89,-28,1,-6,-5
85900707444,-1,5,12,126,21,-15,-3,1
85900707444,-6,-5,-8,-17,-11,6,-1,-3
85900709012,0,-5,5,6,0,-2,-2,0
85900709012,2,4,5,16,4,6,1,1
85900721767,3,1,-6,-39,-9,-4,0,-4
85900721767,-6,-3,5,48,14,-1,1,-2
85900728553,4,-1,-12,-88,-17,5,-2,0
85900728553,2,3,8,30,14,-2,-1,-1
85900744925,3,3,0,-3,-4,1,-1,-2
85900744925,-3,-7,-4,40,-7,-4,-5,-1
85900746482,-7,0,-1,0,7,1,0,-1
85900746482,10,7,7,-13,4,-1,1,-1
85900767430,-6,-7,-7,-17,0,-2,-5,-1
85900767430,0,-1,-6,-50,-9,4,0,1
85900768959,-2,-2,0,48,6,-2,0,-1
85900768959,7,4,2,-80,-4,1,0,0
85900780987,2,-8,-1,-9,-6,-4,-1,1
85900780987,-3,-2,-3,-20,-3,1,-1,-5
85900789989,-8,-1,-2,1,-1,-4,-2,-5
85900789989,-8,1,5,12,8,1,1,-2
85900804854,2,6,-4,-42,-6,-1,1,-2
85900804854,-6,-2,1,-11,1,2,0,0
85900806486,18,3,-2,46,-1,-1,-1,-2
85900806486,-15,-3,3,-26,1,-1,0,-3
85900827407,-1,-1,-3,-2,-4,-3,-4,-2
85900827407,0,4,3,16,0,2,0,1
85900829077,-4,0,1,-15,-1,-1,-2,-2
85900829077,1,-5,-10,-28,-6,0,0,2
85900841056,4,1,5,29,4,-1,0,-1
85900841056,3,-1,2,0,0,-1,-1,-1
85900850049,-4,-14,-2,-30,-3,-2,-2,0
85900850049,1,-1,5,68,6,-2,-2,-1
85900864968,-3,-11,-4,-25,-5,-2,-1,-2
85900864968,4,0,0,-5,-1,1,0,1
85900866479,2,1,-1,5,1,-1,0,2
85900866479,-7,-2,0,30,-1,-3,-3,-2
85900894985,13,11,1,-1,3,3,1,0
85900894985,-10,7,-3,9,-4,-2,-2,-2
85900896525,5,2,0,5,-1,-5,-1,-2
85900896525,1,-3,-1,-8,-1,-1,0,1
85900910086,4,5,1,1,1,0,-1,-2
85900910086,-10,-4,1,1,3,1,-1,-3
85900911547,-12,-12,-2,21,-7,-3,-3,-1
85900911547,2,-9,3,19,3,0,-1,-1
85900924868,-4,1,-2,-18,-4,-1,-1,-1
85900924868,7,2,0,26,0,-2,-1,3
85900926469,10,6,1,-10,1,0,-1,1
85900926469,1,-1,-1,-10,-3,-3,0,-1
85900947502,-2,-7,-1,14,0,-1,-1,0
85900947502,4,-3,-1,-1,0,-1,-1,-3
85900949040,-7,-1,-3,-19,-2,-3,0,-4
85900949040,-1,5,-1,-27,-2,-1,0,-1
85900961045,-1,3,-6,-5,-5,-1,-1,1
85900961045,3,-5,-5,-35,-3,-2,-4,0
85900970049,-2,5,0,29,4,-1,-1,-3
85900970049,0,0,-2,-14,-7,-3,-1,0
85900983941,-7,2,2,21,4,1,-2,-1
85900983941,-2,-4,-3,-10,-1,0,0,-3
85900992561,-5,-3,-5,-25,-8,-2,-2,-1
85900992561,2,-1,-2,-5,-1,-1,-2,0
85901007366,2,6,-3,10,-3,-1,0,-4
85901007366,1,4,0,-7,-2,0,0,-1
85901008960,-2,1,2,5,-1,-1,-2,0
85901008960,10,7,-1,4,-1,-1,-2,-2
85901020989,2,-6,0,-10,-1,2,-1,1
85901020989,-4,-1,0,7,0,0,0,-1
85901037564,-3,-12,-2,4,-2,-1,-1,0
85901037564,1,0,-1,-4,-2,2,-2,-3
85901045145,6,-4,-3,2,0,0,-2,0
85901045145,7,-2,-3,4,-4,0,-1,-3
85901046564,6,3,-2,0,0,3,2,0
85901046564,-6,-4,-3,0,0,0,-2,-1
85901074908,1,-3,1,21,0,-2,1,0
85901074908,-6,-7,-4,-37,-6,-1,-3,-1
85901076420,-4,1,-2,18,-2,-3,-4,-2
85901076420,8,3,1,10,3,0,1,-4
85901089925,-4,-8,-2,-10,-1,-2,-1,4
85901089925,-1,0,0,14,1,-1,0,-1
85901091501,-6,2,-2,2,-3,-1,-1,0
85901091501,-5,0,-3,-45,-8,-2,-1,-2
85901104885,-1,-3,-4,10,0,0,-1,-2
85901104885,0,3,2,1,0,0,0,1
85901106450,-3,6,0,-12,-2,-4,-3,0
85901106450,-13,-9,-6,9,-2,-3,-2,-2
85901127605,-4,0,-3,-2,-3,-2,0,-4
85901127605,-6,13,-4,-17,-6,-3,-2,0
85901129003,1,0,1,-5,0,0,1,-2
85901129003,-4,-2,2,21,2,-2,-4,-1
85901141287,-2,7,-1,-4,-3,-2,-5,-1
85901141287,-1,-11,-2,5,0,-1,-1,0
85901156080,-3,-6,-3,-11,-1,-1,-1,-1
85901156080,3,5,1,5,0,0,1,-1
85901172519,-3,-2,-1,-7,-4,-2,-2,-2
85901172519,-1,-5,-1,7,4,-1,0,-4
85901174032,-3,-2,-3,-11,-6,-1,-2,-5
85901174032,-14,-3,-2,-11,-3,-4,-1,3
85901187441,-2,-2,3,-2,-3,-1,-1,-2
85901187441,2,-2,-2,10,-2,-2,-2,0
85901189070,7,8,-4,-14,-1,0,0,-2
85901189070,-4,-5,-2,6,3,1,-2,0
85901210173,-2,2,-2,-21,-2,-2,0,-1
85901210173,2,4,0,-5,-1,1,-2,0
85901211491,-12,2,1,23,2,-1,0,2
85901211491,-3,-19,1,5,-2,-2,-2,-3
85901225005,-5,2,-6,-4,-4,-1,0,-2
85901225005,6,-4,1,6,3,0,-1,-3
85901226692,-19,-11,-6,-19,-4,-1,-3,7
85901226692,12,7,4,10,1,0,1,-3
85901248084,1,-2,2,-1,1,0,-3,-4
85901248084,0,8,0,8,-2,-2,-3,-3
85901249544,-2,-4,-3,4,-1,-3,-3,-2
85901249544,2,2,-1,-6,0,0,1,-1
85901261067,-14,-5,-2,-2,-2,1,2,-25
85901261067,14,11,1,2,1,1,3,2
85901269993,-21,-15,1,-4,2,-1,1,24
85901269993,8,-4,-4,3,-5,-2,-2,-2
85901284839,13,14,4,2,3,1,5,28
85901284839,-11,-2,0,-3,-2,0,-2,-5
85901286426,10,-15,1,1,1,0,1,-13
85901286426,-2,4,-1,-3,1,0,-2,1
85901307462,-8,-5,-3,6,-3,-4,-5,6
85901307462,-12,-11,-3,-6,-3,-2,1,-29
85901309006,25,10,3,-7,-3,-1,1,-1
85901309006,-7,0,-5,5,-3,-3,-3,3
85901321048,-4,-8,-1,4,-3,-1,-5,-5
85901321048,9,-5,-2,-7,1,-1,0,11
85901330061,5,6,2,6,1,-1,-1,-7
85901330061,-2,0,-1,-23,-4,-2,1,-5
85901344847,-5,3,-1,-5,3,0,-1,-1
85901344847,-9,-20,-4,1,-2,-1,-4,5
85901346474,-10,0,-4,1,-3,-1,-2,-9
85901346474,-1,-1,-1,4,1,-3,-1,-1
85901367440,12,10,3,-1,1,-1,0,3
85901367440,-21,-7,0,-5,-5,-4,-3,-7
85901369066,15,3,-2,3,-2,-2,-2,-3
85901369066,-4,1,3,1,0,-1,-2,1
85901381063,-2,-9,0,1,0,0,-2,0
85901381063,-17,4,3,43,0,-1,0,3
85901390000,3,0,-9,-22,-3,-1,-2,-2
85901390000,-4,-1,2,0,0,2,1,1
85901404348,-9,-5,-3,-7,-4,-3,-3,-4
85901404348,8,1,1,0,2,1,-2,6
85901411250,-23,1,0,14,-1,-1,0,-1
85901411250,8,-9,-2,-4,-1,0,-2,-6
85901427591,-8,-5,-5,3,0,-1,-1,-2
85901427591,3,1,-4,-18,-3,-2,-1,2
85901429034,0,-2,2,-4,1,0,-1,-2
85901429034,-4,3,-3,-6,-2,0,-1,-3
85901441280,1,-2,-1,4,0,0,-2,-2
85901441280,7,0,-3,-12,-3,0,-1,3
85901450092,1,0,0,6,1,0,-2,0
85901450092,-1,3,0,5,-1,-3,-1,1
85901465106,2,-2,-4,-6,-2,-2,-1,1
85901465106,-1,0,0,0,-1,-2,0,-1
85901472479,8,0,-1,-1,0,0,0,1
85901472479,5,4,1,1,1,2,0,0
85901487408,-12,-8,-4,1,-2,-2,-3,-3
85901487408,-8,-10,-3,-14,-2,-1,-2,2
85901489030,7,-5,-1,6,-1,1,-1,-3
85901489030,1,-1,0,4,0,-2,-3,-1
85901501155,-8,-4,0,5,2,2,5,7
85901501155,17,0,0,1,2,-1,0,-1
85901510102,-7,1,0,1,-1,-2,-2,-3
85901510102,-3,-1,-1,9,2,0,-1,0
85901524192,0,-3,-3,0,-5,-1,-1,-2
85901524192,-9,-5,0,15,-1,-1,-3,-2
85901531035,-5,-1,-1,1,-2,-4,0,0
85901531035,11,3,-1,1,-1,1,-1,0
85901547600,3,7,1,1,-1,-1,-2,-2
85901547600,-2,2,-1,1,-1,-1,-1,1
85901549039,-2,6,-2,-10,-2,0,-3,-2
85901549039,-7,-2,-4,-4,-2,0,-1,-2
85901561242,-6,-5,-4,3,-1,-4,-4,-4
85901561242,7,7,-1,-10,-3,-1,1,-2
85901570040,-1,0,0,0,0,-1,1,-3
85901570040,-7,-7,-3,-8,-3,-2,-2,-1
85901584307,6,0,-1,11,2,1,1,-2
85901584307,-4,0,-4,-43,-8,-3,-1,1
85901591064,-3,-3,-2,9,1,0,-1,-2
85901591064,-2,1,1,2,0,-2,-2,1
85901607469,2,1,-1,-6,-3,-2,-3,-4
85901607469,3,1,-1,20,4,1,-2,1
85901609116,2,7,0,-10,-3,0,0,1
85901609116,-6,-2,-2,-6,-2,-2,-1,-1
85901629909,10,8,3,-9,3,2,3,0
85901629909,0,7,0,0,-2,-1,1,0
85901631496,0,-3,-3,-6,0,-1,-2,0
85901631496,-1,-1,-2,-7,-8,-2,-2,-3
85901644829,4,-3,-1,2,-1,-4,-2,0
85901644829,-4,1,-6,-18,-3,0,-2,-2
85901646494,-3,-6,0,16,-1,-1,0,0
85901646494,1,-7,-1,-2,1,-2,1,-1
85901667401,-6,-4,-3,0,-3,-1,-1,-1
85901667401,-4,0,2,5,-2,-3,0,1
85901668974,-2,-8,-2,-7,-1,0,-2,-2
85901668974,-2,5,2,-4,-1,0,-1,-1
85901697429,17,5,-1,-5,-5,-2,-2,1
85901697429,-2,-7,-2,5,0,0,-2,-3
85901699052,-1,-3,-1,-2,-1,-1,0,-1
85901699052,-5,-3,-1,5,-2,-1,1,1
85901704134,-4,-3,-3,-5,-1,-1,-3,-1
85901704134,-1,3,-1,6,-1,0,-2,-3
85901711063,-2,1,0,-20,-5,-1,-1,-2
85901711063,-1,-3,-1,7,-1,-1,-4,0
85901727569,-5,-1,-2,-8,-1,1,-1,-1
85901727569,-16,-5,-2,2,-3,-3,-1,-4
85901729004,1,-1,-1,4,-1,-3,-2,1
85901729004,-17,-5,-5,-9,-3,-2,0,-3
85901749878,-11,-27,-2,-4,-1,-1,-1,0
85901749878,0,1,-2,-6,-2,0,0,-1
85901751448,20,2,-1,-1,0,0,-1,1
85901751448,4,1,-3,0,1,0,-1,-2
85901764209,-2,4,-2,-11,-2,0,-2,-2
85901764209,-1,-2,-1,13,-1,-1,-1,0
85901770974,-3,-1,-1,1,0,-2,-2,2
85901770974,-4,3,-2,-14,-1,-2,-1,-4
85901787347,1,3,1,-2,-3,-1,1,1
85901787347,5,0,-4,-7,-2,-1,-2,-1
85901788947,-6,1,-1,4,-2,-2,0,-1
85901788947,5,1,1,2,-1,-1,-1,-2
85901809873,-5,-4,0,-2,2,1,-1,0
85901809873,-1,-5,0,-3,-2,-1,-1,-1
85901811470,1,-2,-2,8,2,0,0,-2
85901811470,-2,2,0,-10,-1,-1,0,1
85901832359,14,8,2,4,-1,0,1,1
85901832359,2,-2,0,2,-1,-1,-2,-2
85901833941,-5,-4,1,3,1,-1,-4,-2
85901833941,-12,-4,-3,0,-3,-1,-1,0
85901847326,-1,-12,-1,6,-1,1,0,-2
85901847326,0,-1,0,-6,-1,0,-1,-1
85901848933,-1,4,-3,5,-1,1,0,-2
85901848933,5,-8,-2,0,1,0,-3,-2
85901869848,-7,1,-1,-2,-3,-3,-1,-1
85901869848,1,3,0,11,0,0,1,0
85901871461,-9,-3,-4,-30,-7,-3,-3,-3
85901871461,3,1,-1,11,-1,-3,-3,2
85901884182,-5,-1,-1,-2,0,-1,0,-2
85901884182,6,-4,1,3,1,-1,0,0
85901898518,5,4,2,2,1,1,0,-1
85901898518,0,-3,-1,-2,-3,0,1,0
85901907332,0,4,-2,5,1,-2,-2,-2
85901907332,4,-11,-2,-7,0,0,-1,-1
85901908957,-3,-3,-1,-4,-3,-1,-1,2
85901908957,-2,-11,-2,1,1,-2,-2,-1
85901929884,-7,-1,1,11,-1,-2,-1,2
85901929884,-8,2,-3,-4,-1,-1,-2,-1
85901931489,-1,-4,2,-1,-2,-3,-2,-1
85901931489,4,1,-1,-4,-1,-2,0,-3
85901944203,0,0,-5,-4,-3,-2,-1,-1
85901944203,0,-1,-1,-1,-2,0,-1,2
85901950987,0,11,0,-2,-1,-1,0,-2
85901950987,5,4,0,5,1,0,0,2
85901967325,0,-1,-1,-8,-5,-2,-3,-2
85901967325,6,2,-1,-4,-1,0,0,-1
85901968950,22,4,1,7,3,1,3,-1
85901968950,-2,3,-3,1,-2,-2,-2,1
85901989139,-5,-7,-1,-11,-1,-1,-1,-3
85901989139,-4,-3,0,-5,-2,-2,-3,-1
85901989940,-6,-8,-4,-3,-1,-1,-2,1
85901989940,4,3,0,-1,-1,0,-1,-6
85902003527,-5,1,2,2,3,-1,3,5
85902003527,-3,0,0,-1,-1,-2,-2,-3
85902011849,-6,-4,0,10,1,-1,-1,0
85902011849,3,5,-1,-23,-2,0,0,-6
85902026819,-3,3,-3,11,0,-2,0,0
85902026819,-1,0,0,2,-3,1,3,-1
85902027466,1,9,-1,1,-1,-2,0,0
85902027466,-9,0,-2,5,-1,-2,-1,1
85902049219,-6,-3,-4,-13,-4,-2,-2,-3
85902049219,-6,-2,-1,-4,0,-1,-1,1
85902049929,4,0,-2,2,-1,1,-3,-3
85902049929,0,-3,0,6,0,0,-1,1
85902063516,-2,8,0,0,0,-1,-4,0
85902063516,4,1,0,1,0,-2,-1,0
85902071730,-20,-7,-3,-4,-2,-1,-4,-1
85902071730,-3,-3,-1,-1,-2,-1,-2,-2
85902086736,4,1,-1,0,0,-2,1,-3
85902086736,0,-2,-1,-3,-2,1,-2,-2
85902087462,0,-4,-1,-1,-2,-1,-1,0
85902087462,0,1,-2,-5,-2,0,-1,1
85902109180,3,2,1,3,-1,-1,-1,-2
85902109180,0,4,-4,4,-1,-3,-3,-2
85902110037,-1,1,0,-12,-1,-1,-1,1
85902110037,14,1,1,21,-1,-2,1,1
85902123545,6,1,1,-5,0,0,-2,-2
85902123545,-2,-1,-2,1,-1,-3,-2,-1
85902131839,-4,0,-2,-8,-3,-2,-1,-3
85902131839,2,-4,0,-2,-1,1,-1,0
85902146702,-1,-3,1,-2,-2,0,-3,1
85902146702,4,0,-2,-7,-2,-2,-2,-1
85902147421,-1,-4,-2,6,-1,-1,0,-2
85902147421,2,0,1,-4,0,-4,-3,-2
85902169163,-3,-19,0,0,-3,-1,-1,-1
85902169163,-13,-2,-2,-6,-1,-1,-2,0
85902170002,-3,-5,0,2,-1,-1,-1,-3
85902170002,2,4,-2,1,-1,0,-1,1
85902183461,-3,7,-1,-4,-1,1,0,-2
85902183461,0,-2,0,0,1,0,2,1
85902191737,17,6,2,4,2,-1,-1,-2
85902191737,-6,-4,0,-10,-3,-1,-2,0
85902206727,-10,-1,-2,4,-1,0,-1,-1
85902206727,-1,-1,0,-1,-1,-1,-1,0
85902207381,-3,-4,-3,-1,-3,0,0,0
85902207381,-5,0,-2,-2,1,-2,-2,-1
85902229149,5,4,-4,-3,-2,-3,-2,-2
85902229149,4,4,-1,3,0,-2,-1,-1
85902229927,-11,-1,0,0,-2,0,-1,-1
85902229927,-4,-1,-2,0,-1,-1,-2,-2
85902243467,3,4,-1,-13,-1,-2,-1,1
85902243467,-2,-4,-2,5,0,2,1,1
85902251730,-3,-1,0,-11,-1,-1,-1,-5
85902251730,0,3,0,1,0,-1,1,-1
85902266624,-4,-2,-2,-2,-3,-2,-1,-1
85902266624,-1,-5,-2,0,0,-1,0,-3
85902267460,0,-6,0,-2,-2,-1,-2,0
85902267460,3,2,-1,0,-1,-1,-2,1
85902289118,-5,0,-2,-1,0,-1,-1,-2
85902289118,0,-2,-1,-3,-3,0,-3,0
85902289890,0,-4,-3,0,-2,-1,0,-1
85902289890,-6,5,-1,1,-1,-1,0,-4
85902303466,8,2,-1,2,-1,-1,-3,1
85902303466,-2,2,0,-4,-1,-2,-2,0
85902319219,-5,-5,-3,-3,-1,0,-2,-1
85902319219,0,6,0,0,0,1,1,-1
85902326654,0,-1,-1,-2,0,-2,2,-2
85902326654,-5,-3,-2,-2,-2,-2,-1,-2
85902327438,-1,3,-2,1,-1,-3,-2,0
85902327438,-2,-4,-2,-3,-4,-2,-1,-1
85902349096,-2,-5,0,3,2,1,-2,-2
85902349096,-1,-2,1,-2,-1,-3,-1,1
85902349932,-6,-2,-2,-1,-1,-2,-1,-1
85902349932,-4,4,0,-1,0,-3,-1,-4
85902363491,-21,2,-2,-1,-3,-2,-2,-6
85902363491,8,-2,-2,-3,-2,-2,-2,-1
85902371741,-13,1,-1,1,0,-2,0,1
85902371741,-4,-4,-2,-1,-2,0,-1,-2
85902386637,1,-3,1,-2,-1,0,-1,-1
85902386637,2,1,-2,-1,-1,-2,-2,-3
85902387420,1,0,1,0,-2,0,-1,-1
85902387420,-1,-7,-2,-1,0,-1,-2,-1
85902409173,2,1,-3,-7,-2,-2,0,-2
85902409173,2,-12,-3,2,-1,-1,-1,0
85902409937,1,-1,0,-1,1,-1,0,0
85902409937,-3,-5,0,4,-3,-1,0,-3
85902423468,4,-3,-1,-1,0,0,2,-1
85902423468,-5,3,1,-4,0,-2,-2,-2
85902431731,2,-3,-2,1,-1,0,-3,0
85902431731,-1,9,-1,-2,0,0,0,0
85902446736,-8,1,-1,0,1,0,-1,0
85902446736,5,8,0,2,0,-1,-1,-3
85902447481,3,-3,-4,-4,-3,0,-1,-2
85902447481,5,-1,-1,0,0,-1,-1,1
85902469192,-13,-6,-1,1,-4,-2,-3,-1
85902469192,-5,0,0,-4,-3,1,0,-1
85902469993,6,4,0,2,-2,-1,-1,-1
85902469993,2,-2,-1,-4,-2,0,-1,-1
85902483549,3,-3,-1,-2,-1,0,-3,-1
85902483549,-3,-1,-3,-1,0,0,-1,0
85902491734,-11,-5,-1,-5,0,-1,0,-4
85902491734,2,2,-2,1,-2,-2,-2,1
85902506719,6,-1,0,1,2,-1,0,1
85902506719,-10,2,0,-5,0,-1,0,-4
85902507501,4,-1,-1,2,-3,0,0,0
85902507501,-15,-6,-4,-1,-2,-3,-2,-2
85902529238,5,3,2,-4,-3,0,-2,-2
85902529238,0,0,-1,1,-2,-1,-2,-2
85902529962,-1,0,-2,-3,-1,-1,-1,-3
85902529962,-6,-9,-2,-4,-1,-1,-1,-3
85902552356,1,1,0,3,0,-2,0,2
85902552356,7,-5,-2,-3,-2,-2,-2,-1
85902553174,2,0,0,1,-3,-2,-2,-1
85902553174,1,-3,-2,1,0,0,-1,-1
85902566631,3,-8,1,-8,-2,-3,-2,-3
85902566631,6,1,-3,-4,-1,-2,-2,2
85902567474,-3,0,0,0,-1,-3,-2,-2
85902567474,1,-6,1,-1,0,0,-1,1
85902589152,-1,0,-1,2,0,0,0,1
85902589152,-6,-1,-2,0,-1,-1,-1,-1
85902589903,-4,-9,-1,-5,-2,-1,0,0
85902589903,16,0,0,2,0,-1,-1,-2
85902612372,-3,-1,-2,4,0,-1,-1,0
85902612372,-5,0,-2,-2,-3,0,-2,-2
85902613162,-3,-2,-1,1,-2,-2,-3,-1
85902613162,4,2,-2,-8,-1,-1,-1,0
85902634907,6,-1,-1,0,-3,-3,0,0
85902634907,5,3,3,3,1,0,2,1
85902635714,-1,2,-2,-1,-2,-2,-2,-1
85902635714,-4,-3,-3,-1,-1,-3,-1,1
85902657336,1,-2,-1,-2,0,1,0,-1
85902657336,-4,-2,1,4,-1,-2,-2,-1
85902658096,1,-1,-3,-9,0,1,1,-1
85902658096,-7,-14,-1,1,0,-1,1,0
85902672326,-13,-3,-3,-2,-3,-2,-2,-2
85902672326,-6,-1,0,-2,0,0,-1,-1
85902673098,-4,2,-1,2,2,-2,1,0
85902673098,-2,-6,-2,-3,-1,-1,-2,-3
85902686725,-5,-2,0,0,-3,-2,-1,1
85902686725,0,-3,-1,-6,0,0,-1,-1
85902687426,3,3,1,12,-2,-1,-3,-2
85902687426,-5,11,-3,-7,-1,-1,-1,0
85902709166,-6,-4,-1,0,-2,0,0,-1
85902709166,0,-1,-1,1,-2,-2,0,-2
85902709949,3,-2,-4,-11,-1,0,-1,-1
85902709949,0,3,-1,9,0,1,0,-2
85902732396,-2,0,-2,1,-1,-1,-1,0
85902732396,3,1,-2,-1,-3,-1,1,0
85902733165,-7,-2,-1,-2,-3,1,-3,-2
85902733165,12,-5,1,0,1,0,0,2
85902746683,3,-1,0,-1,0,-2,-1,0
85902746683,-4,-1,-2,-1,1,-1,-2,-3
85902747451,8,2,-1,1,1,-2,1,-1
85902747451,-7,-1,-1,-3,-4,-4,-3,-3
85902769116,0,-1,0,1,-2,-1,-1,-2
85902769116,-4,-2,-2,-5,0,-2,-3,0
85902769923,-4,-5,-2,0,-1,1,-1,1
85902769923,-9,-7,-2,-3,-3,0,-3,-2
85902792328,-6,-1,-2,-2,0,0,0,-3
85902792328,-1,-3,-1,2,-1,-2,0,-1
85902793137,-1,0,1,-2,0,-2,-1,-1
85902793137,-6,0,-1,0,-3,-1,0,-1
85902806735,3,7,1,-5,-1,-2,-2,0
85902806735,-4,-3,-1,1,0,0,-3,-2
85902807455,-7,-12,-2,0,-1,-1,0,-1
85902807455,3,0,0,-1,-1,-1,-1,-1
85902829235,-4,-17,0,-4,-1,0,-1,-1
85902829235,-7,-4,0,4,-2,-2,-3,-3
85902829969,1,2,-4,-10,-3,-3,-1,-3
85902829969,0,-2,0,2,-2,-2,-1,-1
85902852373,13,1,-3,-2,1,-1,1,-1
85902852373,4,5,3,1,0,1,1,2
85902853179,-2,-3,-2,1,-1,0,0,-1
85902853179,13,6,2,-2,0,-1,2,-1
85902866621,-6,0,-2,2,-2,-2,-2,-4
85902866621,-4,-6,-4,-4,-3,-2,-1,-1
85902867485,-1,4,-1,-6,1,-1,0,-2
85902867485,-8,-3,0,6,1,-1,-1,-1
85902889156,-1,1,-2,1,0,0,0,-2
85902889156,3,0,-3,-4,-1,1,0,-3
85902889941,-3,-3,0,-1,-1,-1,-3,-1
85902889941,-5,-3,-2,-4,-1,-1,-1,-3
