timestamp,emg1,emg2,emg3,emg4,emg5,emg6,emg7,emg8
83995532847,-12,-24,-3,-4,-2,-1,1,-21
83995532847,4,8,1,2,0,0,2,9
83995534460,1,-1,-4,-1,-1,-1,-10,-18
83995534460,-8,-13,-3,-2,-3,-2,7,8
83995555314,-10,2,-4,-2,-3,-1,-3,-12
83995555314,-3,1,-2,0,-2,0,0,14
83995556924,1,-3,-4,-5,-2,0,-1,-17
83995556924,17,17,1,0,-3,-1,1,16
83995569682,15,-4,2,-5,-1,-2,-12,18
83995569682,-5,10,3,0,1,-1,12,5
83995576508,0,0,-2,5,1,0,-1,3
83995576508,-1,1,4,-3,0,-2,-3,-5
83995592855,-2,9,-4,-4,-2,-2,-2,-29
83995592855,16,-34,-8,-8,-3,0,-4,5
83995594467,-8,-22,0,5,2,-1,0,0
83995594467,-5,-3,-2,-1,0,-2,1,-5
83995615312,2,6,0,-2,-2,-3,0,-36
83995615312,-20,-4,-4,-1,-2,-2,-2,6
83995616919,-13,8,-1,1,-4,-1,1,-5
83995616919,0,-8,-2,-4,-1,0,-6,-14
83995629698,-6,2,-2,2,-1,0,5,-29
83995629698,12,5,2,1,1,0,-1,1
83995636531,9,-4,-2,-6,-3,-1,-2,-5
83995636531,10,6,1,4,2,1,-5,-1
83995652890,-8,-20,-4,1,-2,-1,7,4
83995652890,14,25,0,0,-1,-1,-2,-29
83995654574,-17,8,2,1,1,-1,4,28
83995654574,2,-13,-5,-4,-3,-2,-5,-16
83995675584,-2,6,0,-2,0,-1,0,13
83995675584,-1,-1,-1,-2,-2,-3,-6,-25
83995677010,-2,0,-1,-2,-3,-2,-2,2
83995677010,-5,3,-2,0,-2,-1,-1,-1
83995689853,-9,27,3,-5,0,0,2,21
83995689853,-10,-7,-2,0,-1,-2,-6,6
83995696503,14,9,-1,2,0,0,6,38
83995696503,-11,-8,0,-2,-2,-3,-3,-11
83995712855,3,13,-4,-2,-4,0,-4,-10
83995712855,18,3,-1,2,1,1,-3,11
83995714449,-4,-7,0,-5,0,2,2,-10
83995714449,-14,-1,-4,-2,-3,-1,5,26
83995735424,-12,-4,1,5,1,-2,-7,4
83995735424,-23,-5,-2,-3,0,-2,-2,-6
83995737079,-6,-24,-5,-2,0,-3,-5,-45
83995737079,-19,4,2,-1,1,1,1,-1
83995749807,-4,-4,2,1,1,0,1,-2
83995749807,1,-10,-2,0,-2,-2,-5,1
83995756598,-7,5,-1,2,-2,-3,-3,-26
83995756598,-1,-4,0,-7,-2,0,-2,-14
83995773055,-2,-6,0,3,-1,-1,-1,8
83995773055,7,2,-5,-1,1,1,4,10
83995774495,17,-15,-3,-4,-3,-2,0,27
83995774495,1,-1,-1,-4,-3,-2,-1,-9
83995795416,3,4,-1,-1,-2,-3,-6,-4
83995795416,-4,0,2,0,-3,-1,0,2
83995796980,-6,13,2,3,2,0,4,-11
83995796980,2,-11,-5,0,-1,-1,1,22
83995808936,-14,-2,-8,-6,-2,-2,-4,-21
83995808936,5,5,5,2,0,0,-3,5
83995818016,-7,8,0,-5,-3,-3,-8,10
83995818016,-4,-8,0,5,1,-2,2,-13
83995832958,12,5,-5,-11,-2,-1,2,-6
83995832958,-4,-3,-2,-4,-1,-2,-1,0
83995834534,-2,0,-3,0,-1,-1,-1,20
83995834534,16,16,0,3,1,-1,-2,-4
83995855359,-12,-4,2,2,0,1,1,9
83995855359,-5,-8,-1,-2,-1,-2,0,-9
83995857007,0,5,-3,-7,-2,-2,0,-8
83995857007,0,0,-1,2,-1,-1,-1,-8
83995869012,7,-6,2,2,0,0,2,9
83995869012,-15,-3,-2,-5,-2,-2,-10,-16
83995878024,-2,1,1,8,1,1,6,-4
83995878024,10,17,1,-4,-1,-2,4,-9
83995892900,-6,-4,0,1,1,0,4,63
83995892900,-8,-3,-4,-4,-1,-2,-4,-14
83995894441,-20,-8,-4,-3,-3,-2,-7,-11
83995894441,-1,-5,0,-1,0,1,-3,-7
83995915389,-2,-20,-5,-3,-2,-1,-2,12
83995915389,-9,-3,-2,-1,-1,-2,0,3
83995917206,2,4,2,-2,-1,-1,-5,6
83995917206,-5,-1,0,0,1,0,3,8
83995938130,8,7,3,-3,-2,-2,-1,-17
83995938130,12,-5,-4,-4,-2,-3,1,3
83995939518,6,-1,-2,-5,-1,0,0,-2
83995939518,-20,12,-1,-3,-1,-1,-7,-15
83995953102,7,-1,0,5,-2,-3,-1,-11
83995953102,1,2,1,-5,0,0,2,-3
83995954536,17,8,2,7,0,0,-2,-5
83995954536,-2,-1,0,-1,-1,-1,-2,1
83995975504,-2,1,-2,-1,0,-1,-2,-8
83995975504,-6,-6,-6,-4,-3,-2,0,7
83995977038,0,0,0,-4,0,0,-1,0
83995977038,6,-3,-3,-3,-1,-2,-1,2
83995989282,-7,-14,1,-1,0,0,-2,-12
83995989282,-7,-4,-2,-1,-2,-3,1,-9
83995998096,1,-1,1,0,1,-1,0,3
83995998096,3,-4,-1,-3,-1,-1,-2,2
83996013061,-5,5,1,-2,-1,-1,-3,-11
83996013061,0,6,4,1,3,1,-1,2
83996014830,-1,8,-1,-2,-3,-1,-1,1
83996014830,5,-4,-1,10,-3,-1,-1,1
83996035463,0,5,3,1,0,-1,-2,1
83996035463,-1,-4,-2,-5,-4,2,0,0
83996037021,-1,1,0,-2,1,-1,-1,5
83996037021,-2,-6,2,0,-1,0,-1,-6
83996049243,-4,-1,-3,-1,-1,0,0,-4
83996049243,1,6,1,3,-1,0,1,-1
83996058147,2,-3,-2,-4,1,0,-1,0
83996058147,-2,-3,-3,0,-1,0,-2,1
83996073126,0,-2,0,-1,-1,-1,0,-2
83996073126,0,-1,0,-1,-2,-1,-1,2
83996074484,-3,-4,-4,-4,-5,-3,-2,-4
83996074484,0,-5,-1,-2,-2,-1,-2,0
83996095511,-5,13,-4,-2,-1,-1,-7,-16
83996095511,-1,2,4,3,-2,-2,2,6
83996097059,0,-28,-4,-2,-1,0,0,-2
83996097059,-1,0,0,-2,-3,-1,5,1
83996109246,7,5,0,-2,0,0,2,0
83996109246,-11,-29,-2,-1,0,-3,-5,-8
83996118080,-19,3,-5,0,-2,-1,-6,-2
83996118080,-1,-2,-4,-9,-1,-2,0,-1
83996133040,-12,-12,-3,4,-2,-1,-1,-3
83996133040,4,6,0,3,-1,-1,-2,3
83996134490,6,3,0,1,0,-1,2,0
83996134490,1,-7,-2,-9,-4,-2,-2,-2
83996155422,6,-4,1,2,-2,-1,-1,1
83996155422,0,8,-3,-1,0,-1,-2,-7
83996157032,9,6,2,0,-1,-1,-3,-3
83996157032,0,28,1,3,2,0,-2,1
83996169248,3,3,2,-1,-1,-1,1,-5
83996169248,-1,-14,-1,-2,-1,-2,0,-5
83996178085,-8,-4,0,-5,-2,0,1,-4
83996178085,-12,1,-1,2,1,-1,-1,3
83996193100,-10,4,-2,-8,-3,-3,0,-6
83996193100,2,7,-2,-1,0,1,0,-2
83996194554,-1,13,4,0,1,-1,3,10
83996194554,2,-12,1,3,1,-2,-3,-6
83996215643,4,-3,-1,-2,1,0,-1,0
83996215643,-2,4,2,0,0,0,-1,1
83996216986,-4,-24,-2,0,-3,-3,-3,-4
83996216986,1,-5,-6,-3,-2,-2,0,0
83996238167,-5,-6,-7,-2,0,-1,-1,2
83996238167,4,-1,-2,-2,-1,-2,2,1
83996239559,2,6,-3,0,-2,-1,-1,-3
83996239559,-3,-7,-1,0,0,1,-2,-2
83996252887,-4,-8,-2,-3,-1,-2,-1,0
83996252887,-1,0,-1,-1,-3,-1,-1,0
83996254481,13,0,1,5,-2,-2,-1,-2
83996254481,3,0,1,-6,-4,-2,-1,1
83996275534,0,3,-3,3,-2,0,-1,1
83996275534,-12,26,4,0,1,-7,-1,2
83996277013,18,2,0,-3,1,4,-4,1
83996277013,-5,-15,-5,3,0,-2,-2,-5
83996298098,0,1,2,-2,-2,2,1,2
83996298098,2,-3,-7,-10,-5,-5,-2,-3
83996299549,-24,-20,-2,6,-2,-3,-5,-7
83996299549,1,0,-1,-2,4,7,2,8
83996312394,16,-4,-1,-5,-2,-1,-2,1
83996312394,-2,-7,0,5,-2,-3,-2,-3
83996319269,-2,6,0,5,1,-2,1,-1
83996319269,2,-2,-3,-7,-2,0,-2,-1
83996335387,-8,-4,0,-2,-2,-1,1,-1
83996335387,4,0,-1,-4,0,4,-2,1
83996336935,1,4,-3,3,-2,-2,-2,-6
83996336935,2,8,1,6,-4,-8,1,-1
83996357935,1,-15,-1,9,4,-9,-3,-3
83996357935,-6,-8,-3,1,-2,3,-6,-2
83996359533,-5,3,-4,4,-4,-1,1,-1
83996359533,-4,-3,1,8,7,3,1,-4
83996371554,-6,6,-2,-8,-3,9,-5,-6
83996371554,-7,-6,-4,6,0,-2,-1,10
83996380584,-3,-1,0,-6,-1,-1,11,6
83996380584,-2,-1,1,-1,-5,-4,6,2
83996395576,-6,16,0,3,1,-9,-2,-6
83996395576,-29,-4,-3,-7,-1,10,-6,-8
83996396992,6,6,1,-9,-3,-17,-6,0
83996396992,8,-16,-1,-2,-1,2,0,-1
83996418128,-5,5,-1,-5,1,-1,-1,-1
83996418128,7,-4,-1,-1,0,3,2,-2
83996419497,3,0,-3,-4,0,2,0,2
83996419497,-9,1,-4,-1,-5,-1,-3,-11
83996431600,-2,-7,-3,-9,-5,-13,-4,4
83996431600,10,-1,1,13,6,1,1,-1
83996440630,-2,-2,-1,-22,-2,5,-3,-2
83996440630,7,4,-1,-2,0,6,5,3
83996455619,1,-1,-1,4,-5,-1,-4,5
83996455619,3,0,-1,-4,-6,-15,-6,-5
83996457036,-6,1,-1,2,2,-4,-8,-8
83996457036,-3,2,0,-5,2,14,17,-1
83996477933,4,1,3,2,3,9,-5,4
83996477933,0,0,1,-2,-4,-14,6,-4
83996479494,5,12,2,6,1,-1,-11,-2
83996479494,1,2,2,-1,0,0,-14,-13
83996491760,6,-5,-4,-3,-1,7,14,32
83996491760,-2,7,4,-4,-1,2,3,2
83996500535,-4,-2,-8,-11,-6,-3,-1,6
83996500535,-2,13,-1,8,-5,-8,-14,3
83996515392,-1,-1,-3,8,-8,-32,-8,-9
83996515392,-5,-1,-7,-21,-7,1,-1,-13
83996517041,0,-7,-1,-7,0,11,12,11
83996517041,-3,1,0,-4,2,4,8,-1
83996537986,-1,-4,0,0,5,7,0,-7
83996537986,1,-2,1,17,-1,-9,-6,-3
83996539522,3,2,2,6,3,4,2,-13
83996539522,0,-8,-4,-6,-3,-15,-13,-2
83996551776,-6,-3,-4,-16,-15,-6,-13,-15
83996551776,4,-3,-4,-15,4,-2,14,18
83996560535,-10,-2,1,5,-3,20,7,-3
83996560535,0,-1,2,19,3,-11,-17,1
83996575646,-4,-2,1,-2,3,17,9,-10
83996575646,0,0,-1,-11,-4,7,13,-3
83996577013,-1,-6,-1,8,1,-32,-18,-13
83996577013,4,0,3,-3,2,-6,-6,-1
83996598133,-3,-2,-3,-9,-4,10,-1,-1
83996598133,8,-6,1,2,-9,-13,1,20
83996599591,9,9,6,1,9,22,14,-2
83996599591,1,-4,-3,3,-6,-2,5,0
83996611679,-1,-2,1,-2,-2,-10,-15,-7
83996611679,4,-1,-8,11,17,16,-5,-10
83996620582,-4,-6,-6,-11,-29,-30,-24,-13
83996620582,2,-1,-4,-9,0,-27,10,25
83996635466,3,-1,1,-7,-10,2,28,11
83996635466,-1,-22,-8,23,5,22,-25,10
83996637003,1,1,-1,-19,6,-2,-9,9
83996637003,-10,-2,-5,-6,2,14,-3,-35
83996658133,-4,5,3,11,-3,12,5,4
83996658133,-7,3,8,23,20,-18,-8,10
83996659595,-7,-6,-9,-68,0,23,11,3
83996659595,-8,-5,2,-9,-29,-15,-10,-9
83996671613,-2,-1,-3,-17,3,-29,-14,-9
83996671613,-2,2,5,16,-12,18,21,-30
83996680585,-1,-4,6,56,5,-11,3,-4
83996680585,8,1,-6,-53,9,42,7,13
83996695386,2,1,3,12,11,-16,-18,-22
83996695386,2,3,0,-13,7,14,4,10
83996697017,-6,-4,-7,9,-13,-36,-9,-11
83996697017,-3,-7,-7,18,12,26,3,2
83996718129,0,0,3,11,-24,-12,7,7
83996718129,-4,5,0,-40,1,-18,-11,-19
83996719421,0,-12,1,-1,-14,18,7,6
83996719421,0,2,0,1,6,-25,-12,-2
83996740364,6,-3,-8,3,6,21,20,18
83996740364,3,6,2,-5,-9,2,5,-1
83996742007,-3,1,-10,-13,-2,-9,-23,3
83996742007,-2,2,12,26,17,-5,8,-12
83996755335,-6,-4,-17,-27,-17,16,2,14
83996755335,-11,-3,-3,16,-7,-7,-12,-9
83996756958,-3,1,-2,10,3,16,10,-5
83996756958,10,1,4,12,-1,-44,-11,1
83996777842,3,4,8,15,10,13,-8,3
83996777842,13,-1,-5,-47,-9,1,11,29
83996779429,3,1,4,22,-7,12,2,-11
83996779429,-8,7,-3,-57,-10,-36,-2,-1
83996791494,0,-2,-4,12,-5,4,-7,18
83996791494,-2,-2,4,10,-12,10,8,2
83996800555,-2,0,6,-1,15,-14,-2,-13
83996800555,-5,-3,-1,33,-1,20,11,12
83996815351,-2,-1,-2,-5,14,-6,-15,-7
83996815351,-3,1,-2,17,5,5,-13,-29
83996816991,-2,1,-4,2,8,-21,9,6
83996816991,-1,-7,-10,-13,-22,40,13,17
83996837837,-3,-4,-9,27,-6,-9,6,-18
83996837837,4,1,5,31,18,-26,-16,3
83996839417,0,0,-8,-9,-18,5,6,20
83996839417,-1,-2,-6,-8,-3,-8,-4,-8
83996851533,-1,-4,-4,-18,-2,5,9,-11
83996851533,-3,-3,-6,-1,17,40,7,-17
83996860488,6,-2,5,24,-19,-45,-3,24
83996860488,-3,-4,-8,-65,-15,-8,3,-22
83996875523,-6,-9,9,16,3,14,0,43
83996875523,-12,1,-1,-5,-3,-25,-16,-22
83996877021,4,0,0,25,30,30,1,-2
83996877021,-10,-12,-4,16,-13,-3,-20,-29
83996898111,7,9,4,-18,-7,-14,7,-39
83996898111,-16,-8,-7,-18,-2,-16,-37,-10
83996899530,0,2,1,2,3,31,22,44
83996899530,-14,-4,0,2,6,-17,2,-21
83996911762,20,24,6,-8,17,17,10,3
83996911762,2,0,4,3,-24,14,-2,20
83996920591,-8,0,-1,-17,5,-31,-11,-75
83996920591,-24,-2,0,7,-1,31,-11,-47
83996935511,31,3,-1,-2,1,-29,0,61
83996935511,-34,-26,-11,-4,-16,-14,-15,-40
83996936998,13,4,-2,3,2,8,-22,-13
83996936998,11,9,3,11,8,10,22,1
83996965422,-1,18,-1,8,11,9,-45,-69
83996965422,-54,-3,0,-16,-12,-20,18,-82
83996967065,31,-1,2,-14,-5,6,29,88
83996967065,36,-3,-1,26,15,8,11,62
83996971661,-19,-5,-1,-12,-10,7,-18,-36
83996971661,-19,-11,-9,-16,-8,17,0,-55
83996980519,27,3,-1,-4,-1,-33,-72,19
83996980519,-13,17,6,16,13,-1,-13,-51
83996994980,-3,-14,1,0,4,0,72,14
83996994980,22,21,3,2,3,19,5,16
83997001619,-69,-15,-8,3,-5,5,-19,-85
83997001619,44,3,-7,-16,-18,-43,-31,69
83997018304,-2,-6,-15,8,13,0,3,-4
83997018304,19,4,-2,3,-1,-11,14,23
83997023990,-3,1,-6,-16,-2,5,-44,-25
83997023990,42,11,8,27,-1,0,77,89
83997031704,-18,-9,-6,-13,-10,5,-25,-20
83997031704,-10,-10,-1,2,5,0,-5,-15
83997040588,15,-2,4,1,18,2,26,23
83997040588,-48,-10,-9,-10,-6,10,-30,-35
83997054966,0,-10,-12,7,-18,-29,-29,-11
83997054966,-10,6,-10,-1,-3,-7,39,1
83997061725,40,-11,-31,-11,6,35,56,80
83997061725,-6,-3,-36,1,-1,0,-3,-35
83997078082,5,-1,-28,-2,10,5,-8,24
83997078082,4,9,-22,4,-9,-15,-32,16
83997079506,-12,7,3,-14,-17,-23,7,-27
83997079506,1,-1,13,8,2,6,-1,3
83997091572,4,-4,19,7,-3,-11,4,5
83997091572,28,2,12,10,6,26,19,2
83997100517,53,-1,18,2,8,-1,69,80
83997100517,-8,-3,15,16,-2,2,-16,-37
83997114770,-22,-5,9,-44,-18,-35,-51,-55
83997114770,20,-4,24,10,20,28,69,71
83997129247,-33,0,15,-1,-8,0,-37,-73
83997129247,-15,-6,8,-11,2,55,28,31
83997138014,3,23,12,3,-5,-46,17,15
83997138014,18,-1,2,-20,6,7,-25,37
83997139537,-41,-4,-5,8,-11,-25,-26,-105
83997139537,14,0,7,24,10,18,-1,8
83997160569,-6,-8,-5,-41,-8,14,12,-9
83997160569,-4,-6,-9,-2,-14,-17,13,6
83997161985,-14,-1,1,-17,6,15,-10,-29
83997161985,-13,-1,0,-6,0,-19,-29,-53
83997174859,12,-6,-1,-9,5,33,31,63
83997174859,-4,-6,-8,5,-4,-42,-31,-19
83997181717,1,-1,5,5,-4,9,0,6
83997181717,-4,0,0,-8,-3,-12,7,-6
83997198071,-7,-7,3,40,9,9,-3,-16
83997198071,5,-2,1,-11,-1,10,-18,-4
83997199468,-9,2,-1,5,-6,-18,-17,8
83997199468,5,-4,2,-52,3,-1,-12,-4
83997220596,-9,-3,-2,33,3,13,14,-20
83997220596,7,0,3,-17,-1,-12,-10,6
83997222083,-6,-6,-5,-8,-1,9,5,-5
83997222083,-4,1,7,21,-6,-19,-11,-3
83997235488,0,-12,-2,-48,-2,3,-7,-7
83997235488,5,2,8,15,-3,1,-1,6
83997237030,0,2,-6,6,12,-4,5,14
83997237030,-1,-2,-5,-39,-17,-2,-3,1
83997258122,-7,2,4,10,8,-1,-3,-3
83997258122,5,1,-8,7,-2,-3,-3,0
83997259410,0,1,5,15,-3,1,1,2
83997259410,-3,-1,-7,-12,1,-9,-4,1
83997280613,-4,-3,-2,10,1,2,-3,-9
83997280613,-2,1,2,-1,0,-6,-9,-3
83997281988,1,-4,-4,-10,-9,2,-1,-1
83997281988,-10,0,1,24,3,-8,-3,-20
83997294296,21,2,1,17,9,1,8,77
83997294296,5,-4,-15,-26,-14,-1,2,9
83997303019,-2,0,-2,-6,-1,3,2,8
83997303019,-10,-2,0,4,-1,-6,-5,-10
83997318077,7,1,1,-1,-3,0,-8,-24
83997318077,-30,0,2,13,0,-6,-14,-56
83997319430,0,0,2,3,3,10,6,7
83997319430,5,1,-4,0,-12,-16,-3,-15
83997340485,-1,-13,1,-1,-1,1,-5,-22
83997340485,-3,-12,-2,7,-3,-11,-7,19
83997342055,10,4,-4,-20,6,7,8,62
83997342055,-2,0,-5,4,0,-1,-7,12
83997354214,-17,3,-7,10,-5,-2,8,-53
83997354214,28,2,-7,-3,5,14,15,28
83997363062,-6,-5,-9,0,-5,-13,-4,-32
83997363062,7,-1,0,19,4,6,-1,-9
83997378064,4,4,21,-47,-6,-7,2,25
83997378064,-14,-1,39,-3,2,1,-4,-6
83997379428,4,4,38,3,0,4,0,-2
83997379428,11,-15,116,-13,-1,-1,5,28
83997401839,15,-14,117,30,-4,6,1,50
83997401839,6,12,50,-9,0,2,1,1
83997403459,-4,-3,-13,-4,-4,-8,-3,-41
83997403459,5,-4,-82,-4,-2,0,-4,-3
83997414261,-6,0,-91,-2,0,2,-9,-18
83997414261,-8,2,-72,-14,-3,-1,-7,-28
83997423063,-3,-2,-71,11,-5,14,20,30
83997423063,-16,1,-72,11,-2,-19,-5,-62
83997438114,18,9,-46,-2,-1,9,7,48
83997438114,-2,0,-32,1,4,0,-7,-82
83997439543,6,-1,-20,-8,-5,-17,-11,38
83997439543,-5,-1,-5,8,5,13,2,-7
83997460434,-14,-9,-9,-10,-3,-3,-6,-25
83997460434,-8,0,-1,-6,2,3,-3,-27
83997462010,-19,1,7,13,1,12,0,7
83997462010,-1,3,9,-3,-6,-13,0,20
83997474051,13,-7,1,10,1,-20,-10,-19
83997474051,2,-7,-20,-19,0,10,3,18
83997483042,-4,4,10,-6,-3,0,2,-10
83997483042,-2,2,5,-30,-10,0,-5,7
83997498004,-14,-11,-12,0,-6,2,-5,-53
83997498004,6,-2,11,20,10,-3,0,42
83997499547,-11,-9,1,5,-2,3,3,-51
83997499547,-9,-2,10,1,5,-6,-6,4
83997520609,-14,8,7,0,1,-3,4,9
83997520609,7,-7,6,1,-10,-6,0,-17
83997522058,-12,10,7,-2,4,-2,-6,-44
83997522058,1,4,4,3,1,2,-3,6
83997534267,-4,-6,-2,-6,3,1,1,-5
83997534267,5,2,2,-5,-6,2,5,36
83997543013,45,-1,-5,-7,1,-10,-10,25
83997543013,17,10,9,18,0,20,14,-16
83997557982,-2,10,0,-9,5,-6,-6,-11
83997557982,9,5,-1,4,-7,-9,-2,12
83997559525,0,-5,9,-46,-6,0,-4,-15
83997559525,5,5,-8,-9,4,3,3,58
83997580429,4,7,0,40,0,19,8,31
83997580429,2,0,8,5,3,-25,-8,-11
83997582028,-5,-1,-1,-5,-5,-4,-9,3
83997582028,0,2,-1,31,6,6,4,25
83997594265,-20,-36,-12,-26,-10,9,-26,-88
83997594265,-7,-10,-2,30,4,-4,17,28
83997603018,1,-2,1,-7,-2,-1,7,29
83997603018,1,-23,-13,-2,-2,-12,-9,-70
83997617873,6,6,0,-42,-10,-2,7,46
83997617873,-9,-14,-4,7,0,1,-8,10
83997619416,18,-1,-2,10,2,2,1,-14
83997619416,3,-1,-4,-16,-5,-1,-1,8
83997640533,-27,1,-12,12,1,-1,-3,-5
83997640533,2,20,2,-3,-1,2,-10,-32
83997642043,-17,9,11,28,8,1,7,43
83997642043,2,-4,3,-3,-11,-4,0,-16
83997655437,-15,-7,5,-4,-2,-10,0,-2
83997655437,9,4,13,20,0,-1,-3,-33
83997663196,-25,-6,4,5,3,8,8,13
83997663196,6,5,2,12,5,-9,1,30
83997677396,-15,-13,3,18,3,-9,17,-2
83997677396,-19,-4,-7,-20,-3,9,-4,-15
83997677985,12,-1,-5,6,3,4,-10,-50
83997677985,-9,-1,-2,-5,-4,3,5,11
83997699928,0,14,-8,13,0,-7,-11,-15
83997699928,2,-4,-8,-52,-9,-4,-3,11
83997700480,-24,-14,1,28,-3,-4,-12,-85
83997700480,26,7,-12,-54,-5,1,7,74
83997722228,12,17,5,8,0,0,-9,-9
83997722228,10,-2,-1,7,-2,-2,3,42
83997722967,-5,1,-1,1,-1,-3,12,0
83997722967,-23,-4,-2,-4,-4,-6,-8,-31
83997737211,8,26,4,-2,-1,1,-5,12
83997737211,-5,-6,3,2,-2,1,-3,-45
83997737979,-6,-9,3,-11,-6,-5,4,56
83997737979,-2,-10,4,25,4,0,5,31
83997767882,25,5,6,-22,1,1,9,30
83997767882,-13,-1,-3,-51,-6,-1,-2,2
83997768754,4,-4,-4,4,0,-3,-2,-5
83997768754,2,1,2,-18,-4,-2,2,36
83997782466,-14,-10,-1,-11,-7,-2,-6,-13
83997782466,-4,-10,-9,36,6,-1,0,20
83997783014,7,4,3,3,-6,-5,-7,-2
83997783014,-1,0,-15,-11,4,4,0,37
83997797232,5,2,3,9,5,0,-1,-7
83997797232,-18,-29,-3,-8,-9,-4,-4,12
83997797968,0,-9,-7,-4,2,2,3,15
83997797968,9,14,5,26,3,-2,-10,-65
83997819793,-13,-10,-14,-7,-2,-1,-6,-37
83997819793,9,3,-1,27,8,0,-2,8
83997820490,-11,-9,1,-2,-2,-2,8,14
83997820490,-1,-11,0,5,-2,0,-3,-51
83997842440,22,-8,1,-4,0,-1,3,45
83997842440,4,9,-2,-1,-10,0,3,9
83997843029,-4,-2,-3,-1,-2,-2,-12,-39
83997843029,-7,-3,-3,-22,-3,0,1,-27
83997857251,-9,-10,-6,13,-1,-2,-1,-8
83997857251,-36,0,-1,3,-3,-1,-2,-2
83997858006,8,7,3,1,5,-2,-3,19
83997858006,-27,-14,-9,-6,-8,-2,-1,-13
83997879999,-5,4,2,-19,-4,0,1,3
83997879999,7,3,1,18,7,1,-3,14
83997880525,2,3,-1,-35,-12,-4,1,-11
83997880525,-7,-25,3,-2,5,0,-2,-2
83997902180,-4,-6,-3,9,-8,-2,0,-15
83997902180,-6,-1,-3,-49,-4,0,1,53
83997903029,-1,-17,-4,-5,0,-2,-4,-5
83997903029,0,14,2,8,0,-1,-3,-13
83997917224,-15,-2,-1,18,4,-2,-2,14
83997917224,8,-1,0,17,5,0,2,-12
83997917980,-6,4,-7,-36,-10,-4,-7,1
83997917980,-4,6,6,2,0,1,0,-9
83997939910,5,-2,-2,-2,-3,-3,-1,-17
83997939910,-4,9,3,-9,0,-2,0,-18
83997940583,-14,6,2,9,0,0,-3,-15
83997940583,8,-11,3,25,1,-2,-1,43
83997962209,2,-15,-3,-14,-4,-1,-1,-10
83997962209,10,2,0,7,0,1,1,-1
83997962978,13,11,3,18,7,0,1,17
83997962978,-2,-4,-6,-14,-8,-4,-5,-11
83997977192,-2,6,3,25,9,0,0,-9
83997977192,33,-10,-6,-15,-10,-3,1,80
83997977983,-7,-6,0,14,4,3,-4,-14
83997977983,-9,8,2,1,0,0,-1,-14
83997999723,20,0,3,-13,1,3,7,10
83997999723,-2,3,-1,17,6,1,1,-40
83998000388,-14,-34,-7,-7,-4,-3,-5,-1
83998000388,-2,-13,-2,0,-4,-1,-4,2
83998022189,-6,10,1,-5,-8,-4,-2,-2
83998022189,15,-6,4,6,8,3,2,-16
83998022986,3,16,3,4,0,1,5,82
83998022986,-1,15,2,-6,-1,-2,-5,-17
83998037182,-10,-5,-1,-6,-5,0,-2,13
83998037182,-13,3,-5,-8,-4,-2,-6,-28
83998037960,6,23,5,17,7,-2,-2,-15
83998037960,2,1,-2,-4,-2,-2,-2,-17
83998059752,0,9,-6,-9,-3,-3,-3,20
83998059752,-7,14,-1,10,0,-2,1,-6
83998060477,20,7,3,-6,-3,-1,4,1
83998060477,5,1,-1,5,-1,-1,1,8
83998082179,-5,2,1,1,-1,-1,-5,-77
83998082179,-9,8,-2,-1,0,0,4,11
83998082957,-9,-8,1,-6,-4,-4,-4,-25
83998082957,-3,6,-4,-2,-4,-1,-4,-39
83998097176,-13,-3,-4,4,1,1,1,81
83998097176,24,-10,-4,-5,-4,-3,-6,-26
83998098006,17,17,5,5,1,1,4,25
83998098006,0,-10,3,6,2,-2,2,18
83998119667,-19,-30,-5,-2,-1,0,-7,-31
83998119667,-5,-8,3,0,0,-3,3,-8
83998120472,-1,-6,-9,-6,-2,0,-3,-21
83998120472,28,17,2,3,3,0,2,55
83998142159,3,-28,-3,-4,0,1,6,52
83998142159,-9,1,3,-3,0,-2,-1,4
83998142953,-16,-13,-5,5,-1,-2,-2,-14
83998142953,3,14,8,2,2,0,1,9
83998157176,5,17,0,2,-1,-3,-1,-3
83998157176,-2,6,-1,0,3,-1,-3,9
83998157959,-7,-5,-5,-4,-3,-2,-4,-5
83998157959,-10,4,-4,-2,-1,-1,-5,-55
83998179682,26,11,-1,0,-1,-1,6,52
83998179682,21,-15,1,-3,-2,-2,-7,-2
83998180445,-30,-6,-12,-4,-1,0,0,-35
83998180445,-7,48,3,0,-3,3,7,-28
83998210320,5,-12,-1,3,1,0,-2,9
83998210320,-10,3,-4,-3,-2,-1,0,-5
83998211140,-15,2,6,2,1,0,-6,-20
83998211140,-12,-50,-14,-6,-3,-3,-5,1
83998217126,31,33,6,0,1,0,-1,-21
83998217126,11,-4,-3,-1,-3,0,-1,-3
83998217931,-4,13,2,-3,-2,-2,-1,21
83998217931,-5,-11,-7,-10,-4,-5,-2,-11
83998239643,-5,6,2,-1,0,-3,2,38
83998239643,-1,-8,0,1,1,0,-2,-19
83998240413,31,17,2,2,0,1,2,6
83998240413,14,1,-1,1,2,0,0,-7
83998262184,8,6,1,5,0,-1,-4,-37
83998262184,-11,13,-1,7,1,-1,1,6
83998263002,0,-11,-4,-14,-1,-1,0,-4
83998263002,-2,-11,-4,0,-2,-2,-1,26
83998278726,-25,-8,-5,-2,-3,-3,-6,-45
83998278726,17,35,5,6,2,1,3,35
83998279502,9,-12,-6,12,3,-1,-2,11
83998279502,-1,-7,-4,-41,-13,-2,0,0
83998299720,-17,0,-2,-4,-1,-2,-6,27
83998299720,-15,-2,-3,-5,-2,0,-4,-24
83998300428,6,3,-1,-4,-3,-3,-4,-46
83998300428,11,-16,-4,13,0,-1,-3,30
83998322179,-22,-13,-8,-1,-2,-2,0,-36
83998322179,-20,-15,-4,-11,-1,-5,-4,-3
83998322962,-2,-5,-5,-2,-3,-3,-6,-22
83998322962,-12,-5,3,9,1,0,-1,-10
83998337166,14,3,-2,-4,-3,-1,-1,-59
83998337166,33,-4,-1,4,-2,-1,5,86
83998337961,-4,-1,1,-3,-3,1,0,0
83998337961,-11,2,0,4,0,0,-2,-58
83998359656,-3,-14,-2,4,0,-1,-3,4
83998359656,-40,-3,1,-5,0,0,-2,-47
83998360438,17,-49,-10,-6,-5,-3,-1,22
83998360438,-2,20,6,3,4,2,3,22
83998382863,-6,14,2,-4,0,-1,-2,6
83998382863,-10,-22,-3,3,-1,-2,0,-28
83998383704,10,15,4,0,-2,-2,1,11
83998383704,23,0,-3,-2,-1,-4,-5,-80
83998397137,-19,2,-1,2,-1,-2,2,17
83998397137,-12,10,-1,-1,0,-1,-3,-28
83998397925,-4,5,-1,-6,-2,1,3,2
83998397925,16,-3,-2,4,-1,-2,-2,73
83998420002,-7,2,1,-1,0,0,-4,-39
83998420002,16,4,1,-1,-5,-1,-3,-8
83998420522,-9,-3,0,-3,0,0,-1,-5
83998420522,-17,-25,-6,0,-4,0,0,8
83998442979,-12,-2,-1,-3,-1,0,0,-9
83998442979,-3,0,3,0,0,-2,-1,17
83998443724,6,25,1,0,-1,0,0,5
83998443724,-9,1,-3,-1,0,-1,-1,-17
83998457378,4,-4,0,5,0,0,1,13
83998457378,-4,-3,-5,-15,-2,0,0,44
83998458028,6,-16,-4,1,-3,-4,0,10
83998458028,-4,3,1,5,3,2,1,0
83998488096,28,6,0,0,-2,-1,2,-10
83998488096,3,-5,-5,-2,-1,-1,-1,6
83998488653,-29,-17,-4,-2,-3,-4,-3,-15
83998488653,7,-1,-4,-5,-2,-2,-1,25
83998502920,-3,20,-1,-3,-3,-2,-4,-26
83998502920,-2,-12,-7,-8,-4,-3,-3,-9
83998503705,19,38,5,2,-2,1,-1,11
83998503705,1,-2,1,0,1,-1,-2,-23
83998517210,12,21,1,-3,-1,-1,-1,15
83998517210,-14,-10,-3,-4,-2,-3,-4,-37
83998518020,-8,-3,0,1,1,-2,-1,-4
83998518020,6,44,4,-1,1,0,0,37
83998539965,-1,-19,-2,-2,-3,-4,-3,-37
83998539965,-9,13,3,5,-1,0,0,19
83998540528,20,1,2,2,2,1,0,-11
83998540528,-15,-8,-1,4,0,0,-1,-2
83998563083,-15,-15,-3,-8,-1,-2,-2,11
83998563083,1,4,2,2,-1,0,4,-11
83998563666,-9,-3,-2,0,0,-1,-3,1
83998563666,15,-18,-8,-7,-4,-2,-2,37
83998576675,21,8,3,9,2,-1,1,13
83998576675,-4,-6,-2,1,-1,-2,-4,-27
83998584969,-5,7,1,-3,-2,-3,-3,-4
83998584969,-4,34,0,-1,-1,-4,2,26
83998599755,3,4,-2,-10,0,-1,-3,-15
83998599755,-7,8,-2,-2,-1,0,-3,-8
83998600483,-7,-8,-4,1,-2,1,-1,-4
83998600483,-12,-4,2,3,-1,0,-4,-22
83998622911,12,-9,-5,-4,-2,0,3,20
83998622911,-1,-4,2,-3,-1,-2,-1,-11
83998623662,-4,1,-2,3,0,-2,-1,1
83998623662,10,-14,-1,-2,-1,1,3,5
83998636626,-35,-33,-5,-2,-2,0,-2,44
83998636626,7,-11,-1,0,-1,-2,-2,-2
83998644980,-9,-4,-2,-2,-1,-1,1,-17
83998644980,-16,-8,0,1,0,1,1,24
83998659804,-9,-8,-4,0,-2,-2,-4,-28
83998659804,-8,-46,-6,-5,-3,-3,-4,-46
83998660479,10,-3,-3,-5,-2,0,2,42
83998660479,21,15,-1,3,-1,-2,-4,-25
83998683063,0,10,5,1,0,0,-1,-6
83998683063,-4,7,0,4,1,-1,-4,-43
83998683638,2,2,-2,-5,-2,0,2,7
83998683638,-9,-19,-3,-5,-3,-3,-4,-43
83998697307,3,10,0,1,0,-1,4,24
83998697307,2,-2,0,0,-1,0,-2,18
83998698009,-2,-15,-1,1,-2,-2,-5,-60
83998698009,18,11,1,0,0,-1,3,-2
83998719625,-2,-1,-1,0,0,0,-3,-37
83998719625,0,5,1,-1,0,-1,2,15
83998720564,-17,-24,0,1,-1,-1,-3,-10
83998720564,-21,-11,-1,-6,-1,-1,-4,-17
83998742953,3,0,-2,-1,-1,-1,-1,-1
83998742953,-9,12,-4,-2,-3,-2,-2,15
83998743746,2,9,-3,-6,-3,-2,-3,11
83998743746,-9,-14,-2,-1,-1,-2,-2,-3
83998756798,2,-2,1,-1,-1,-1,-1,-49
83998756798,10,10,0,0,-1,1,2,54
83998764792,-2,10,0,-4,-2,-2,0,4
83998764792,-15,10,-1,1,0,-1,-3,0
83998779959,6,7,-2,-7,-6,-4,-2,-15
83998779959,-4,-5,-4,-1,-1,-2,1,34
83998780484,-9,23,2,0,0,0,-1,-9
83998780484,21,4,4,0,0,-1,4,28
83998804299,-1,4,-1,1,-1,-1,0,14
83998804299,3,-1,3,1,-1,-1,1,-6
83998805108,17,19,3,-2,-1,1,6,72
83998805108,-30,-33,-6,-3,-2,-1,-6,-49
83998816533,-25,0,-1,2,0,-1,-3,38
83998816533,30,5,1,3,0,2,1,-4
83998824755,6,-24,-3,-1,0,-2,-1,-19
83998824755,5,-5,1,-1,-1,0,-1,-3
83998839624,-13,-10,-4,-4,-3,-1,1,11
83998839624,-13,14,-3,-5,-4,-1,-1,-17
83998840474,4,-16,-1,-1,-1,-1,-2,-2
83998840474,-7,-7,-4,-2,-2,-1,0,-4
83998862842,7,-18,-2,-1,-2,-1,-1,-1
83998862842,-1,13,1,1,0,-1,-2,-4
83998863721,-7,-7,-4,2,0,-1,-3,-12
83998863721,-17,0,-2,-5,-2,-1,-2,-1
83998876457,15,2,1,0,1,-1,1,14
83998876457,9,-6,4,6,2,-1,1,4
83998884741,-12,-10,-1,-6,1,-2,-3,-25
83998884741,8,-28,-2,1,0,-1,-2,15
83998899679,14,3,0,-2,0,1,2,27
83998899679,-4,-2,-1,-1,0,-1,0,-20
83998900474,10,6,3,4,1,2,0,-3
83998900474,0,9,-2,-3,-1,-1,1,-15
83998922843,15,-12,-5,-2,-1,-1,-5,-53
83998922843,3,1,0,-1,0,1,4,51
83998923615,-7,6,-2,-4,0,-3,0,-1
83998923615,-40,-1,1,0,-2,-3,0,1
83998936513,-1,7,4,2,1,0,0,-8
83998936513,0,-10,-4,-3,-2,-3,-4,-14
83998944652,3,21,-4,-2,-3,-2,-2,3
83998944652,-33,8,2,-2,-2,-1,-4,-23
83998959679,-2,6,2,0,-2,-2,-1,11
83998959679,-12,0,-1,-1,1,1,-3,-25
83998960452,1,10,-2,-1,0,-2,2,27
83998960452,18,-6,-3,-3,-2,-1,-2,-6
83998982863,-4,5,-2,1,1,0,-2,6
83998982863,13,-3,-3,-4,-2,0,3,37
83998983707,-14,-3,0,0,-1,-1,-4,-29
83998983707,9,-22,-2,2,0,0,3,20
83998996497,-8,-6,-3,-4,-2,-2,-2,8
83998996497,-29,11,3,2,0,-3,-2,-59
83999004743,11,-25,-4,-4,-4,-1,2,51
83999004743,10,8,-1,-2,-2,-2,-1,16
83999019659,-4,2,2,3,-1,1,0,4
83999019659,-27,-5,-5,-4,-3,-3,-5,-46
83999020429,-3,6,-1,0,0,-3,-3,-41
83999020429,4,7,1,-2,-2,-3,-3,1
83999042826,5,16,-1,-3,-1,0,-2,-21
83999042826,-15,-9,-6,-2,-3,-1,-2,9
83999043713,3,-6,0,-5,0,1,-2,2
83999043713,5,6,0,0,0,0,1,6
83999065328,-14,-44,-2,0,0,-2,-3,-1
83999065328,14,0,-1,-3,-2,-1,-1,-5
83999066074,-10,2,0,2,-1,-2,-6,-55
83999066074,1,4,1,1,-2,1,3,9
83999079657,9,7,-5,-3,1,-2,-1,-1
83999079657,32,2,5,2,1,1,0,29
83999080451,-36,-8,-1,1,-2,-1,-4,-17
83999080451,5,5,-5,-4,-2,-2,-4,-24
83999110357,-5,-2,-2,-1,-2,-2,4,27
83999110357,9,-2,-4,-1,0,-1,-1,-1
83999111218,10,16,1,-1,2,0,2,14
83999111218,7,26,0,2,2,2,-1,0
83999125335,-8,-36,-3,-4,-2,-1,-3,0
83999125335,-11,-5,-4,-5,-3,-2,-2,-35
83999126128,-1,1,2,-1,-1,-1,-2,10
83999126128,11,9,-1,-5,-1,-1,-1,-2
83999139675,9,10,3,2,0,-2,-2,-8
83999139675,-2,12,1,2,-1,-1,1,19
83999140445,2,-12,-4,1,-3,-1,0,12
83999140445,24,9,2,-1,-1,0,2,-11
83999162826,-23,-3,-1,-1,-2,0,2,28
83999162826,-23,-25,-5,-4,-3,-1,-4,-4
83999163620,5,-1,-1,2,-1,-1,0,55
83999163620,-8,-13,-4,-3,-2,-1,-1,3
83999192149,-12,2,-2,-1,-1,-2,-1,-13
83999192149,1,6,-1,0,-1,-2,-2,6
83999200967,-4,-8,0,-3,-2,-2,1,-29
83999200967,0,-2,-2,2,0,0,0,46
83999202613,8,42,-1,-3,-4,-3,-4,-6
83999202613,17,-8,-1,-5,-2,-4,-2,-1
83999203385,12,2,-1,0,-1,1,-1,16
83999203385,-5,-20,2,3,-1,-2,2,23
83999222915,-29,5,1,-7,-3,-2,-6,-31
83999222915,13,-1,-3,1,0,1,3,19
83999223680,4,2,-1,1,0,-1,3,6
83999223680,-5,-10,-5,-4,-2,-2,-5,-56
83999245338,-14,-7,1,3,2,1,2,16
83999245338,1,-31,-6,-4,-3,-2,-2,-11
83999246137,-8,-3,-2,-3,-3,-2,-3,-33
83999246137,-11,2,-1,-3,-1,0,1,17
83999259717,7,-7,-1,0,-1,0,-1,-9
83999259717,14,17,3,3,1,1,0,10
83999260406,-7,0,-1,-1,3,1,0,-23
83999260406,-14,-6,-4,-5,-3,0,-3,-18
83999282976,4,-4,-3,1,-2,-1,0,7
83999282976,-4,1,0,-8,-3,-2,0,13
83999283787,-31,-45,-8,-1,-3,-3,-1,19
83999283787,1,-23,-3,0,-1,-2,-4,-4
83999305381,-2,-15,-2,1,2,1,-4,-13
83999305381,-14,7,-1,2,-1,-1,-3,-17
83999306161,2,7,0,-1,-1,-1,-4,-43
83999306161,1,12,3,0,0,0,2,7
83999319664,-3,6,-2,-3,-4,-3,0,-2
83999319664,4,-18,-1,0,0,-1,1,48
83999320443,1,16,2,0,-2,0,-3,26
83999320443,7,13,-1,0,-1,-1,-2,2
83999342883,16,0,-5,-5,-1,0,0,8
83999342883,-19,7,0,-3,0,-1,-1,-24
83999343686,12,3,4,-1,-2,-2,0,13
83999343686,2,23,-2,0,-2,-2,-2,4
83999365306,-15,-11,1,-1,0,0,0,-1
83999365306,-3,-12,-4,1,-1,-2,-3,-23
83999366065,17,1,0,-3,1,1,0,11
83999366065,-11,1,0,1,-2,-3,-2,-5
83999379640,10,-3,-3,4,-2,-2,-4,-16
83999379640,0,8,0,-2,1,-1,-1,28
83999380389,17,3,1,4,0,0,1,1
83999380389,-5,-9,-1,-8,-1,-1,-3,-39
83999403481,-1,8,-1,-2,0,0,4,29
83999403481,-8,-1,-4,-1,-2,-2,-1,-24
83999404261,-17,-9,-1,-1,-2,-2,0,12
83999404261,0,-7,0,0,-1,-2,-3,-8
83999425304,-4,2,0,-2,-1,-1,0,-9
83999425304,-40,26,-3,-3,-2,0,-4,-23
83999426354,-2,2,-3,-2,0,-1,-3,-19
83999426354,-3,-6,-2,2,-1,0,1,-1
83999447839,5,-4,0,-4,2,0,-1,31
83999447839,46,19,1,1,-2,-1,-2,-23
83999448691,-18,1,0,-1,-2,0,4,13
83999448691,15,-5,0,1,1,0,3,56
83999462890,11,-16,-2,-1,-3,-2,-2,-13
83999462890,-5,-11,-2,1,-1,-3,-2,-12
83999463893,0,7,-1,-1,1,-2,-7,-17
83999463893,2,-10,3,0,1,2,5,12
83999485383,2,15,0,1,1,0,2,-9
83999485383,-8,19,1,-7,-1,0,1,21
83999486128,-4,14,-4,-3,-3,-2,-3,-10
83999486128,-3,6,0,-2,-3,-2,-1,23
83999499734,-2,-2,0,5,0,0,-2,37
83999499734,17,-12,3,5,0,1,3,22
83999500401,15,-18,-6,-4,1,-1,-1,-4
83999500401,-12,4,-3,-2,-1,-3,-4,-28
83999523098,-5,-19,0,-3,-1,-2,-2,-64
83999523098,2,-10,-1,-4,0,-1,0,11
83999523668,-1,3,4,6,1,0,-1,1
83999523668,-8,-9,-5,-7,-4,-1,-3,-2
83999545553,-15,-9,-2,-4,-3,-2,-1,-15
83999545553,1,5,0,-2,-1,0,2,2
83999546180,6,-8,-1,-3,-1,-2,0,-3
83999546180,-16,-4,-6,-5,-1,-1,-3,-16
83999559848,10,8,-2,1,0,-3,0,32
83999559848,23,-19,-5,-2,-3,-1,-2,-9
83999560486,-9,29,0,0,-2,-2,-4,10
83999560486,15,-13,0,2,-1,0,0,-3
83999582898,-1,-5,-2,-2,-1,0,-4,-9
83999582898,-1,-6,-3,-3,-1,-1,0,9
83999583605,-8,-12,-2,-1,-2,-1,-2,-6
83999583605,5,6,-3,-3,-1,-3,-8,-58
83999605626,-21,-13,0,-2,-3,-1,1,13
83999605626,-11,-1,0,1,-2,-2,-3,-24
83999606275,6,-9,-4,-4,-2,0,-1,9
83999606275,1,7,2,-6,3,1,1,-11
83999619896,3,2,-4,0,-3,-2,-1,16
83999619896,-2,1,-1,2,-1,-1,-2,8
83999620427,17,1,1,-3,-2,-1,0,-24
83999620427,-9,-17,0,5,1,1,2,-13
83999642918,10,8,-1,-4,0,0,-1,-11
83999642918,-15,11,4,-2,0,0,0,-1
83999643636,-4,-9,-1,-3,-1,-1,-1,-7
83999643636,-8,15,-2,0,-3,-2,-1,-9
83999665288,3,5,0,1,1,1,0,5
83999665288,-16,-11,-6,-5,-2,-3,-2,7
83999666104,-13,-1,2,3,1,1,-3,-90
83999666104,2,2,-3,5,0,-2,1,39
83999678963,1,16,-1,-6,-2,-2,3,0
83999678963,15,1,3,-1,1,-1,-2,-3
83999687185,-20,4,-3,0,-2,-1,-4,-4
83999687185,-8,-8,-5,-3,-3,-2,-1,5
83999702854,-10,2,0,7,-2,0,-1,-10
83999702854,35,-4,-1,-3,-1,1,1,16
83999703599,3,-10,-1,-2,0,0,1,23
83999703599,-9,-42,1,0,0,-1,-1,7
83999725535,-2,-26,-3,-5,-1,-1,-3,6
83999725535,-21,-2,-6,-2,-4,-2,-4,3
83999726144,-7,-9,-3,1,-2,-2,-1,15
83999726144,3,13,2,-4,-4,-2,-3,-32
83999739238,4,8,1,-1,-1,-1,2,15
83999739238,0,-11,-3,1,1,-1,-3,-25
83999747159,0,0,-5,-4,-2,0,1,28
83999747159,-4,1,-4,-2,0,-3,-4,-36
83999762859,1,5,1,0,-1,-1,-4,-24
83999762859,4,1,-1,-2,0,-1,-5,-71
83999763706,0,2,-1,0,-3,0,5,86
83999763706,20,-12,1,-2,-2,-2,0,11
83999785326,-9,-10,-2,2,-2,-2,-7,-15
83999785326,-19,-24,-7,-4,-3,-1,0,-1
83999786121,9,5,1,-1,-3,-2,-3,-28
83999786121,2,14,0,1,-1,1,-1,16
83999799164,0,-22,-2,-6,-1,-2,0,1
83999799164,7,-1,2,5,0,-1,1,0
83999807449,0,-3,-2,-4,0,-2,-2,-35
83999807449,-16,17,-2,-3,-2,-1,-1,-11
83999822808,2,7,0,-2,-1,-1,0,7
83999822808,12,28,2,-3,-1,-2,5,63
83999823645,0,-28,-3,-1,0,1,-1,-7
83999823645,20,8,0,0,-2,0,0,8
83999845358,13,19,3,0,1,0,-1,-17
83999845358,-24,4,0,-1,-2,-1,-2,-2
83999846105,42,8,-5,-4,-4,-2,-3,-11
83999846105,-2,13,5,1,0,0,4,35
