timestamp,emg1,emg2,emg3,emg4,emg5,emg6,emg7,emg8
84140319837,1,2,0,1,-2,-2,0,3
84140319837,0,-1,-2,0,0,-1,-1,6
84140334737,0,-1,-3,-2,-2,-2,-1,-7
84140334737,-5,-2,-1,0,-1,-1,-1,3
84140336314,-4,0,-1,-1,-1,-1,-3,-4
84140336314,3,-2,-2,0,-2,-1,-2,3
84140357199,-3,0,-2,0,-1,0,0,-10
84140357199,-2,1,-3,-1,-1,0,-1,4
84140358799,-1,-1,-2,-3,-2,0,0,-10
84140358799,-7,0,-2,-1,-2,-2,-3,0
84140372192,1,-2,-2,-2,-1,-1,-1,0
84140372192,0,-1,0,0,-1,0,0,-1
84140373837,-11,-2,-3,-3,-2,-1,-2,-16
84140373837,-2,-2,-1,-1,-1,1,-2,-3
84140394703,-4,0,0,-3,0,1,0,0
84140394703,-2,-1,0,-1,-2,-2,-2,-3
84140396266,0,-1,0,-2,-1,-1,-1,1
84140396266,-1,-2,0,0,0,-3,-1,3
84140417216,0,-1,0,-1,-2,-2,0,-1
84140417216,-1,-1,-2,-2,-1,-1,-2,5
84140418811,-1,-1,-1,-1,-2,-2,1,-5
84140418811,2,-1,-1,-1,-1,0,1,1
84140431540,-1,0,-1,-1,-2,-1,-1,1
84140431540,-2,-1,-1,1,-1,-2,-2,-4
84140438371,8,0,-1,-1,-2,0,-2,5
84140438371,-8,-2,-2,-1,-1,-1,0,-3
84140454728,1,-3,-1,-2,-2,-1,-1,6
84140454728,-8,0,-1,-2,-2,-2,-1,-16
84140456367,-2,-1,-1,-1,1,-2,-1,-5
84140456367,4,-1,-1,-4,-1,-1,-2,6
84140477224,-1,-1,0,-1,-1,-1,0,10
84140477224,3,-1,-3,-3,-2,-2,-2,-4
84140478804,1,-1,-2,-1,0,0,-1,3
84140478804,-3,-3,-1,-1,-2,-1,-2,-5
84140491522,0,3,0,0,-1,-1,-2,-4
84140491522,-1,-1,1,0,-1,-1,-1,3
84140498371,-3,-1,-3,1,-1,-1,-2,-3
84140498371,2,0,-1,-2,-1,0,-2,4
84140514736,-3,-2,-3,-2,-1,-3,-2,-8
84140514736,1,-3,0,-2,0,0,-1,3
84140516326,-1,-1,0,-1,-1,-2,-1,0
84140516326,-2,-2,-2,-1,-2,-1,-1,-1
84140537205,3,-1,0,-1,-2,-2,0,0
84140537205,6,0,-1,0,-1,-1,-1,-8
84140538815,7,-3,-1,-1,-1,-1,3,0
84140538815,0,-1,0,-1,-1,-1,-1,-3
84140551583,-4,-1,-1,-1,0,0,1,-3
84140551583,-5,1,0,0,-3,-1,-1,-1
84140558395,1,-3,0,-2,-1,1,0,8
84140558395,-2,-1,0,-1,-2,-1,-2,-4
84140574742,-1,-3,-1,-1,-2,-2,-2,-4
84140574742,-3,-2,-2,-2,-2,-1,0,2
84140576334,-4,-2,-3,-1,-1,-2,0,-6
84140576334,0,0,-2,-1,0,0,0,4
84140597195,-2,-2,-1,-2,0,-2,-1,-1
84140597195,0,-1,-1,-1,-1,-1,0,5
84140598782,-7,0,-1,-1,-1,0,-4,-12
84140598782,1,1,-1,-2,-1,0,-1,0
84140611514,0,-1,-3,-1,0,1,-1,-2
84140611514,-10,-4,-1,-3,0,-1,-1,-2
84140618356,5,0,1,-2,1,0,-1,-1
84140618356,-11,-2,-3,-2,-1,-3,-3,-18
84140634771,-4,-1,-1,0,-1,0,1,2
84140634771,2,-1,-2,0,1,-1,-1,2
84140636345,-8,-1,-1,-1,-2,-2,-1,-7
84140636345,3,0,-1,0,-1,-1,-1,8
84140657174,0,-1,0,-1,-1,-2,-2,-3
84140657174,-1,0,-1,-2,-1,-1,0,-2
84140658867,-3,-1,0,0,-2,-2,-3,2
84140658867,1,-2,-2,1,0,-2,-1,0
84140671510,-1,0,-2,0,1,-1,-2,-5
84140671510,1,0,-2,-1,0,-1,1,2
84140678300,-1,1,-1,-1,1,0,1,4
84140678300,-3,-2,0,-2,-1,0,0,-7
84140694716,1,0,-1,1,-1,0,0,7
84140694716,0,-1,-1,0,-1,-3,-3,1
84140696304,1,-1,-3,-4,-3,-4,-3,-4
84140696304,1,-1,-1,-1,-1,-1,0,-1
84140717220,-3,-1,-1,-1,0,1,-1,-4
84140717220,1,0,0,0,-3,-1,0,7
84140718776,-2,-2,-2,0,3,-1,-3,-1
84140718776,-3,-1,0,-3,-6,-2,-2,2
84140731547,0,-2,-1,1,-1,-3,-4,-4
84140731547,0,-1,-2,-1,-1,-4,-1,-2
84140738331,1,0,0,-1,-2,5,2,2
84140738331,-2,-1,-3,-3,7,3,0,0
84140754742,0,0,-2,-4,-5,4,1,0
84140754742,-4,-3,-2,0,4,-14,-3,-5
84140756356,4,0,-1,0,-2,2,-1,3
84140756356,-1,-1,0,-1,-6,-4,-2,3
84140777204,0,1,-1,-4,-3,1,1,-9
84140777204,0,1,1,-4,7,7,3,3
84140778845,-2,-3,0,-1,-15,-7,-6,4
84140778845,0,-2,0,0,0,-2,-2,1
84140790839,-1,-4,-3,-4,-3,-8,-4,-2
84140790839,-2,0,0,0,-3,1,2,-3
84140799839,-1,1,-2,-6,4,4,-2,-4
84140799839,2,1,-2,-10,0,1,-1,1
84140814741,2,0,2,35,10,-2,-3,19
84140814741,-2,-3,-3,-3,9,-5,1,-10
84140816333,-1,-1,3,-4,-14,8,-1,0
84140816333,-1,-1,-2,-3,-2,3,3,-5
84140836982,4,0,-5,-18,7,10,0,5
84140836982,2,1,-1,6,-11,-18,-7,-5
84140844836,12,-3,-1,6,3,-4,0,-6
84140844836,-2,2,1,4,0,-1,1,10
84140850893,-4,-3,-1,0,-5,-13,-4,-12
84140850893,1,-1,-1,-9,-2,19,-3,9
84140859875,4,1,-4,-12,3,-10,-4,-7
84140859875,30,2,1,3,-8,4,-2,7
84140874755,-36,-7,1,0,2,-8,10,-22
84140874755,1,0,5,10,-3,-3,-7,-2
84140876309,-1,-2,-2,-11,2,-1,6,9
84140876309,-16,2,-8,6,4,-3,-3,-18
84140897230,-1,-7,-2,9,5,11,-7,-2
84140897230,-2,-9,-10,4,-6,-5,6,15
84140898828,3,3,-2,4,0,-1,-4,-13
84140898828,-14,-5,0,-15,-8,3,-1,0
84140910824,16,3,4,-9,-7,-25,-3,-6
84140910824,-17,15,0,0,-3,-6,-3,-8
84140919833,8,-2,-2,12,10,3,-6,13
84140919833,-18,-10,-4,8,5,7,0,-37
84140934974,3,-1,-2,-21,-11,-7,-10,67
84140934974,4,-2,2,5,1,5,9,4
84140936373,-4,-1,-4,-4,-6,-4,-7,-30
84140936373,39,4,5,9,-2,-8,12,51
84140957353,39,4,0,3,17,8,5,-32
84140957353,-92,-8,-4,-2,5,-4,-18,-43
84140958887,-17,-3,1,12,-9,0,15,21
84140958887,20,2,-1,-14,-10,-2,-9,-15
84140970835,9,-1,-4,-15,7,13,11,22
84140970835,-45,-12,-4,1,-8,-2,-8,-43
84140979962,17,-4,0,3,12,-6,-15,-3
84140979962,7,-5,-6,-4,-16,-31,-11,-31
84140994330,-59,-5,-4,-14,-9,6,2,23
84140994330,3,0,-3,-25,-9,-5,0,-11
84141000921,8,2,6,34,10,6,3,-11
84141000921,-23,-3,-1,-42,-8,-2,-23,62
84141017354,-11,-1,-3,11,-7,6,20,-16
84141017354,44,5,1,22,11,8,6,17
84141018901,20,-14,-3,-19,-18,-11,-15,38
84141018901,6,-3,-1,9,9,-4,-4,-8
84141040024,6,-7,-1,-14,1,21,-11,-42
84141040024,18,5,4,14,-3,-17,-12,32
84141041372,5,2,-7,-4,7,22,29,-61
84141041372,-15,2,4,1,-1,-16,12,51
84141054308,8,2,-3,-56,-38,-3,8,23
84141054308,3,-3,1,63,13,-17,-30,-34
84141061079,8,5,-1,-24,8,6,4,28
84141061079,-20,1,0,12,5,-1,7,-29
84141077466,7,6,4,21,19,9,-12,-20
84141077466,31,-4,-1,-28,-6,7,17,34
84141078904,-11,6,5,-7,-9,-3,-18,-31
84141078904,-10,-2,-2,-39,-16,12,3,-20
84141090852,11,5,10,54,36,-3,32,33
84141090852,43,4,6,-12,-9,15,-14,22
84141099861,-61,-7,0,6,14,-7,20,10
84141099861,23,-1,0,10,-7,-10,-7,6
84141114136,14,-2,-3,-13,-9,-19,-28,-40
84141114136,-48,-7,-1,3,18,17,5,-13
84141120883,-17,-10,-9,-37,-56,-14,12,-20
84141120883,-2,-4,-3,-1,29,13,10,1
84141137218,4,3,0,41,7,0,-22,-43
84141137218,18,0,2,8,13,6,31,51
84141138864,-21,-6,-3,-23,-13,-2,-24,-31
84141138864,9,1,-10,20,4,-19,-14,-12
84141150853,-16,-2,4,0,-3,6,-2,-7
84141150853,6,3,-9,-50,-6,3,-25,-73
84141159845,11,2,2,30,-22,-14,3,46
84141159845,14,0,1,0,-2,8,39,5
84141174218,-6,-2,-1,-13,-3,11,-4,31
84141174218,6,0,2,-7,-6,-8,6,16
84141181092,6,0,3,17,6,1,-10,8
84141181092,-2,0,4,0,9,12,-3,-2
84141197386,7,-14,-5,-20,-25,-21,-18,-13
84141197386,0,-5,-5,3,19,18,33,27
84141198841,19,-1,-6,-17,0,2,-10,12
84141198841,-7,2,5,-17,-21,-26,-18,-75
84141219888,14,8,3,37,21,13,26,42
84141219888,-19,-1,4,11,-14,-4,1,-15
84141221378,22,4,0,5,20,1,-15,24
84141221378,5,-6,-5,0,-10,3,25,-20
84141234750,-7,-1,-7,-5,-4,-9,-6,-25
84141234750,13,0,-3,-37,-20,-13,-5,1
84141241035,-22,0,-1,19,23,12,8,-8
84141241035,5,6,5,9,6,9,2,37
84141257256,-37,-7,-4,-18,-32,-14,-13,-31
84141257256,6,-1,0,9,-2,-1,14,35
84141258874,34,4,2,-17,3,-11,3,2
84141258874,-45,-17,-6,-9,1,14,-8,3
84141279730,-30,-5,-4,10,1,-4,1,1
84141279730,-6,-1,2,-6,11,4,3,-22
84141281312,3,-1,1,33,-3,-2,-4,-6
84141281312,34,3,2,4,2,-1,0,10
84141294319,-22,-4,-9,-34,-13,-5,18,22
84141294319,17,1,0,16,3,-1,-25,-3
84141300975,-4,-2,1,4,-4,-2,7,26
84141300975,-80,-17,-7,-7,2,-6,-26,-64
84141317269,-11,-5,-7,14,6,3,7,32
84141317269,36,5,2,2,-8,2,9,0
84141318866,-30,3,4,24,14,-3,-12,-88
84141318866,66,19,-2,-39,-21,2,4,90
84141339789,-58,-31,-9,-22,5,-6,-19,-63
84141339789,85,16,1,23,-8,-9,-21,65
84141341397,-57,-12,-10,0,-2,-4,-15,-76
84141341397,6,-6,-1,19,11,2,5,-4
84141353582,50,24,0,-18,-19,-1,23,58
84141353582,-53,-22,5,25,15,-1,-2,-52
84141362402,14,-1,-1,-75,-8,0,6,14
84141362402,-38,0,-3,33,-2,-4,-15,-25
84141377489,81,21,9,6,23,-8,-15,16
84141377489,-61,-23,-13,-48,-24,6,13,-38
84141378887,12,2,9,68,2,2,-3,24
84141378887,-5,-5,-7,-22,1,-8,-6,-49
84141399804,14,-2,3,10,0,-2,-2,27
84141399804,-3,10,-9,-29,8,-5,5,-27
84141401354,-18,-6,-7,-106,-34,4,-6,11
84141401354,38,-4,9,73,30,-12,-6,60
84141413608,-54,-6,-3,-6,-11,9,1,-26
84141413608,45,-2,5,92,15,-6,-4,6
84141422426,43,12,-9,-90,-14,5,10,65
84141422426,-68,-22,-11,7,1,0,-8,-60
84141437442,44,-2,3,-28,10,-3,-7,-5
84141437442,-51,-13,-6,-27,-28,0,19,27
84141438829,31,10,11,10,5,3,-5,-39
84141438829,-6,7,0,26,3,-12,-8,-27
84141461141,-22,7,2,44,14,2,-4,-26
84141461141,2,-2,-5,-55,-1,8,8,18
84141462785,-3,-15,-10,-26,-12,-2,19,62
84141462785,-15,11,-5,-11,-16,8,11,7
84141473574,-6,4,-1,-41,-13,-5,-14,-29
84141473574,45,22,8,44,38,-12,-29,-2
84141482384,-15,-3,-3,65,-19,4,2,-72
84141482384,116,5,0,29,3,16,14,113
84141497424,-52,-21,-10,-47,-30,-14,-3,-90
84141497424,32,-1,3,8,-31,-20,-12,22
84141498851,-21,-6,-11,6,22,-19,-46,-46
84141498851,-7,6,5,-23,-3,13,33,-3
84141519741,10,2,1,82,21,2,3,17
84141519741,-24,0,0,-7,-10,21,12,-7
84141521340,3,1,3,127,53,-26,-6,-1
84141521340,-78,-12,-14,-86,-55,2,-45,-64
84141533447,-37,-5,-1,13,14,-1,11,11
84141533447,-42,-2,-5,17,-16,-9,-9,-28
84141542437,44,-1,1,-35,-6,-7,26,20
84141542437,67,3,3,10,19,-4,-18,40
84141557419,-36,-7,-5,-65,-21,-1,-8,-49
84141557419,4,-2,-3,20,13,10,-7,-9
84141558871,-9,5,-1,11,-4,1,15,61
84141558871,15,-13,2,-26,6,-8,1,-22
84141579902,-15,2,2,6,-1,3,-6,-17
84141579902,7,2,-5,-41,-13,1,15,44
84141581445,19,2,-2,22,3,3,-4,7
84141581445,-23,1,2,37,12,12,36,64
84141593630,74,8,3,19,0,1,-3,45
84141593630,-50,-7,-2,-30,-6,-9,-6,-35
84141602401,3,-1,3,-4,9,-3,1,-9
84141602401,33,5,-8,-19,-12,-5,2,46
84141617449,-57,3,-5,-53,-12,0,0,-10
84141617449,13,-4,-1,-4,-2,-10,-39,-81
84141618884,6,-2,-2,17,-8,3,21,31
84141618884,-36,4,3,-17,15,0,3,-54
84141639720,57,12,1,3,1,5,-7,24
84141639720,-46,0,-2,-6,-27,-7,2,-2
84141641296,-23,-9,-3,-35,-6,6,-14,-27
84141641296,20,-6,-1,10,-9,-4,-11,-38
84141653569,0,2,2,36,24,0,14,93
84141653569,14,-4,-3,-15,11,1,14,-7
84141662427,5,-2,-2,-9,-3,1,-28,-26
84141662427,5,15,4,-16,-8,6,19,5
84141677480,23,1,-2,28,4,-10,-7,-55
84141677480,47,8,-3,-14,6,4,6,57
84141678911,-3,4,3,-21,-20,7,8,0
84141678911,12,-8,1,-4,6,-12,-30,-59
84141707386,23,-8,-4,-14,-5,3,16,15
84141707386,-5,-7,2,29,14,1,1,13
84141708855,-22,-1,-3,-54,-10,-2,-11,-4
84141708855,-9,-14,1,99,37,-3,12,3
84141713613,58,-4,-1,3,-36,-2,1,-18
84141713613,-27,10,-1,-20,7,-1,-2,18
84141722411,-7,3,4,-1,6,-2,10,0
84141722411,-25,0,-5,-19,-15,1,-14,-11
84141737430,72,-3,-2,1,9,-3,1,61
84141737430,7,2,1,-4,10,-1,-1,-42
84141738862,-2,-1,-2,12,-5,1,14,4
84141738862,-9,14,4,-4,10,-1,0,68
84141759858,18,-9,-6,-17,-13,0,-7,2
84141759858,7,11,8,1,-12,-4,-2,-4
84141761411,-10,-10,-6,8,10,-3,-7,28
84141761411,-4,1,1,-7,-1,3,16,-9
84141773479,-2,4,-3,-19,7,4,-4,-43
84141773479,26,2,5,30,-8,0,-2,-22
84141782436,3,9,1,-15,-1,1,-1,-35
84141782436,-26,-14,-3,-30,-6,-2,16,32
84141797336,-16,13,5,27,1,1,4,31
84141797336,-25,-19,-13,0,4,-3,-2,-76
84141798871,-36,-1,3,22,-10,-7,-10,-45
84141798871,49,27,-1,-48,-12,0,-1,32
84141819746,-56,-19,-1,34,7,-4,-3,-12
84141819746,41,0,-1,-6,11,4,3,59
84141821313,-45,-8,-9,-30,-20,-2,2,27
84141821313,-5,-4,-3,31,5,4,-7,-30
84141833328,-2,2,0,-2,-2,-3,0,2
84141833328,-11,-3,-3,-18,2,-5,-2,22
84141842347,22,-8,-2,7,4,9,0,-21
84141842347,-62,-7,-2,16,-6,-9,-7,3
84141857325,-12,-18,-5,6,19,-5,-9,6
84141857325,2,-5,-5,-29,-33,3,6,4
84141858856,20,6,-2,-1,1,18,15,15
84141858856,11,-9,3,68,18,-22,-19,-22
84141879934,-55,-9,-5,-30,-8,-5,-7,-33
84141879934,-11,5,0,-50,-17,-5,13,60
84141881355,-22,-16,-3,20,7,-1,-13,-41
84141881355,33,6,-2,-65,-18,15,-4,-19
84141893530,-7,5,5,45,18,-20,-9,-11
84141893530,-44,-9,-6,-9,-22,1,2,-6
84141902409,28,4,2,22,31,-2,-2,3
84141902409,46,0,0,-54,-19,7,5,-1
84141917335,-58,-20,1,2,5,10,0,-36
84141917335,15,-5,-4,50,6,-1,-7,8
84141918894,2,3,2,-41,-18,-9,-4,-19
84141918894,-17,-5,-2,34,16,-4,-8,-29
84141939870,19,5,-6,-54,-45,-6,-12,-1
84141939870,-9,0,9,104,51,-2,-3,3
84141941304,1,-6,-6,4,-28,-12,-47,-11
84141941304,4,-2,-3,-26,-2,3,49,3
84141953434,13,7,1,1,-4,2,2,12
84141953434,6,-7,-7,-27,6,1,1,-8
84141962334,61,14,7,6,-6,-5,-1,41
84141962334,-61,-5,-2,28,-11,-2,-23,-37
84141976500,-9,-2,3,-11,9,2,4,-12
84141976500,5,-13,-1,-3,-3,-2,-5,-11
84141984934,0,-1,1,56,29,0,14,29
84141984934,17,1,-4,-62,-22,-1,-9,1
84141999932,14,2,1,-23,-9,4,11,11
84141999932,-1,3,-5,4,4,-1,-10,-11
84142001339,-37,-6,-3,1,5,-2,9,-11
84142001339,8,-3,-5,2,-1,-2,-3,22
84142013357,0,3,-7,7,8,-3,-9,-12
84142013357,-19,-3,-4,-46,-24,-5,-3,-22
84142022285,87,16,2,16,5,3,18,92
84142022285,-9,-2,2,-1,-2,-3,-15,-19
84142036592,6,10,9,25,8,3,1,-51
84142036592,20,12,1,16,12,0,11,19
84142043406,-63,-10,-4,-7,-5,-3,3,-36
84142043406,33,-1,-1,19,3,-1,-4,25
84142067369,-12,14,0,-14,-2,0,-6,-44
84142067369,-2,-19,-3,-8,-4,2,2,17
84142068886,1,-1,1,-8,5,-3,-3,-22
84142068886,-30,3,-1,14,4,-2,-2,11
84142073549,-3,11,1,14,-1,1,1,3
84142073549,19,3,-1,-7,-5,-3,-3,-6
84142082385,-11,1,-2,-5,6,1,1,5
84142082385,-5,-11,-2,3,-8,0,-1,-12
84142096614,12,-2,-3,-29,-5,-4,-2,19
84142096614,1,1,1,-11,-1,-2,-6,-6
84142103366,-13,3,-1,-10,1,-2,-3,-44
84142103366,22,0,2,21,5,-6,6,16
84142119740,-5,-7,1,5,-3,6,-6,8
84142119740,-15,1,-4,2,0,18,3,-8
84142121327,-1,-7,-2,-9,4,-22,-3,-20
84142121327,-15,-3,-10,-16,-12,-11,-10,-11
84142141961,6,-8,-7,-14,-3,1,5,28
84142141961,23,19,6,-10,-3,2,-9,-4
84142148351,-13,-9,-4,10,-1,8,3,-1
84142148351,-8,-2,1,-35,2,4,11,-3
84142156546,14,-7,-4,29,-5,-4,-2,18
84142156546,-12,1,-8,-36,-14,-10,-5,-12
84142163342,10,-25,-4,3,4,-3,-2,6
84142163342,-23,-4,-2,26,-2,1,-11,-16
84142179792,0,1,6,29,16,9,5,4
84142179792,-5,-6,8,8,7,-5,-1,-2
84142181364,2,5,-7,-74,-18,3,4,8
84142181364,2,-3,-1,44,5,-1,-3,-4
84142202174,2,-6,-6,-63,-23,-7,-1,11
84142202174,1,11,2,5,2,-3,-4,-6
84142203818,-11,-4,3,4,2,2,-4,8
84142203818,1,5,8,45,32,-1,-1,-1
84142216576,-5,2,3,15,-9,-4,-3,-12
84142216576,-3,-4,-13,-54,-18,-10,-2,11
84142223351,0,5,-5,1,-14,5,2,-3
84142223351,-1,-3,-1,-33,-20,1,2,0
84142239716,0,-2,5,40,23,-2,-1,8
84142239716,12,-11,1,3,-3,-2,-14,-20
84142241285,15,8,2,29,5,5,17,34
84142241285,42,2,-1,-39,6,-4,2,8
84142262231,-36,-9,-4,18,-2,1,-2,-12
84142262231,-7,-12,2,34,6,1,3,-1
84142263828,-3,9,-8,-33,-12,-3,-9,-6
84142263828,17,8,0,-77,-6,0,-1,0
84142275830,16,15,-4,37,8,-6,1,6
84142275830,-13,-6,4,50,11,3,2,1
84142284870,-10,3,9,118,12,-1,0,-1
84142284870,-31,-10,-11,-75,-22,-5,-3,-9
84142299733,8,5,2,47,8,-1,-1,5
84142299733,-16,-4,-12,-69,-1,-3,-2,-8
84142301356,8,3,7,85,10,-2,-2,3
84142301356,-7,3,-1,12,-13,0,-3,-5
84142322190,-2,-10,-6,-54,-3,-1,-5,4
84142322190,13,5,5,0,-10,-3,-4,-11
84142323777,-5,3,-8,-90,-13,-1,-3,-3
84142323777,-7,0,-3,-6,5,5,14,4
84142335856,1,-4,1,-14,3,-7,-3,-15
84142335856,-10,-2,4,41,2,3,2,25
84142344892,-17,-4,-7,-30,-1,-1,-8,-19
84142344892,-2,-1,6,41,7,0,-7,-11
84142359723,1,-3,-5,-26,-8,-3,-2,1
84142359723,2,3,-8,-75,-15,-8,4,1
84142361352,-2,-3,-4,25,3,6,-3,0
84142361352,6,-1,0,19,10,1,-3,-1
84142382183,0,-8,1,2,-10,-2,0,-7
84142382183,0,0,3,57,6,-2,-2,-2
84142383810,3,-4,6,-22,-5,-3,3,2
84142383810,-4,0,-1,3,5,-4,-6,-14
84142395860,-1,-3,-2,-2,-9,-2,-4,4
84142395860,12,7,-1,4,5,2,3,-3
84142404805,-6,-1,4,1,-2,-1,3,4
84142404805,-2,10,3,3,-1,2,-2,2
84142419728,-1,-11,-2,20,-1,1,-5,3
84142419728,4,1,-1,-1,2,2,2,5
84142421263,2,-2,5,27,14,1,3,-3
84142421263,-6,-4,-10,-50,-25,-7,-5,-2
84142442210,2,4,2,-6,1,1,0,-2
84142442210,-8,-8,-14,-64,-15,-3,1,-4
84142443850,-1,-2,4,43,10,0,-4,6
84142443850,-5,-3,0,-24,-5,-2,0,-1
84142455884,5,0,-5,-14,-2,0,0,3
84142455884,-4,-5,0,1,2,1,-3,-10
84142464827,-2,-3,-4,-12,-1,-3,0,-3
84142464827,1,1,3,71,7,1,-1,-1
84142479751,1,-25,-4,1,1,0,2,0
84142479751,-2,0,-3,7,-9,-2,-3,-2
84142481365,1,-3,-10,-43,-10,-5,-2,2
84142481365,2,-1,-1,24,6,0,-2,1
84142502195,-12,1,-12,-13,-4,-3,0,-2
84142502195,3,4,17,127,32,4,1,2
84142503829,-24,-7,-12,-117,-31,-5,-4,-8
84142503829,-4,-4,-1,12,-4,-1,-1,-1
84142515829,0,3,4,50,7,1,1,0
84142515829,-2,-1,-2,2,3,-1,-1,-3
84142524873,5,0,-4,52,0,-3,-3,-5
84142524873,-1,-1,-2,-43,2,0,-2,-3
84142539698,2,6,5,-4,3,0,1,4
84142539698,-4,-5,-6,18,-4,-3,-2,-4
84142541308,5,0,11,-10,9,0,1,0
84142541308,-1,7,-19,0,-9,-5,-4,-2
84142562220,2,0,11,7,9,1,-1,-5
84142562220,-6,-7,-15,-42,-25,-5,-2,10
84142563860,1,2,12,-10,4,0,1,2
84142563860,-5,-9,-7,8,3,-1,0,0
84142575828,1,2,-18,-66,-15,-5,-2,1
84142575828,17,15,31,0,2,-3,-4,-13
84142584871,-9,-5,1,47,6,4,2,8
84142584871,0,9,2,29,2,-4,-2,-5
84142599728,-15,-5,3,27,1,0,-3,1
84142599728,-8,-6,-3,-46,-15,-3,-2,-5
84142601342,8,-1,-11,-17,-5,-2,-4,-7
84142601342,1,2,11,20,9,1,-2,3
84142622188,5,0,-4,-37,-13,-2,-2,19
84142622188,9,5,-3,17,9,1,3,-12
84142623818,-2,-2,2,-21,-2,0,0,5
84142623818,-3,-9,-3,23,-8,-4,-2,-7
84142635863,1,5,-4,-19,-5,-1,-1,-5
84142635863,-6,-3,-7,2,0,-2,-4,7
84142644899,5,-19,0,10,4,2,-1,-5
84142644899,15,1,1,39,3,-1,-1,-5
84142659730,-1,-2,-8,-64,-16,-3,0,-1
84142659730,-6,3,0,34,7,0,-2,-2
84142661347,-6,-4,-10,-56,-20,-4,-2,-6
84142661347,-6,-1,7,12,7,2,-1,-5
84142682186,3,-3,4,31,7,-2,2,1
84142682186,12,-11,-1,30,-5,-4,-4,2
84142683803,7,8,-7,0,1,-2,-1,2
84142683803,-6,8,0,-10,-3,-2,-2,0
84142695863,20,6,2,0,5,1,0,-7
84142695863,-6,-8,4,-39,-7,2,2,5
84142704830,2,2,-1,17,4,-2,-2,3
84142704830,-2,-1,3,4,0,0,0,-13
84142719688,-1,5,1,2,0,-2,-1,-5
84142719688,-6,0,-10,5,-1,-2,-2,-4
84142721288,15,2,0,9,-2,-2,-1,-5
84142721288,-5,-4,-1,3,5,2,0,14
84142742266,1,6,6,21,0,0,-4,-15
84142742266,-18,-6,0,-28,-2,-1,1,-7
84142743851,10,6,4,10,1,-2,-2,-1
84142743851,3,-8,-1,19,3,1,0,0
84142755905,0,8,-6,2,-4,-1,-3,0
84142755905,0,2,-3,-14,-1,1,-1,3
84142764839,-7,1,0,17,0,-2,-3,-3
84142764839,-6,-8,-5,-32,-1,-1,-1,-5
84142779771,-4,-9,-3,-18,-10,-1,2,2
84142779771,-4,10,-1,13,3,0,-1,1
84142781312,-2,-3,3,1,1,0,0,4
84142781312,15,1,2,-18,-2,-1,-2,2
84142802286,-4,-4,-4,27,5,-2,-1,0
84142802286,-1,3,-1,-16,-6,-2,0,3
84142803838,7,-3,-4,1,-2,-1,-1,-6
84142803838,-2,2,-2,-8,-2,0,-1,3
84142815829,3,9,3,17,1,-2,-1,2
84142815829,-4,-7,-2,-3,-3,-1,-1,-4
84142824861,-5,-3,-2,-25,-6,-2,-1,-2
84142824861,-10,-13,-2,15,0,1,0,1
84142838810,-2,0,-1,-16,-2,-1,-1,2
84142838810,2,-2,-2,0,-2,-1,-4,-2
84142847373,-8,-2,1,25,6,3,-1,0
84142847373,1,23,-1,-43,-7,-4,-1,-1
84142863680,-2,-3,-4,-21,-9,-1,-2,-1
84142863680,1,-2,1,27,2,0,-1,-1
84142865247,-6,-2,2,20,2,-2,-1,-1
84142865247,-3,-2,2,21,3,-1,1,-1
84142875853,-4,-7,-9,-16,-6,-3,-1,-2
84142875853,5,-12,-3,2,-6,0,-1,-1
84142884834,-3,16,2,-12,-2,0,0,-4
84142884834,8,5,1,9,-1,-1,0,-5
84142899005,-2,-13,0,6,3,0,-1,4
84142899005,-5,-4,-3,-1,1,-2,-2,-7
84142913381,-10,-4,-1,-12,-5,-1,-1,-11
84142913381,8,-5,0,-14,-4,-1,-1,12
84142922250,-8,-18,-1,19,5,0,0,-4
84142922250,-5,5,-2,-9,3,-1,-1,-3
84142923786,4,-18,-5,2,-1,-3,-2,4
84142923786,-6,-8,0,-4,-2,1,1,14
84142935834,-2,6,2,8,-1,-1,-1,6
84142935834,-1,-2,-2,-9,-2,-2,-1,0
84142944850,-20,18,-3,-3,-2,-2,-2,1
84142944850,-4,-18,0,0,0,0,-1,-15
84142959067,-1,1,1,-10,-1,0,0,-3
84142959067,-4,8,3,-3,2,0,-1,-5
84142965830,0,4,-3,15,-1,-1,-2,0
84142965830,-6,-3,-6,-38,-5,-2,-3,5
84142982205,13,8,2,9,6,1,0,-1
84142982205,1,0,-2,-10,-2,-1,-1,2
84142983848,0,-5,-2,3,-1,0,0,4
84142983848,-3,-4,0,26,-2,-3,-2,-4
84142995853,-3,-6,-4,-12,-4,0,-2,-3
84142995853,1,1,1,1,1,1,0,-1
84143004846,-12,-5,-1,-7,0,-2,-2,-2
84143004846,-4,2,-1,-4,-4,-3,-1,-8
84143019691,-7,5,0,-3,2,-3,-2,-19
84143019691,-20,1,1,2,1,-1,0,0
84143021311,-2,-8,0,-6,0,1,-2,-2
84143021311,-3,-12,-2,-4,3,0,-1,-3
84143042188,-4,-13,-6,-10,-6,-3,-2,9
84143042188,11,-2,1,6,1,0,0,-2
84143043775,7,-6,-2,-18,-2,-1,1,4
84143043775,-6,7,0,30,-1,-4,-3,2
84143055827,-1,4,0,2,-2,0,-1,-1
84143055827,1,-6,-6,-6,2,-1,1,4
84143064845,5,-6,-4,-9,-2,-2,-3,-5
84143064845,17,2,-1,-20,-12,-2,0,-1
84143079730,-8,15,1,10,0,0,-1,10
84143079730,-1,-11,-1,29,4,-1,-5,11
84143081336,0,0,-2,-2,-4,-3,-1,-18
84143081336,-2,1,-1,0,4,-1,1,29
84143102196,1,1,0,-5,0,0,0,-10
84143102196,2,3,-3,1,-2,0,-1,3
84143103813,-3,0,-1,0,-4,-1,2,3
84143103813,-4,-3,-1,5,3,-2,-3,-11
84143132165,3,-2,0,10,-4,-1,2,6
84143132165,-12,-6,-2,-9,-2,-1,-1,-4
84143133799,0,0,-2,-35,-9,-1,0,3
84143133799,-6,-3,1,32,4,-3,-3,-13
84143139730,-2,-7,0,12,2,-1,-4,1
84143139730,-2,-22,-3,-14,-4,-3,-2,-11
84143141366,9,2,-2,-14,-5,-3,-1,0
84143141366,-3,2,-1,-6,3,3,2,3
84143162148,-10,-9,-4,-9,-7,-3,-3,-28
84143162148,11,5,-1,16,3,-1,-2,6
84143163794,-10,-1,-1,-19,-11,-3,-3,0
84143163794,1,-4,-3,-5,-5,-2,-2,-3
84143184735,-1,4,0,3,1,-1,-1,1
84143184735,-14,-25,-3,-14,-8,-4,-2,-4
84143186307,4,4,3,22,8,1,0,1
84143186307,3,8,-3,-18,-2,1,0,4
84143199696,-3,1,0,-3,-2,-3,0,-1
84143199696,-4,7,-1,3,2,-1,-2,-3
84143201303,0,-3,2,9,5,2,-2,19
84143201303,3,-7,2,5,-3,-1,-1,-17
84143222245,-16,0,-1,0,1,1,2,3
84143222245,3,7,-1,-10,0,1,0,4
84143223856,-2,1,-2,14,1,-3,-2,1
84143223856,-1,2,1,-9,2,1,-3,1
84143244729,10,3,1,4,-1,-1,-2,0
84143244729,11,19,1,-4,-3,0,0,-4
84143246277,14,3,2,3,3,1,1,9
84143246277,-15,-7,-8,-13,-11,-2,-4,-9
84143259023,5,-1,-1,10,-1,-2,-2,5
84143259023,-1,4,1,3,3,-1,0,-8
84143265789,-3,4,0,7,5,-1,-2,-8
84143265789,-4,-14,-2,-9,0,0,1,21
84143289737,7,1,-1,-4,-1,-1,1,3
84143289737,-10,-1,-2,-14,-6,-3,-3,-26
84143291376,1,-4,-3,21,1,0,0,-2
84143291376,-2,-5,2,3,2,0,-1,-3
84143304710,-9,-2,-1,1,0,-2,-2,-8
84143304710,6,-4,-1,-8,-2,-1,-1,15
84143306300,-4,-10,-3,-4,0,-2,0,-7
84143306300,-1,5,-1,1,-2,-2,-1,-9
84143319019,7,-2,-2,0,2,-2,-1,7
84143319019,-5,-1,-2,-9,-4,0,-1,-5
84143325840,-4,3,-1,-4,0,-3,-1,-3
84143325840,-1,2,-3,4,-2,-3,0,0
84143342186,0,1,0,-7,3,-2,-3,-13
84143342186,5,17,3,5,0,0,1,2
84143343830,-6,-9,-4,-6,-4,-1,-1,3
84143343830,5,3,-2,-5,0,-2,-1,-4
84143372880,6,-6,-2,3,-5,0,-2,-19
84143372880,-6,9,2,1,2,-1,1,3
84143374520,-7,-1,-1,-1,-2,0,-1,-4
84143374520,-3,2,-1,-12,-1,0,-1,-3
84143378343,5,17,-1,9,2,-2,-1,0
84143378343,2,-9,-2,-1,-10,-3,0,7
84143386595,7,-2,-2,-8,-1,0,-3,-11
84143386595,13,7,1,0,1,1,0,6
84143401489,-5,13,-1,-2,2,0,0,5
84143401489,-8,-18,-6,-6,-5,-2,-3,-18
84143402314,-2,-1,0,-3,-3,-2,0,-5
84143402314,-4,0,-2,-27,0,-2,-3,-1
84143423991,-5,-6,0,25,0,-3,0,7
84143423991,5,1,0,-9,2,0,-1,6
84143424802,-6,-5,-3,10,-2,-1,-4,6
84143424802,-8,3,2,-1,-3,0,0,-8
84143438355,-10,-9,-1,-4,2,2,-1,3
84143438355,-1,-20,-5,-18,-6,0,1,7
84143445838,-1,-1,-3,-5,-2,-2,-1,-1
84143445838,1,-2,-2,0,-4,-4,-1,2
84143461510,5,-11,-2,-7,1,0,-2,5
84143461510,-15,13,1,0,2,-2,-2,-2
84143462276,2,-8,-1,-4,2,-2,-1,5
84143462276,-2,-5,-1,10,-4,-2,1,-17
84143484003,6,0,1,-7,-2,0,1,5
84143484003,0,-2,-2,11,1,0,-1,0
84143484775,11,11,2,0,3,0,0,-5
84143484775,3,13,-1,1,2,-1,1,28
84143506487,-19,-10,-1,0,-5,-2,-2,-2
84143506487,2,-1,-1,-3,-2,-1,-1,-4
84143507293,-3,0,-3,-14,-3,-1,-1,-7
84143507293,4,0,-2,32,-1,-2,-1,-7
84143521505,-2,-1,-2,-8,-5,-3,-3,-6
84143521505,3,-3,0,15,-1,-3,-1,5
84143522271,-5,1,0,-5,-2,-2,-1,2
84143522271,-4,-8,0,-4,0,-1,-5,-2
84143544012,13,-1,0,0,-4,0,0,-16
84143544012,-5,-3,-1,-4,1,-1,-1,-7
84143544772,0,20,1,2,0,0,0,3
84143544772,-1,-8,-3,-10,-7,-2,-2,-2
84143566459,10,-3,-2,-3,1,0,1,8
84143566459,4,7,-2,-1,3,-1,1,-1
84143567265,11,6,3,0,-1,-2,-3,-12
84143567265,-15,-17,1,11,3,-2,2,-3
84143581525,-2,0,-1,-8,-1,-2,0,7
84143581525,-1,1,0,-2,-1,-2,-1,3
84143582294,-7,-11,-4,-13,-4,0,-1,1
84143582294,-3,0,-4,13,4,1,-1,-7
84143604029,3,-3,0,-17,-4,0,-1,2
84143604029,-1,-3,0,15,-1,-1,-1,16
84143604939,-7,-6,2,4,0,-1,-1,-11
84143604939,2,4,-3,-11,-1,-2,-2,-1
84143618317,-7,2,-2,6,1,0,-1,-2
84143618317,-6,-2,-4,-9,-4,-1,-3,1
84143626569,-3,-1,-3,-1,-1,-1,-1,2
84143626569,1,0,0,1,-3,-2,-2,1
84143641482,-3,-2,-2,3,1,-2,-1,8
84143641482,1,-1,-2,-6,-3,0,-1,-12
84143642265,-9,-9,-3,10,-1,-1,1,1
84143642265,5,4,2,-10,0,-1,-1,-5
84143663994,16,-7,-3,-2,-2,-1,0,-2
84143663994,6,21,2,-1,-1,-1,1,-5
84143664768,1,-4,-1,3,0,1,2,2
84143664768,0,-3,-2,-4,-3,-1,0,4
84143678348,-3,-1,0,-2,-3,-2,-2,-2
84143678348,0,-4,-2,3,-1,-1,-2,-3
84143686574,1,0,0,-3,-1,0,-1,2
84143686574,-2,-2,-2,-2,1,-3,-2,3
84143701477,-2,3,1,-6,-5,0,1,-6
84143701477,-7,-5,-1,11,0,-3,-1,-6
84143702274,-10,-11,-2,-4,-2,-1,0,-6
84143702274,14,-19,-1,3,0,1,0,0
84143724061,6,2,1,-9,0,-1,0,-3
84143724061,0,3,1,0,-1,-1,-2,6
84143724824,1,-2,-2,-10,0,-1,0,2
84143724824,-21,8,-2,6,0,-2,-1,-3
84143738348,-5,-4,0,9,1,-1,-2,0
84143738348,4,-9,-3,-6,-2,0,0,-2
84143746567,-2,3,-1,9,-1,-1,-1,-2
84143746567,3,2,-1,-8,-2,-1,1,-2
84143761540,-6,-1,-3,7,1,-1,-2,-1
84143761540,0,-3,-3,0,3,0,-1,3
84143762312,-3,10,-1,-2,-3,-2,-3,1
84143762312,2,1,-2,-8,-3,-1,-3,11
84143784059,3,0,0,-1,0,-2,1,1
84143784059,1,-7,0,1,1,-2,0,-1
84143784819,0,1,-2,-6,0,-2,-2,-3
84143784819,5,-1,0,7,-1,-1,-1,1
84143798389,-18,-4,-3,0,-2,0,-3,-2
84143798389,6,3,0,-12,-1,0,-2,-5
84143806532,-5,-2,-1,-3,-1,-1,1,10
84143806532,-7,0,-3,-11,-4,0,-2,-12
84143821537,-3,-5,-4,0,1,0,0,7
84143821537,-18,-1,-1,-1,-2,-2,0,-6
84143822309,0,-4,-1,-3,-3,-2,-3,-2
84143822309,-3,8,0,3,1,-1,-1,-3
84143844012,7,1,0,-4,-6,-3,-2,7
84143844012,0,-3,-1,4,2,-1,-2,-1
84143844802,6,-1,-2,-3,0,0,-1,9
84143844802,-3,4,0,2,1,1,1,-14
84143858346,-1,-2,-1,-11,-7,-1,-1,-4
84143858346,1,-2,0,8,-2,-1,-2,-2
84143868326,-3,1,-2,3,-2,0,-1,-6
84143868326,5,-2,0,-14,-1,-2,0,8
84143881473,-10,-5,-3,12,2,-2,-3,-1
84143881473,7,3,2,-1,-2,1,0,-2
84143882308,-4,-3,0,0,-1,-1,0,-6
84143882308,-1,-5,1,4,-3,-2,-3,-2
84143904001,-3,0,0,-12,-3,-1,0,-2
84143904001,-1,-3,-2,-6,0,0,0,1
84143904803,-1,-4,-4,0,2,-2,-2,-5
84143904803,-2,-3,-1,4,-5,-2,-3,0
84143918345,2,10,2,2,3,0,0,3
84143918345,3,0,0,1,0,-2,0,-1
84143926464,2,0,-2,-2,-2,0,-1,-2
84143926464,-2,-7,-3,-5,-2,0,0,-2
84143941477,12,2,1,3,-1,-1,0,-8
84143941477,1,-2,-4,-12,-2,-3,-2,29
84143942295,-3,-2,0,8,0,0,1,-12
84143942295,7,0,-3,0,-1,-2,-3,-6
84143964010,-7,-5,0,2,1,-1,-1,-6
84143964010,3,19,1,0,0,2,-1,-5
84143964781,8,1,0,0,-1,-1,-1,8
84143964781,-3,-25,-1,4,0,-2,0,-1
84143978312,3,1,0,-7,-1,1,0,4
84143978312,-4,-4,-2,-2,0,-2,-1,-8
84143986460,-2,6,0,3,-1,-1,-3,-3
84143986460,2,10,-1,1,2,-2,-1,14
84144001500,-2,-24,-1,-13,-3,-1,1,-7
84144001500,-11,-8,-2,-7,-4,-3,-1,-13
84144002310,6,-2,0,12,1,-1,0,6
84144002310,-22,-4,-3,-1,0,-1,-1,-6
84144024016,-5,2,0,-4,1,1,-1,4
84144024016,0,15,1,-7,-2,-2,-3,-8
84144024811,-8,-11,-3,13,-3,-3,-1,-4
84144024811,3,2,0,-4,2,-1,-1,1
84144047264,0,4,-1,2,-1,0,0,-2
84144047264,3,-5,-2,2,-4,-1,3,0
84144048034,-2,1,-2,-20,-1,-1,-3,-2
84144048034,1,3,1,-1,-2,-1,0,-1
84144061514,2,3,0,12,-2,-2,-3,-3
84144061514,-3,-9,0,-4,-3,-3,-1,1
84144062285,-3,-2,0,0,-1,-1,-3,-2
84144062285,-2,-1,-1,-1,-1,1,-1,-7
84144084085,-4,-1,-3,-10,-3,-1,-2,10
84144084085,-1,-5,1,8,0,-1,-1,-7
84144084791,1,-1,0,-4,-1,-2,-1,0
84144084791,1,4,0,-7,-3,1,-1,-11
84144107162,-5,-20,-4,-3,0,0,0,19
84144107162,1,-4,-1,5,1,1,-1,1
84144107997,-3,-1,-1,-4,-2,-1,0,-3
84144107997,3,-1,-2,-5,-2,0,-2,5
84144121600,-4,1,-2,0,-2,-2,-3,-8
84144121600,5,0,0,-4,0,-1,-2,0
84144122305,-4,-5,-2,-7,-5,-1,-1,0
84144122305,0,4,0,21,6,0,-1,-3
84144143962,3,17,-1,-11,-5,-3,0,-5
84144143962,-10,-3,1,7,-1,-1,0,-2
84144144799,-1,1,-3,-26,-3,-1,-1,-2
84144144799,2,-3,1,24,3,1,-1,4
84144167151,8,10,1,5,4,0,1,-3
84144167151,7,-6,-2,-39,-9,0,-2,19
84144167968,0,0,2,34,7,-2,-1,-13
84144167968,-7,-4,-2,-7,-2,-2,0,1
84144181497,12,-1,2,8,-5,-2,-1,-4
84144181497,-1,-3,-4,-3,-1,-1,-1,-2
84144182284,-3,-3,-2,-18,-5,-2,-2,0
84144182284,0,-2,-2,-12,-3,-1,0,0
84144203971,-5,7,-1,4,2,0,0,-6
84144203971,5,-20,-2,3,0,1,-1,-7
84144204793,9,12,2,6,-1,1,0,3
84144204793,1,2,-1,-8,-3,-2,0,8
