timestamp,emg1,emg2,emg3,emg4,emg5,emg6,emg7,emg8
117323568406,1,-19,0,-2,-1,-1,0,0
117323568406,0,-1,-3,-3,-2,-2,-1,-5
117323569230,0,-1,-2,0,-2,0,1,-2
117323569230,-1,2,-1,0,-1,-2,-1,2
117323581499,2,8,-1,-1,-1,0,-2,-2
117323581499,0,-3,1,1,-1,0,-2,0
117323585141,-1,-2,-1,-2,0,0,0,0
117323585141,0,-2,-1,-1,-2,-2,-1,-3
117323585991,-2,-2,-2,-1,-1,-2,0,-1
117323585991,-5,-2,-2,-1,0,0,-1,-4
117323588165,-2,0,0,-2,-1,0,-1,3
117323588165,-2,-3,-2,0,-2,-1,-1,-1
117323601474,5,0,0,-1,-1,-1,-1,-1
117323601474,-12,2,1,-3,0,-1,0,-1
117323613003,-1,-1,-1,0,-2,-1,1,0
117323613003,-1,-3,-1,-2,0,-1,0,-4
117323616558,-3,0,-2,0,-1,-3,-1,3
117323616558,5,-3,-2,0,-1,-1,-1,-2
117323633199,3,2,-1,0,-2,0,-1,3
117323633199,-1,-1,0,-1,-1,0,0,-1
117323640288,-1,1,-2,-1,-1,0,0,-2
117323640288,1,-3,0,-1,-1,-3,-3,-6
117323648179,-3,-3,-2,-3,-2,-3,-2,-2
117323648179,1,-1,-1,-2,-1,0,-2,-2
117323694793,-1,0,0,-2,0,-2,-2,0
117323694793,-4,-6,-2,-2,-1,-1,-3,-11
117323695596,-3,0,-1,1,0,-2,-1,4
117323695596,-1,0,0,1,0,0,-3,-1
117323696410,0,-1,-3,-6,-2,-2,0,-2
117323696410,-1,-2,0,-1,-1,-3,-3,-1
117323698834,-2,1,0,3,0,1,-1,-4
117323698834,0,0,-1,-7,1,-1,-1,-1
117323706994,0,-1,-2,10,-2,-1,-1,0
117323706994,1,1,-4,0,-2,-2,-1,1
117323713881,1,0,1,15,-1,-1,-1,-1
117323713881,-7,2,0,-23,-5,-2,-1,-3
117323721396,-1,-4,-3,5,0,1,2,0
117323721396,-1,0,4,-1,-1,-1,0,1
117323736351,-10,0,0,14,9,0,-1,0
117323736351,1,2,-3,39,-4,-1,-1,-2
117323743883,-1,-2,-3,-9,-6,-4,-3,-2
117323743883,-3,-1,-2,-3,-2,-6,-1,1
117323752821,2,-1,-1,-4,-1,2,1,-6
117323752821,-2,1,0,19,1,-1,-2,7
117323767042,-3,-1,-8,-6,0,7,0,-2
117323767042,3,2,6,3,1,-7,0,3
117323773817,0,1,2,-1,-1,-1,0,1
117323773817,3,-2,-5,-20,-3,-7,-1,-1
117323781379,-1,1,4,11,2,5,0,0
117323781379,0,1,-3,-17,-3,5,-2,-2
117323796324,-4,-6,-2,-1,1,-2,2,-3
117323796324,6,-4,0,-39,-11,-7,-5,-1
117323803832,1,4,6,1,4,2,1,-1
117323803832,-1,-1,-1,1,12,4,2,0
117323812871,1,-3,-1,50,-6,0,1,1
117323812871,-1,-4,-6,-55,-7,-1,-1,-2
117323827037,-2,-4,5,30,5,-10,-5,-4
117323827037,-3,-2,-6,-22,-13,-1,-6,-4
117323833810,1,-2,-11,-59,-20,-9,-4,1
117323833810,-4,3,1,35,8,-7,1,-5
117323841323,0,-1,-1,-1,-1,7,-1,0
117323841323,-1,2,5,20,7,2,0,1
117323856347,10,-2,-2,1,3,-1,-2,-1
117323856347,-16,-11,-1,5,-1,4,1,-12
117323863846,1,-3,-1,-22,-1,-5,2,10
117323863846,12,21,-2,1,-5,-2,6,-6
117323872845,-8,-9,-1,-9,-1,1,-9,-1
117323872845,-1,-3,0,3,3,-1,1,6
117323887041,3,-1,0,4,-2,-3,-4,1
117323887041,0,-1,-1,3,1,7,3,2
117323893859,0,4,-1,-8,-5,-3,-6,-3
117323893859,3,0,0,13,0,-4,3,-4
117323909533,-17,-5,-3,-5,-4,1,-1,-5
117323909533,-4,-2,-1,-1,-5,-20,-7,2
117323916301,-2,1,1,-8,5,4,0,-3
117323916301,-9,-1,0,5,0,0,-1,-7
117323923884,3,2,-1,-8,-5,10,-2,-1
117323923884,-1,-8,-1,-1,1,8,1,-1
117323932858,-2,-2,-2,2,6,4,0,-4
117323932858,2,2,0,3,1,-13,-3,3
117323947018,-1,7,-2,-4,-6,-14,-8,-6
117323947018,-2,-6,-2,5,-4,-5,4,-5
117323953855,-3,-3,0,-4,-6,-2,4,-2
117323953855,2,0,2,3,5,20,0,2
117323961330,9,9,-1,-5,6,-8,-2,2
117323961330,-6,-18,-1,1,3,7,-4,-2
117323976377,2,3,2,-5,-2,-5,9,2
117323976377,-1,-5,-2,1,0,5,-1,6
117323983838,1,-1,-1,2,-1,16,-1,3
117323983838,-4,1,1,0,-6,-30,-13,-6
117323992851,4,-2,-2,-1,-7,-1,-4,2
117323992851,2,-2,0,0,1,-12,7,-9
117324007072,2,0,2,0,5,13,8,6
117324007072,-4,0,-1,0,0,8,-8,-2
117324013830,-1,0,-2,-3,1,3,1,-4
117324013830,4,4,-1,1,-5,-9,-10,-1
117324021360,-3,-6,-2,-1,-4,-6,4,3
117324021360,3,3,-2,-6,-4,1,-4,-4
117324036334,-2,0,0,4,5,-3,6,12
117324036334,17,0,-3,-15,-2,11,7,6
117324043849,-11,-3,1,1,-5,-8,0,-15
117324043849,-2,1,-1,3,-1,-5,-9,8
117324058882,-1,-1,-2,-9,-3,-8,-3,-7
117324058882,3,-3,-4,1,-2,-1,9,14
117324066988,-1,-8,-2,-9,-12,-11,7,-1
117324066988,-6,0,-3,-1,7,12,-3,-11
117324073830,-2,2,4,14,8,4,-13,-9
117324073830,-1,1,2,3,-1,-4,-11,6
117324081363,-1,-1,-4,-5,-2,-10,-2,2
117324081363,-3,-3,3,2,-2,7,11,-3
117324096315,1,2,-4,-9,4,26,3,24
117324096315,-3,-39,-6,0,-3,-5,8,-1
117324103815,-5,-2,0,2,4,-5,-10,-29
117324103815,-11,-7,-1,3,-6,-32,-15,-33
117324118834,5,0,-3,-2,-5,0,19,20
117324118834,-4,11,4,4,7,11,-5,-11
117324127070,3,-2,-4,-1,2,2,-2,26
117324127070,-2,-7,-1,1,-1,-3,9,0
117324133812,-11,3,5,3,0,6,-24,-21
117324133812,-4,3,-9,-4,-5,-1,-3,-8
117324141357,1,-2,-1,-4,3,-9,15,0
117324141357,3,11,3,4,9,18,7,19
117324156337,3,-7,-2,1,-8,-17,-11,-11
117324156337,2,11,1,-8,-6,13,12,-7
117324163822,-20,-5,-1,4,-1,9,-13,-5
117324163822,11,2,1,-2,1,-29,4,-5
117324178889,-7,-5,-7,-8,-7,-12,3,10
117324178889,0,3,-2,-15,4,9,-21,-30
117324187034,10,2,-5,-4,0,8,-21,-3
117324187034,4,-1,-2,0,-16,-7,19,37
117324193870,-2,-1,5,12,9,1,-3,-1
117324193870,0,4,5,10,-6,-12,-14,-1
117324209521,2,-1,3,-22,-1,5,19,3
117324209521,0,-1,-3,3,3,8,-2,-10
117324216383,3,2,2,28,2,-9,-4,-8
117324216383,-12,-3,1,-17,2,27,0,-6
117324223874,-2,-1,-3,6,4,-15,0,13
117324223874,-7,-1,4,2,1,-7,-18,-15
117324238782,8,-1,-8,-11,-8,1,23,10
117324238782,11,4,0,14,-3,-26,-14,-34
117324246994,4,-1,-4,-12,-8,-6,17,31
117324246994,1,2,3,20,12,25,-15,8
117324253845,-16,-3,-4,-49,-8,-8,-7,-15
117324253845,8,-11,2,-1,3,0,-11,14
117324261329,1,-2,1,14,3,-1,-14,-9
117324261329,-2,0,1,10,9,14,36,5
117324276353,-3,-5,-1,4,-1,10,1,-23
117324276353,-7,-2,-9,4,-7,-12,-12,31
117324283862,-6,-2,6,20,10,-14,6,-10
117324283862,12,-5,-6,-23,-13,18,-20,5
117324298843,3,3,-2,-2,0,-37,-14,24
117324298843,1,0,4,16,0,-11,14,12
117324307003,-2,0,-4,-17,-10,16,-18,-29
117324307003,-5,-1,-6,-5,9,10,6,2
117324321326,7,-4,-9,-12,-16,2,-2,-15
117324321326,-7,4,5,8,28,19,8,0
117324329541,9,4,4,12,1,-9,5,67
117324329541,2,-4,1,-4,-8,-13,21,5
117324336356,-3,-1,-3,-43,-19,12,-3,-6
117324336356,-10,2,2,28,-7,2,-4,-25
117324343837,-6,-2,-14,-21,-11,-24,-15,-29
117324343837,-3,-1,-4,-35,8,30,2,-13
117324358884,4,-3,2,51,13,-27,15,46
117324358884,2,4,2,-55,-9,10,5,-8
117324367028,-3,-4,0,1,-10,-11,-19,-4
117324367028,-8,-3,1,12,-4,-11,-14,-11
117324373886,-4,-1,0,-3,16,24,12,-10
117324373886,-1,-3,-11,-32,0,-3,3,5
117324389504,-6,-10,2,2,-15,13,9,-7
117324389504,-2,-1,-1,9,-4,-13,2,-5
117324396374,6,1,-3,-26,-2,10,-23,42
117324396374,-18,-6,-2,15,-7,-49,3,-29
117324403847,-1,2,-4,-2,12,34,8,7
117324403847,-1,0,1,14,-4,-2,4,4
117324418809,7,0,2,0,-4,-11,-21,-33
117324418809,-1,-1,-8,-34,-15,14,24,-18
117324427039,11,-3,4,46,1,-11,-10,32
117324427039,1,2,-1,-14,-2,-19,-9,3
117324433799,-18,3,2,101,12,-1,3,-76
117324433799,24,2,-12,-42,-10,4,2,87
117324449537,3,1,-3,-13,-11,-14,-6,-22
117324449537,-18,-11,-22,7,-1,11,0,-14
117324456313,-17,-2,-8,1,-6,-5,5,-36
117324456313,-27,-7,-3,46,17,8,-16,-43
117324463817,-56,0,3,-15,4,8,9,-48
117324463817,38,-9,1,-3,2,1,17,85
117324478816,-4,-6,9,-17,1,6,-8,5
117324478816,-20,1,11,13,0,-2,-1,-7
117324487072,80,-20,0,-16,-5,-8,-5,38
117324487072,-86,8,9,-5,-18,-18,-32,-128
117324493850,44,5,7,-4,16,19,34,87
117324493850,-16,2,13,8,0,17,-2,-6
117324509493,3,7,9,13,8,-30,-6,48
117324509493,12,10,4,-2,2,17,14,-33
117324516309,0,2,1,-14,-7,-6,-5,0
117324516309,9,11,0,11,-4,2,11,54
117324523843,-26,9,-6,-4,1,6,-23,-37
117324523843,90,-7,-6,-5,2,2,28,13
117324538862,-38,-8,4,-8,4,9,-4,-14
117324538862,44,-5,4,9,0,7,27,11
117324547072,-6,1,-7,-8,-8,-35,-14,-13
117324547072,10,-6,-1,0,2,0,-2,11
117324553848,25,11,-1,1,-9,-3,5,25
117324553848,53,2,-1,7,8,-3,-15,11
117324569560,-24,2,-5,-5,-6,8,-24,-124
117324569560,33,8,2,-6,-1,-2,11,66
117324576407,25,-30,-9,-8,-10,-21,-8,-50
117324576407,-15,8,-4,-1,-9,-13,-23,-60
117324583835,-12,-1,-2,-1,14,31,36,-15
117324583835,-18,-9,-5,1,1,-11,-26,6
117324598850,44,-9,-8,-5,-1,11,22,-54
117324598850,56,-14,-10,-4,-19,-28,-7,74
117324607001,84,-25,-16,-10,-6,17,-56,-73
117324607001,-7,3,5,4,8,-13,43,37
117324613874,-66,-8,3,-4,-2,-2,-17,-34
117324613874,-4,25,3,4,11,6,15,34
117324629576,-21,-8,15,0,-10,-1,32,-78
117324629576,37,13,9,0,-5,21,-8,18
117324636360,-21,-1,4,-2,4,-22,-29,-35
117324636360,-43,-9,-9,-6,-6,6,14,-34
117324643852,-118,13,-7,-4,4,11,15,-26
117324643852,35,6,-1,-5,-8,-6,57,60
117324658879,-27,-1,-1,0,-8,0,-1,39
117324658879,56,-4,-1,10,18,3,14,-23
117324667024,20,3,0,1,7,14,10,119
117324667024,-14,-1,-9,-9,-9,-21,-13,-77
117324681318,-17,7,-2,8,0,9,-8,-35
117324681318,-27,-26,-11,-11,-16,-24,-13,-3
117324689498,22,4,10,10,6,-15,-32,-24
117324689498,-128,1,-5,-10,-3,10,17,-70
117324704470,119,12,0,-6,4,2,66,105
117324704470,-47,6,9,5,8,10,-18,-31
117324705291,54,17,-6,1,0,1,3,-4
117324705291,-68,-13,-3,-9,-5,-10,-36,-79
117324718852,-31,13,-9,-12,-16,-7,-12,-23
117324718852,53,12,8,5,8,-6,27,48
117324727000,-3,4,-8,1,5,11,39,95
117324727000,-60,-4,-2,11,2,7,10,35
117324741367,9,16,-1,0,0,-14,-23,-19
117324741367,-42,4,6,2,1,5,6,-69
117324749513,-48,-1,-10,9,-5,-9,-34,-95
117324749513,21,8,-21,2,4,1,-6,-38
117324764515,33,-11,-9,7,-2,-2,26,33
117324764515,-67,-7,-14,5,0,26,8,21
117324765294,30,14,-12,-21,1,-18,36,84
117324765294,-60,-6,-14,2,3,-1,-43,-93
117324778862,-27,3,3,-9,-3,5,-26,-38
117324778862,1,0,-16,-16,-3,-17,-17,1
117324787053,-12,6,19,23,1,1,58,-18
117324787053,17,-4,2,14,-5,5,-67,-6
117324801352,-52,2,2,-27,-3,3,-54,-46
117324801352,-51,27,8,-19,-8,4,13,-63
117324809539,-80,-38,-11,9,-11,-4,7,-21
117324809539,94,19,12,9,-6,-15,-27,105
117324847060,-8,28,33,9,6,1,18,-53
117324847060,71,-8,20,24,0,2,46,114
117324855371,-30,-4,21,1,0,0,-109,-83
117324855371,-47,-2,29,-26,-7,-9,-7,-25
117324870276,32,-9,-7,-62,-12,2,-9,-27
117324870276,-100,-15,-10,34,-1,-21,-58,-128
117324871807,1,3,-9,-30,1,1,29,-23
117324871807,30,-13,-24,-31,-7,2,-8,-38
117324876985,40,-7,-10,102,10,-5,-9,40
117324876985,8,-8,-6,1,-5,-5,-20,-35
117324877799,-23,-8,-2,-50,-9,7,13,-73
117324877799,-5,-7,-3,-27,-6,8,-5,-14
117324883927,-8,-6,-11,-2,1,1,2,40
117324883927,8,22,11,14,10,-32,26,21
117324892919,62,4,5,30,12,22,-19,30
117324892919,-11,-2,2,-15,0,-17,-32,-19
117324898847,73,-2,-1,-9,-2,28,65,91
117324898847,48,-1,-7,-14,0,0,-18,36
117324907814,-3,-3,2,2,-2,-11,-11,10
117324907814,11,-13,-3,11,1,-2,-12,-21
117324921352,-61,3,-1,5,-1,-13,16,51
117324921352,0,-13,-6,-18,-10,-5,-33,-84
117324930384,6,10,-3,-8,-5,-3,29,109
117324930384,43,-4,0,18,0,2,42,29
117324943875,-59,-7,-2,-10,1,4,-11,-56
117324943875,36,0,0,-10,-2,37,-4,12
117324960996,-26,-5,2,5,-9,-64,-5,-21
117324960996,-10,2,2,7,1,4,8,-9
117324961803,-3,0,1,1,9,-1,-1,-43
117324961803,-18,-6,-4,-6,4,18,-9,14
117324967840,-9,-4,-5,1,-8,1,-39,-44
117324967840,32,2,1,8,3,18,31,38
117324981322,13,-7,1,-2,4,-17,3,18
117324981322,-39,-21,-6,-7,-9,5,-12,-37
117324990340,35,-2,-3,8,-2,1,6,17
117324990340,-9,-3,-4,-4,-3,-22,-23,-18
117325003902,-23,-4,-3,1,2,5,17,-21
117325003902,-11,-5,-4,5,0,-22,-8,-55
117325012891,9,1,-3,-4,9,20,17,12
117325012891,29,-6,-3,3,6,14,9,57
117325018807,-53,-13,-5,-6,-9,-3,-17,-109
117325018807,-40,-7,-2,-5,-7,-16,-4,5
117325027851,-7,-10,-4,-5,-4,12,-1,0
117325027851,-8,1,1,9,-4,-24,0,-40
117325041398,-17,0,-2,-2,0,1,-17,-20
117325041398,9,-9,-5,-11,0,-2,3,12
117325050314,40,5,2,2,2,16,18,31
117325050314,-15,0,0,3,2,10,11,13
117325063853,13,-4,-6,-11,-6,-11,-14,21
117325063853,20,0,3,-4,-6,-19,-7,7
117325072810,-3,3,1,3,2,8,8,-19
117325072810,-2,0,-1,-3,0,-9,-2,-8
117325078863,-1,4,2,2,3,11,-12,2
117325078863,2,-5,-1,1,5,3,7,-2
117325087812,-22,-3,-3,0,-3,-4,-5,-17
117325087812,17,2,0,-2,-4,9,19,48
117325101466,-6,3,0,-1,0,-10,-12,-22
117325101466,-1,3,2,-6,-9,12,-1,15
117325110321,7,-11,-5,-6,-2,-31,-7,-7
117325110321,-5,-3,2,7,5,31,11,-6
117325123823,-16,-6,-10,-7,-6,-17,-14,-21
117325123823,36,11,1,4,3,-1,5,17
117325132845,-3,3,2,-23,-11,-3,17,34
117325132845,3,-4,-4,4,3,3,-14,39
117325138878,2,-32,-3,-13,-4,12,6,-2
117325138878,-21,-13,-2,5,-1,1,4,-46
117325147838,0,0,0,9,6,-3,-29,6
117325147838,-16,1,0,-5,-6,4,-12,-29
117325161348,-1,6,-1,8,-5,-32,7,11
117325161348,6,8,-2,3,6,10,8,23
117325170319,11,-15,0,-5,-10,6,9,-13
117325170319,-1,-1,-3,-3,-3,-20,-19,-17
117325183796,-39,-6,-9,10,2,17,-4,-43
117325183796,4,-7,1,-5,-2,-22,-13,27
117325192851,13,5,-4,9,2,12,16,11
117325192851,-18,2,-1,-10,4,-8,-11,-49
117325198826,-9,8,5,-8,-2,-6,-1,-9
117325198826,15,6,4,11,2,3,-1,-5
117325207812,-3,16,5,8,4,13,3,-16
117325207812,2,-5,-4,6,-3,-3,21,18
117325221823,15,6,4,5,7,-6,3,2
117325221823,-7,1,-4,-12,-1,22,-8,13
117325230373,-1,2,4,-1,-5,-23,0,28
117325230373,13,2,-1,1,-4,6,6,43
117325267049,11,7,5,5,-5,-14,-9,14
117325267049,-8,-11,-3,-30,2,11,1,10
117325275328,1,-4,-6,4,1,12,7,13
117325275328,-21,-3,3,3,-1,-22,-8,-27
117325281997,43,-3,2,22,8,3,1,26
117325281997,-19,0,-2,-17,-15,-2,3,-9
117325282789,-4,3,12,-53,-5,-7,-9,-35
117325282789,4,-4,-5,-6,-2,6,2,-1
117325312018,4,3,10,7,-6,15,7,6
117325312018,-5,3,-6,-16,0,-12,-2,-24
117325320278,-6,-3,-5,38,9,8,-4,-8
117325320278,-34,-1,-3,-4,-3,-3,8,-9
117325327713,-5,-3,3,-16,-3,5,-2,-1
117325327713,-1,9,7,32,8,-20,3,9
117325328508,-2,4,-7,-6,1,14,-4,0
117325328508,7,-2,-5,2,-14,-15,-5,-10
117325334489,-4,1,-8,27,5,-4,-11,-5
117325334489,-10,-1,0,-90,-24,2,4,-1
117325335246,-2,-3,-4,38,9,-3,-3,1
117325335246,6,1,0,9,8,3,3,-11
117325341333,-5,-1,-9,-1,1,8,8,6
117325341333,11,6,4,7,3,-2,-1,4
117325350330,-2,-2,-4,5,-8,-10,0,3
117325350330,9,1,4,-8,3,4,-4,1
117325363796,-4,-4,-5,-13,-2,-3,0,-4
117325363796,-4,-7,-7,14,1,1,-5,1
117325372850,2,-2,-2,-10,-1,-6,-2,25
117325372850,8,0,1,3,0,3,7,-3
117325378826,3,3,-1,-10,3,11,6,8
117325378826,-6,-5,-3,20,-2,-3,-5,-2
117325387803,-3,-2,-4,-6,-3,-3,-17,-14
117325387803,5,1,1,-13,-3,-11,-2,0
117325401319,-2,-1,7,0,-4,4,1,4
117325401319,1,2,6,22,7,0,10,2
117325410349,-3,-4,-10,-13,-7,-1,2,-9
117325410349,0,0,-3,9,5,-11,-11,-6
117325423825,-4,-1,-1,-9,-3,0,-1,-7
117325423825,-4,-3,-8,16,2,4,1,-7
117325432817,1,0,-2,-4,2,0,-2,-2
117325432817,2,1,5,2,0,-1,1,-7
117325447741,1,-4,2,-12,-7,-2,-3,6
117325447741,-1,3,3,4,4,-7,-5,-2
117325449280,2,-8,2,3,2,10,10,4
117325449280,-1,-2,-6,-6,-3,5,2,-4
117325461341,-3,3,-1,-10,-1,-9,-5,-2
117325461341,-1,-7,-1,4,-2,-1,-5,5
117325470315,-13,-6,-2,-9,-2,-3,-12,-5
117325470315,21,3,-1,0,1,8,13,21
117325483902,0,-4,-2,-1,1,-12,-5,-1
117325483902,1,7,-3,9,1,8,-5,-9
117325492851,-10,2,3,6,-3,-9,-2,-9
117325492851,-9,3,8,-2,-2,0,-10,-47
117325507687,1,-1,-4,-1,-4,-2,-12,13
117325507687,6,-1,0,1,-7,-12,7,11
117325509331,-8,-6,-6,-2,2,9,-6,-15
117325509331,-8,9,6,3,2,-6,-6,-21
117325521306,-3,-8,-6,-6,-5,5,2,-1
117325521306,-9,-4,-4,2,-3,-10,-9,-16
117325530385,7,1,3,0,2,4,10,19
117325530385,-10,-2,0,1,-3,-5,-6,-42
117325543814,12,5,4,1,-1,-2,8,61
117325543814,0,3,1,4,5,10,12,-5
117325552888,-22,-3,2,0,0,5,11,-16
117325552888,7,-6,-6,-1,-2,23,14,49
117325567782,-10,6,-1,-4,2,-31,-14,-39
117325567782,4,2,1,-3,-6,3,-5,51
117325569247,8,-9,2,3,4,-8,0,15
117325569247,-7,-10,-11,-9,-5,-4,-12,-1
117325581372,9,3,-4,-3,0,30,17,-7
117325581372,5,2,8,5,11,0,3,-30
117325590304,18,4,-3,-3,0,1,8,48
117325590304,-1,-4,1,-1,-2,-4,-7,29
117325603844,-9,-2,0,-7,-9,-23,-31,-38
117325603844,-9,2,-3,-3,-1,16,17,-23
117325612768,26,2,-4,0,1,6,1,51
117325612768,-16,-1,-2,3,3,-20,-4,-59
117325627628,-2,-12,-1,2,0,5,1,-18
117325627628,-8,-10,-11,0,-1,-5,10,-38
117325629261,-9,9,3,1,-12,-11,3,-6
117325629261,6,3,-4,0,1,0,-8,-3
117325650225,-12,9,7,8,-3,-10,-14,-35
117325650225,11,-1,-5,-2,-2,17,10,26
117325651820,-22,-1,-4,-4,5,7,-14,-128
117325651820,13,-1,4,-3,-3,-6,16,22
117325663866,-7,-5,-15,-3,2,7,-8,-10
117325663866,-3,-11,-6,-4,-2,3,-11,-1
117325672820,1,6,7,-6,-9,-19,-17,16
117325672820,-6,14,2,-2,2,-6,-6,15
117325687689,16,-1,-2,-6,-4,1,22,23
117325687689,4,-2,3,-5,-7,-27,-12,18
117325689284,-6,-7,0,-1,5,21,26,-44
117325689284,-22,2,1,-5,-7,-4,-13,-18
117325701349,12,12,-2,7,16,11,-6,10
117325701349,-62,-29,-2,-2,-4,-1,-2,-108
117325710362,-1,-6,-2,1,3,-12,-12,29
117325710362,-32,-5,-2,1,-1,3,8,34
117325724367,50,-3,-4,-5,-9,-7,-55,-36
117325724367,7,11,-8,0,11,23,18,27
117325732835,-1,-6,-5,1,-9,-31,-7,0
117325732835,75,-24,-3,0,1,0,7,12
117325747691,-17,4,-4,-9,-11,-7,-8,44
117325747691,-27,-12,5,1,-3,16,8,-7
117325749313,-51,5,15,3,0,-30,-45,-66
117325749313,58,9,-13,-8,2,11,7,78
117325761327,-82,-20,10,-2,1,30,46,-54
117325761327,43,16,7,-2,0,-17,-19,15
117325770315,-4,13,-2,-3,1,9,25,6
117325770315,-46,-9,5,-2,-3,-1,-8,-72
117325783916,6,-2,-34,-2,-7,-9,-17,-60
117325783916,10,-4,-10,-2,-3,2,28,-38
117325800415,41,-6,-4,2,4,-7,-48,-23
117325800415,-68,-1,0,-1,-8,-3,-39,-10
117325807657,77,-24,-18,1,6,-17,-39,34
117325807657,0,5,-12,1,1,13,25,20
117325809321,36,27,-8,3,-1,6,21,40
117325809321,-32,-7,1,0,1,30,25,-30
117325821309,-31,1,32,3,3,2,-13,12
117325821309,-14,-2,23,-6,-15,-47,-58,-36
117325830342,-31,-6,23,-6,-1,13,17,13
117325830342,-70,14,14,-2,-8,-32,-40,-58
117325843841,96,13,36,4,0,27,91,85
117325843841,12,9,19,0,2,-6,-14,48
117325852911,-19,14,27,0,6,33,66,52
117325852911,45,1,15,3,3,-28,-43,-60
117325867705,-25,13,-5,-8,-11,-16,4,-9
117325867705,44,5,26,6,2,12,-13,-25
117325869287,40,-9,-6,-5,-6,-16,8,24
117325869287,15,-2,7,-1,-3,2,21,31
117325881324,-18,6,30,-10,-2,50,-8,-23
117325881324,57,3,22,-3,-8,-38,6,35
117325890357,-25,-10,40,0,1,0,-57,-33
117325890357,27,2,28,-6,-6,4,53,3
117325903874,-11,-10,11,-5,-4,6,13,-15
117325903874,-32,-5,-13,3,11,12,-1,10
117325912825,22,-14,-25,-5,-11,-4,-32,-32
117325912825,32,-4,-10,5,4,13,3,27
117325927690,-25,-3,-12,-2,-5,-30,-9,-19
117325927690,-17,-6,-85,-3,-3,27,47,11
117325929358,-6,-10,-99,-1,6,5,6,7
117325929358,17,5,-91,1,4,-8,32,20
117325941345,-35,-4,-91,-4,-7,-23,-20,-9
117325941345,0,-4,-80,2,-4,-1,37,39
117325950311,1,1,-42,1,-5,3,-9,-16
117325950311,-15,-2,3,-8,-4,-9,2,-9
117325963840,1,10,50,12,12,5,11,1
117325963840,-10,4,38,0,-3,-21,-6,16
117325972854,-2,-6,39,-3,-13,-3,-14,8
117325972854,-7,-7,33,2,4,38,7,5
117325987722,-2,-2,-34,2,14,-5,3,5
117325987722,-26,-2,-24,-5,-4,-13,-44,-34
117325989323,0,-4,-32,-2,-1,-8,5,15
117325989323,2,-1,-14,-1,-7,-11,-28,6
117326001323,-4,-5,-1,-1,-2,11,23,7
117326001323,-9,-9,2,-11,-5,14,-22,-9
117326010339,3,1,35,-1,-4,-14,-3,4
117326010339,8,0,51,-4,-1,-23,4,11
117326023802,-18,-2,53,4,5,18,9,-21
117326023802,15,6,71,1,-1,-15,-2,51
117326032831,-5,1,42,-4,-6,4,15,-3
117326032831,-8,-5,4,2,2,0,-12,-2
117326063390,-19,0,15,-1,2,2,-2,-9
117326063390,-4,-3,6,0,-2,-10,-8,-17
117326064959,-7,-1,18,-1,0,-8,2,-18
117326064959,11,2,1,0,2,8,-23,3
117326065779,13,1,0,-2,0,-4,1,2
117326065779,-6,2,3,0,4,17,-12,-23
117326077818,0,-3,-19,1,-9,-11,-6,-1
117326077818,-13,-2,-27,-4,-4,-19,0,-11
117326083809,-9,-3,-23,-1,-6,-5,-21,-18
117326083809,23,-3,-23,-4,-5,-1,-16,58
117326092868,-3,-4,-23,0,10,5,-3,-18
117326092868,-3,0,-17,0,-3,6,6,-5
117326107667,-2,-5,-21,-2,-10,-24,-9,-12
117326107667,-15,-5,-8,-2,-2,-4,3,-26
117326109341,-30,-3,-7,3,1,-2,-1,-1
117326109341,6,-7,-22,0,11,26,19,21
117326121367,1,0,-10,1,-2,-12,7,7
117326121367,-4,9,-2,1,1,-5,5,-21
117326130349,2,-3,-7,-2,1,10,13,11
117326130349,-28,-6,-8,-1,-5,11,-13,-58
117326143848,17,4,-8,-3,-1,9,2,18
117326143848,-16,-4,-6,1,-10,-37,-17,-5
117326152862,9,0,-4,1,2,10,14,15
117326152862,-7,0,-6,-1,6,16,-5,-20
117326167667,3,1,-5,-2,6,8,-11,51
117326167667,6,-5,-3,-3,-1,9,8,-2
117326169306,3,-3,-3,-4,-4,-12,-2,-14
117326169306,-5,-1,-4,-3,-9,-15,-12,4
117326181353,-6,-1,-4,-1,-3,0,-10,-6
117326181353,1,-4,105,4,6,4,12,-15
117326190322,-2,0,119,-3,-5,-2,5,5
117326190322,8,0,127,-2,-2,-5,3,8
117326203814,-3,-5,34,-4,-3,-1,4,-17
117326203814,-10,0,-67,-1,-3,0,-16,-15
117326212816,4,1,-124,0,3,9,5,-8
117326212816,4,0,-63,-2,-6,1,-4,2
117326227040,-4,-2,-50,2,-4,-21,-7,-8
117326227040,-4,-2,-109,-2,-1,-13,-11,-8
117326233829,4,-5,-120,0,1,-8,2,6
117326233829,3,2,-128,1,4,13,-1,3
117326241367,-1,-3,-125,-2,-9,-14,-3,-5
117326241367,-1,-2,-114,0,2,14,12,-5
117326250382,-1,0,-58,0,2,4,-9,-2
117326250382,-5,-3,-65,2,-6,-26,-8,0
117326263816,6,-2,-32,0,5,15,15,44
117326263816,-1,-1,-2,-3,-5,-2,-2,-29
117326278834,15,0,19,-5,0,6,4,48
117326278834,-4,-2,29,0,-2,-6,11,12
117326287027,2,1,91,-1,-2,-15,4,-8
117326287027,-14,-4,121,4,4,11,-16,-20
117326293845,0,0,127,0,-4,-3,4,-7
117326293845,1,0,90,-1,-3,-2,-5,-7
117326301387,-2,-1,45,-3,-3,-2,2,-2
117326301387,3,0,52,1,0,-16,-5,10
117326310310,-6,1,51,-1,4,10,1,-22
117326310310,3,-1,28,-3,1,-3,1,7
117326323823,-6,0,13,0,1,4,-9,-32
117326323823,2,-2,12,-4,-3,7,0,2
117326332852,-6,-1,8,-2,0,-3,-7,-7
117326332852,-3,-1,7,0,1,1,2,-6
117326355208,1,-3,37,0,0,-1,0,4
117326355208,0,-1,32,-2,-2,1,-1,-5
117326356794,-1,-1,26,0,-7,-12,4,-3
117326356794,1,-2,43,-1,-2,-1,-12,1
117326370231,-2,-1,60,-1,0,-10,-9,-8
117326370231,-2,-2,56,1,2,14,3,-2
117326371777,-4,-2,30,-2,0,-2,-8,-9
117326371777,1,-1,15,-3,-2,-3,7,1
117326383832,-4,-2,-1,-1,-4,-1,1,-4
117326383832,-5,0,4,-6,-3,4,-7,-41
117326392891,15,2,3,2,5,-12,3,40
117326392891,11,1,-9,1,2,15,9,44
117326407016,0,-1,-19,-1,2,1,1,0
117326407016,-2,-3,-20,-2,-4,-1,-1,-6
117326413850,-7,-4,-19,-2,-3,4,-4,-13
117326413850,-4,0,-16,0,-2,-16,-7,-17
117326430212,-1,-2,-14,-4,-5,-8,-7,0
117326430212,1,1,-13,-1,3,17,12,20
117326431816,0,3,-7,1,-5,-24,-11,-9
117326431816,-1,-1,-4,3,6,21,4,-3
117326443830,-3,-4,-7,-2,-2,3,-2,-6
117326443830,-1,0,-10,-4,-3,-6,-4,4
117326452840,-5,-4,-4,-2,-4,0,-4,-5
117326452840,-3,-2,-6,-3,-3,-8,2,-18
117326467060,5,-12,-4,-1,0,12,-1,1
117326467060,2,-2,-6,1,-2,-22,-10,8
117326473869,-3,-1,-7,1,4,5,1,-6
117326473869,0,0,-1,1,1,1,1,1
117326490217,-2,1,-9,-2,-1,2,4,-9
117326490217,1,0,-5,-3,-3,0,-5,4
117326491778,-5,-5,-6,-3,-4,1,-2,9
117326491778,-3,-2,-5,-2,-5,-13,-3,-6
117326503884,-3,2,-3,-3,6,11,1,-3
117326503884,1,-1,-3,1,-2,-3,2,9
117326512798,-5,0,-7,-2,-2,3,-2,-12
117326512798,-2,-2,-4,0,0,0,0,-3
117326527056,-3,-1,0,8,-5,-11,-6,-1
117326527056,-2,-3,-8,-16,-2,21,1,-7
117326533858,-4,-1,-6,3,-2,-21,5,-8
117326533858,1,2,-1,1,3,-1,-10,2
117326550213,-1,1,-3,0,1,3,3,-4
117326550213,-1,0,-3,8,0,2,0,4
117326551798,-2,0,-5,-1,-5,15,4,-7
117326551798,1,-1,-4,2,-7,-18,-4,-9
117326563824,-1,1,-2,-8,0,-3,-2,8
117326563824,-2,0,-5,-4,-2,-5,2,1
117326572831,2,-2,-2,5,1,11,0,-2
117326572831,-3,-1,-2,2,0,-2,-1,-7
117326587022,-2,0,0,10,0,2,-3,-2
117326587022,-1,0,2,22,2,-13,-2,-2
117326593801,0,-1,-4,-39,-10,-2,-2,-4
117326593801,-3,-2,-7,3,-3,2,-1,1
117326610193,-1,-2,-2,-4,-3,-2,1,-3
117326610193,0,-2,-4,-21,-3,-1,-2,6
117326611795,0,0,-3,8,4,1,-3,-6
117326611795,-3,-1,0,-3,-1,2,2,1
117326623853,-2,0,-3,-8,-3,-13,-1,-1
117326623853,-1,-2,0,8,2,2,-1,-3
117326632804,-1,-2,-2,3,0,2,1,-2
117326632804,0,-1,-2,-4,-2,1,0,-5
117326647031,-1,-1,-3,1,0,-3,-3,10
117326647031,5,-1,-1,-2,-1,-2,0,3
117326653851,-3,-1,-2,3,3,-1,-1,-3
117326653851,1,-1,0,-1,-2,0,0,9
117326670221,-3,1,-3,4,-3,-2,-1,-10
117326670221,-1,0,0,-14,0,4,-1,-2
117326671806,0,-2,-2,7,0,-1,-2,3
117326671806,-2,-3,1,-2,0,-4,-1,-8
117326683798,-1,-1,-1,-5,0,0,-1,-2
117326683798,-3,-1,-4,3,-1,-3,1,1
117326692856,-2,0,-3,-1,-6,-1,-3,-5
117326692856,0,0,-1,-6,1,0,-2,1
117326707063,0,-1,-2,-1,0,0,-2,-4
117326707063,0,-2,1,23,0,-2,-1,3
117326713783,-2,-1,0,-1,2,-1,-3,-4
117326713783,-4,-3,-4,-10,-3,1,-2,1
117326730199,1,0,-2,0,2,1,-1,0
117326730199,-3,-1,-3,-4,-3,-3,-3,-6
117326731830,-1,0,-2,5,2,0,-1,-2
117326731830,-2,0,-1,2,0,-1,0,0
117326743896,-3,-1,-3,-12,-3,0,1,-3
117326743896,-3,0,1,2,1,-4,-2,3
117326760399,0,-3,1,-5,-1,-1,0,1
117326760399,-1,-1,-1,1,2,-1,2,0
117326766972,-3,-2,-1,3,-1,0,-1,-12
117326766972,-1,-2,-1,-6,-2,0,-1,-1
117326773809,-3,0,0,-5,-3,1,-1,-2
117326773809,2,0,-1,-1,-2,-2,-1,5
117326790214,-1,-3,-1,-1,-2,-1,-2,-5
117326790214,-2,-1,-4,-3,0,-2,-1,-3
117326791798,-2,-1,-3,2,0,-2,-3,-3
117326791798,-1,0,-3,-1,1,-2,3,-2
117326803813,1,-1,-1,-1,-2,-1,1,4
117326803813,-5,-1,0,0,0,0,-1,-4
117326812842,1,-3,0,-3,-1,-2,1,4
117326812842,0,-2,-1,-1,-3,-1,-2,0
117326826766,0,0,-1,0,0,1,0,1
117326826766,-1,-2,-2,-2,0,-2,-1,-5
117326835317,1,0,1,1,0,-1,-1,-5
117326835317,-1,-1,0,-1,0,-1,-1,-2
117326850225,-3,0,-1,0,0,-3,-1,-2
117326850225,0,-4,0,-2,0,1,1,-1
117326851768,-1,0,-2,-1,-1,-1,-3,1
117326851768,-3,-2,0,-1,-1,0,-1,-4
117326863888,-7,0,-1,0,-2,-3,-3,9
117326863888,-3,0,-2,-1,-2,-2,-4,-4
117326872838,0,-1,-2,-1,-3,0,0,5
117326872838,-1,-2,-3,-1,-3,0,-1,1
117326887048,0,0,-1,-1,-3,1,-1,-4
117326887048,4,-2,0,-1,-1,-1,-2,-5
117326893873,-1,0,1,-4,-1,-2,0,4
117326893873,1,-1,-2,-4,-5,-2,-3,-5
117326910167,4,-2,0,3,1,0,0,1
117326910167,-1,-1,-5,-1,3,0,0,-14
117326911763,-19,-2,1,1,1,-1,-2,10
117326911763,-6,0,4,2,-1,-3,-3,-13
117326923771,7,-5,-14,-2,0,1,-1,-9
117326923771,-7,-1,12,-7,-5,-2,-2,9
117326932828,-6,-22,0,0,-2,-2,-2,-12
117326932828,-12,10,-3,-1,-1,-2,-4,-10
117326947049,-7,-8,4,4,0,0,0,2
117326947049,8,5,-1,-4,-1,-1,0,7
117326961326,0,2,-6,-3,-1,-1,0,-4
117326961326,2,-4,-4,-1,-1,1,-1,-2
117326970241,-16,-1,3,-3,0,0,-3,24
117326970241,-23,-24,-10,-3,-3,-1,-2,8
117326971803,26,5,3,1,-1,-2,-1,11
117326971803,8,18,1,-1,3,-1,0,-2
117326983864,1,-11,0,-4,-1,-1,-2,-12
117326983864,-21,-8,-1,0,-1,-2,-5,4
117326992823,-6,2,-3,-1,-3,-3,0,2
117326992823,1,-4,-3,-2,-1,-1,-2,-6
117327007059,5,2,-2,-2,-2,0,0,7
117327007059,3,6,-2,0,-2,-2,-1,-4
117327013833,0,-1,-1,-2,1,-1,1,-19
117327013833,12,-5,2,-1,0,-2,1,23
117327030222,-7,2,2,-4,-2,-4,-2,-17
117327030222,6,-3,-2,-1,-2,-1,-1,2
117327031776,-5,3,-1,0,-1,-1,-4,-3
117327031776,-2,-10,-2,-1,-1,-1,0,-6
117327043846,6,2,-3,-1,-3,-2,-1,5
117327043846,7,4,-1,2,-1,-1,0,-7
117327052886,-3,-1,-4,-1,0,0,-1,-2
117327052886,-5,-3,-2,-2,-1,-2,0,2
117327067045,5,0,0,0,-1,0,1,-1
117327067045,4,5,1,-2,-2,-2,-2,2
117327073880,-3,-1,-2,-2,-1,0,0,-5
117327073880,-3,-5,-2,0,-1,-1,-1,-1
117327090216,4,1,-1,-3,-2,-1,0,-13
117327090216,1,-1,-1,0,0,-1,1,6
117327091849,0,2,1,-1,0,0,0,4
117327091849,-2,-1,-1,-1,-2,-2,0,-3
117327103829,7,4,0,-1,-1,-1,-2,4
117327103829,-9,18,-1,-1,0,-1,-2,-14
117327112868,5,-2,-1,-1,0,0,1,-6
117327112868,-3,-3,-2,-1,-1,-1,-2,4
117327127061,-8,-3,-2,-3,-2,-1,-3,-2
117327127061,8,4,2,-1,-1,1,1,-2
117327133763,-5,-1,-1,0,-2,-2,-1,-3
117327133763,-1,-4,0,-1,0,1,-1,-3
117327150172,3,1,-2,0,-1,-1,0,5
117327150172,-9,-5,-2,0,0,1,-1,0
117327151740,0,-2,-1,-2,-2,-3,-2,0
117327151740,1,1,-1,-2,-1,-1,-2,-1
117327163835,1,-4,0,0,0,-3,1,-3
117327163835,7,4,0,1,0,0,0,0
117327172787,1,-6,0,-3,-5,0,-1,-2
117327172787,-7,-2,-2,2,2,0,-1,0
117327187459,-2,-1,-1,-2,-1,-1,-1,-3
117327187459,3,0,-2,-1,-3,-1,-2,-2
117327193842,-4,0,-1,0,-1,-1,0,1
117327193842,4,-2,1,-3,-2,-1,0,1
117327209564,-12,-2,-2,-1,2,-1,-2,-2
117327209564,4,-8,-1,0,-3,-2,-1,5
117327216346,-8,-1,-2,-4,0,-1,-3,-14
117327216346,-3,-2,1,4,1,-2,-1,-1
117327223794,4,2,-1,-2,-2,-3,0,0
117327223794,-5,-21,-4,-3,-2,-2,-1,-2
117327232866,1,3,-1,2,-1,-2,0,8
117327232866,-2,-1,-3,-2,0,0,-1,-5
117327247023,-4,-4,-2,1,-1,1,-1,-4
117327247023,3,0,0,-4,0,-2,-1,-1
117327253845,2,1,-2,0,0,-2,0,0
117327253845,-1,-4,-1,-3,-1,0,-1,0
117327269533,-1,4,0,0,-1,-1,-1,2
117327269533,-1,-2,-2,-3,-1,-1,0,0
117327276323,10,-2,-2,-1,0,-1,-1,1
117327276323,-5,2,0,0,-3,-2,-2,-2
117327283847,0,-3,-1,1,-2,-1,-2,-1
117327283847,-1,1,-1,0,-1,-2,-2,-7
117327292808,-2,-2,-2,-1,-1,1,-2,0
117327292808,0,-1,-3,-1,-2,-1,-2,1
117327306983,-2,-1,-2,0,0,-1,-2,3
117327306983,3,-1,-1,0,-1,-1,-2,-8
117327313808,-3,1,-1,0,-2,-1,0,3
117327313808,-1,-1,0,-2,-2,0,0,0
117327329514,-12,-5,-2,-3,-1,-3,-1,-2
117327329514,-3,1,-2,0,-2,-1,0,5
117327336354,8,2,0,0,-1,1,0,1
117327336354,0,-4,-1,-2,0,-2,-1,-3
117327343778,1,0,0,0,-1,-1,0,-3
117327343778,1,-1,0,0,-1,1,0,3
117327352856,-3,0,-2,0,-2,0,-3,0
117327352856,-2,-2,-1,0,-2,-2,-1,-1
117327367026,3,0,-1,-3,-1,-1,-1,0
117327367026,-4,-1,-1,-1,-2,-3,-2,-6
117327373824,-4,-2,1,-1,-1,-1,-1,4
117327373824,0,-1,-1,-3,0,0,-1,-3
117327389513,-1,-1,-1,-1,-1,0,-1,-1
117327389513,-1,0,-2,-1,0,0,0,-1
117327396315,-4,-4,0,-1,-2,-3,-1,-3
117327396315,1,-1,-1,-2,0,-1,-2,2
117327412669,2,-2,0,0,-2,1,-1,-3
117327412669,-5,-16,-5,-4,-2,-2,-4,5
117327414268,0,3,1,0,1,-1,-1,-3
117327414268,-2,-2,0,-1,-2,-1,0,1
117327427001,-2,-2,-1,-2,-2,-1,-1,0
117327427001,2,3,1,-1,-1,-1,-1,-4
117327433864,-3,-3,-3,-2,-3,-1,-2,-2
117327433864,-1,-1,-3,1,0,0,-1,-1
117327449512,0,3,-1,0,-1,-1,-1,-3
117327449512,0,1,1,-1,-2,-1,0,1
117327463823,-1,-2,-1,-2,-1,-2,0,-1
117327463823,0,2,-1,-1,-2,-1,-1,-4
117327472704,3,-2,-3,-2,-2,-1,-1,8
117327472704,-1,0,-1,-1,0,0,1,-1
117327474327,-4,-1,1,-2,-1,0,-2,-3
117327474327,0,-2,-1,-1,-2,0,0,1
117327487050,-2,-1,-1,0,-1,-2,-1,-2
117327487050,-2,2,-1,0,-1,0,-1,-2
117327493817,-1,1,-2,-1,0,-1,0,-2
117327493817,1,0,-1,-1,-1,-1,-2,-1
117327509527,-2,-3,-1,0,0,-1,-2,-4
117327509527,-6,2,1,0,-1,-2,0,-5
117327516285,-17,-3,-2,-2,-1,-1,-5,-12
117327516285,2,-1,-3,-5,-3,-2,-1,4
117327532665,-2,-4,-1,-1,-1,-1,-2,-2
117327532665,1,0,0,1,0,-1,-2,-2
117327534314,-2,-4,0,0,0,0,0,1
117327534314,-3,-3,0,0,-2,-1,-1,-3
117327546996,0,1,-1,-1,-2,-1,-1,-2
117327546996,1,2,-3,-2,-2,0,-1,0
117327553814,3,-1,-2,0,1,-2,-2,-1
117327553814,0,-1,-2,-1,0,-1,0,0
117327569487,1,-1,0,-1,0,-1,0,-2
117327569487,9,-13,-3,0,0,-2,-1,1
117327576350,0,8,1,2,-1,0,-1,1
117327576350,-4,1,0,-1,0,-3,1,-2
117327592686,-2,-3,-2,-1,-1,-3,-3,-1
117327592686,0,2,-1,-2,-3,-1,-1,0
117327594309,2,-3,-2,-1,-2,-1,-1,0
117327594309,-1,-2,-1,0,-2,-1,-1,-2
117327607092,0,2,0,0,0,0,-1,-2
117327607092,-4,0,0,-1,-2,0,-2,2
117327613797,0,-1,-3,0,-1,-1,0,0
117327613797,-4,0,-2,-1,-3,0,-2,-4
117327629474,-2,-4,-1,-2,-2,0,-1,1
117327629474,-2,0,0,-1,-1,-1,-1,-3
117327636283,-1,-4,1,-4,-2,-2,-1,-1
117327636283,1,-1,-2,-3,0,-1,-1,1
117327652633,-2,-1,0,-2,-1,-1,-1,-5
117327652633,-1,1,-3,-2,-1,-2,1,-1
117327654225,4,0,-2,-1,-4,-3,-1,-1
117327654225,-7,-1,-1,-1,-2,0,-1,-4
117327667001,-4,0,-1,-3,0,1,-2,-3
117327667001,1,-1,1,-1,1,-2,-1,5
117327673826,2,-1,0,-1,-1,-2,-1,3
117327673826,0,0,-3,0,-1,-1,0,2
117327689494,-1,-2,-1,-1,-1,-2,-1,2
117327689494,-4,0,-1,-1,0,-1,1,-5
117327696301,-3,-3,-2,-1,-2,0,-1,-3
117327696301,0,-1,2,0,-2,0,-3,1
117327712702,-1,1,-2,0,-1,-1,0,0
117327712702,0,0,-1,-1,-1,-2,-1,-2
117327714306,-2,-3,-1,0,-1,-2,-1,0
117327714306,0,0,-2,-1,0,-2,-2,-2
117327727039,1,-1,0,2,-1,-1,-1,1
117327727039,-1,-1,-2,-1,-3,0,-2,0
117327741323,-2,-2,-1,-2,-2,-2,0,-1
117327741323,-3,-3,-1,-2,-1,-1,0,-3
117327749541,-1,-1,0,-1,0,-2,-3,-3
117327749541,0,1,-1,-3,0,-2,-2,-1
117327756313,-2,-3,0,-1,-2,0,0,-2
117327756313,2,-3,-1,-2,-1,-1,-2,4
117327772641,3,-1,0,-2,-2,-1,-1,-3
117327772641,-9,0,0,0,-1,0,-1,8
117327774279,-1,-2,-4,0,-2,-1,-2,0
117327774279,-1,-1,0,-1,0,-1,-1,-2
117327795169,-1,-3,-2,-3,-1,-2,0,-1
117327795169,3,-1,-1,-1,-1,0,-1,-1
117327796809,-1,0,-1,0,-1,-1,-1,-4
117327796809,-1,0,1,-2,-1,0,0,-1
117327809542,5,0,-1,0,-2,-1,-2,-1
117327809542,-4,-1,-1,0,-1,0,-1,-6
117327816336,-2,0,-3,-2,-2,-1,-1,1
117327816336,-1,0,0,0,-1,-2,-1,-3
117327832699,-2,0,1,-2,0,-2,0,0
117327832699,-1,-3,-1,-2,0,-3,-2,-3
117327834298,0,-1,-1,-2,-1,-2,-3,0
117327834298,3,0,-2,1,0,-3,-2,-1
117327846495,-2,0,0,-1,-1,-2,-1,-2
117327846495,-2,-2,0,0,-3,-2,-1,-6
117327855321,-1,-1,0,0,0,-2,0,-1
117327855321,-1,-2,-1,0,-2,-1,-2,-2
117327869489,-1,-2,-1,0,-2,0,-3,1
117327869489,2,-2,-1,0,-1,0,0,-1
117327876295,0,-1,0,0,-1,-1,1,-2
117327876295,-3,-1,-2,-4,-2,-2,-2,-2
117327892659,-3,0,-1,-1,-1,-2,0,-1
117327892659,-1,0,-1,-1,-1,-2,-1,1
117327894203,-1,-1,1,-1,0,-1,-1,-1
117327894203,-2,-4,-2,-1,-2,1,0,1
117327906333,-2,1,-4,-3,0,0,0,-1
117327906333,-4,0,-2,-1,-2,0,1,-1
117327915341,-1,1,-1,0,0,-3,-2,0
117327915341,-2,-1,0,0,-1,-2,-1,-3
117327929587,1,1,-3,0,-1,-1,-3,-5
117327929587,2,-7,-3,0,-1,1,-1,8
117327936338,0,5,2,-1,1,1,-1,0
117327936338,3,-1,-1,0,-1,0,-1,-1
117327952668,-4,-2,-1,-3,-1,0,-1,-1
117327952668,-1,-1,-1,-1,-2,-1,-1,-5
117327954314,-3,-2,-2,0,-2,-1,-1,-4
117327954314,0,-2,-2,-2,0,-3,0,3
117327966309,-1,-1,0,-1,0,0,0,0
117327966309,-3,1,0,-2,-1,-1,-2,-3
117327975343,-1,-3,-4,-3,-2,-1,-2,0
117327975343,-1,0,-1,1,-2,0,-1,-3
117327989527,-2,-3,-2,-1,-1,-1,-2,-1
117327989527,1,0,0,0,-2,-1,0,-1
117327996313,-2,-1,-2,-5,-1,0,0,0
117327996313,-1,-1,1,-1,-1,-1,-1,-1
117328012674,-3,-3,-2,0,-4,-2,0,-1
117328012674,-1,-1,0,2,0,-1,-2,-2
117328014297,-1,-2,-1,-1,0,0,-1,-7
117328014297,-2,0,1,-1,0,0,-1,7
117328026290,-1,-2,-2,-1,0,0,-2,0
117328026290,0,0,-2,-4,-1,0,-1,-2
117328035304,1,-2,-2,-2,-3,0,1,-1
117328035304,-1,-1,-3,-2,-1,-2,-1,-4
117328049559,-1,0,0,0,-1,0,-1,-2
117328049559,-3,-1,-1,-1,-1,-3,0,-2
117328056357,0,-3,0,-1,-1,-2,0,2
117328056357,0,0,-1,-2,0,-1,0,-3
117328072697,-2,-2,-1,-2,-1,-2,0,-1
117328072697,-3,0,0,-2,-2,-2,-1,-3
117328074296,-3,-2,-1,-1,-2,-1,-1,0
117328074296,0,0,-1,-1,-3,-2,0,0
117328086323,-2,0,-1,-1,-1,-2,-1,-1
117328086323,0,-1,-1,-1,-2,-2,-1,-2
117328095315,-2,-1,-1,-1,0,-2,-2,-2
117328095315,0,0,0,0,-2,0,-2,-1
117328109523,-1,0,-2,0,0,-2,0,0
117328109523,2,0,-1,-1,1,-1,-3,-1
117328116337,0,-1,2,-2,-2,-1,-2,-2
117328116337,-2,-3,0,-1,0,-2,-3,-3
117328131988,-2,-1,0,-1,-3,2,-1,-1
117328131988,-1,0,-1,-2,0,-2,-2,-2
117328138825,0,-1,-3,0,-1,-1,0,1
117328138825,-2,-1,-2,0,-1,-1,-1,-1
117328146315,0,0,-1,-1,-1,-3,-2,-1
117328146315,1,-1,-2,-1,-1,-1,0,-2
117328155318,1,-1,0,2,-1,-1,-1,-2
117328155318,-3,-2,-2,-2,-1,-2,1,-5
117328169472,1,0,-1,-2,-2,-2,-2,0
117328169472,-1,-1,-1,-1,-2,1,-1,1
117328176303,-2,-1,-2,-3,-1,-1,-1,-1
117328176303,-1,-2,-1,0,-1,-1,-1,0
117328192033,0,-1,1,-2,-1,-1,-2,-7
117328192033,0,1,-3,-1,-1,-2,0,3
117328198828,12,-1,-1,0,-1,-1,-1,1
117328198828,-6,0,-1,-1,0,0,-1,0
117328206366,1,0,-1,0,-1,0,-1,-3
117328206366,-2,-3,-1,0,-2,-2,0,-1
117328215325,-2,-1,0,-2,0,-1,0,-2
117328215325,1,-1,0,0,-1,0,0,-2
117328229494,-1,0,-2,0,-3,0,-1,2
117328229494,-1,-2,0,-3,-1,0,-2,-2
117328236317,-2,0,-2,-1,-1,-2,-1,-1
117328236317,0,-1,-3,-3,-1,-1,-2,-3
117328252034,-4,-2,0,0,-1,-1,-1,1
117328252034,0,0,0,0,0,0,0,0
117328258862,-6,-1,-3,-1,-1,-1,-2,-2
117328258862,0,-1,0,-1,0,-1,0,-2
117328274435,3,-1,-1,-1,0,-2,-1,1
117328274435,0,-2,-1,-2,-1,0,-1,-3
117328275256,-3,-1,0,-1,-3,-1,-2,4
117328275256,1,-1,0,-1,-2,-2,-1,-1
117328298498,-2,-3,-2,-1,0,-1,0,0
117328298498,-2,-1,-1,-2,-1,-1,-2,-1
117328299318,-1,0,1,-1,-1,0,0,0
117328299318,-1,-2,-1,-2,-1,-2,0,-2
117328311319,2,1,0,-2,0,-3,0,2
117328311319,-2,-1,-1,-2,0,-2,1,-3
117328318896,-10,-2,-4,-1,-3,-2,-1,-4
117328318896,-2,-1,-2,0,-2,-1,-3,1
