timestamp,emg1,emg2,emg3,emg4,emg5,emg6,emg7,emg8
59393412012,2,1,0,-1,1,1,0,1
59393412012,-3,4,4,3,0,0,0,1
59393418629,-3,-4,-5,-3,-3,1,-1,-3
59393418629,3,3,0,2,0,-1,-3,1
59393433682,-4,-5,0,-1,-1,-1,0,-2
59393433682,3,2,-3,-3,-3,-1,-3,-2
59393434453,-1,-2,-1,0,-3,-1,-2,1
59393434453,-4,-2,-1,-3,0,-1,-1,-1
59393456138,-5,-1,-5,-1,-1,0,-1,-1
59393456138,-2,0,-1,-1,2,-1,-2,-4
59393456916,-1,2,-2,0,0,0,-1,-1
59393456916,-1,-8,-2,-1,-4,0,0,-2
59393470468,0,-1,0,-2,-3,1,-1,0
59393470468,-3,-11,0,-2,-2,-1,0,1
59393478686,1,2,-1,0,1,-3,-1,-2
59393478686,9,-1,-1,0,2,0,-1,1
59393501793,-13,3,0,-3,0,0,-4,-2
59393501793,-1,4,-3,0,-2,0,0,-1
59393502675,-2,-4,-2,1,0,-1,-1,0
59393502675,-3,-5,-3,-5,-5,-2,-1,-3
59393524366,3,-7,-2,-1,-2,-2,1,0
59393524366,4,8,1,1,1,-5,-1,-1
59393525083,-12,-8,-1,-3,0,-1,0,-3
59393525083,-7,-6,-1,0,1,0,-2,-2
59393539431,0,-3,-1,-3,0,0,-3,-1
59393539431,2,-1,-2,0,0,-1,-2,0
59393540168,2,-4,-1,0,-2,-3,-2,-4
59393540168,-3,2,-3,-3,-1,-1,0,-1
59393553649,4,4,-2,2,-1,-2,1,-1
59393553649,-5,-16,-3,-3,0,1,0,-1
59393554490,0,0,0,-2,-2,1,-2,2
59393554490,-3,-4,-1,-3,-2,-1,-1,-3
59393576356,4,0,1,3,0,-3,-1,0
59393576356,-6,0,2,1,1,-1,0,0
59393576948,-2,-1,-1,-2,-1,-1,-1,0
59393576948,-6,-4,-2,-2,1,-1,-1,-1
59393590547,-1,0,-4,-4,-4,-1,-2,-2
59393590547,-4,1,-2,0,-3,-2,3,-1
59393606199,1,0,-1,-1,0,-2,-1,-1
59393606199,-2,0,-2,0,0,1,-3,0
59393613647,1,3,0,-1,0,-2,-2,-1
59393613647,-3,-11,-2,-2,-2,1,-3,-3
59393614421,2,3,-2,-1,-4,-2,2,0
59393614421,-4,-8,-4,0,-2,-3,-1,-2
59393636106,0,-2,-2,-1,-3,-1,0,0
59393636106,2,5,1,-2,-1,-1,-1,-1
59393636893,-3,-2,-3,1,0,0,-1,-3
59393636893,1,-4,-1,-2,-1,-1,-1,-3
59393650430,0,2,-1,-1,0,0,-1,-3
59393650430,5,6,-1,0,1,-2,0,-1
59393658681,0,-1,-1,-2,-1,-2,-1,0
59393658681,0,1,3,0,-3,-1,1,0
59393673650,-1,-2,-1,3,-2,0,-1,-2
59393673650,-1,9,1,-1,-3,-1,-1,0
59393674451,-15,-22,-1,-2,1,1,-1,0
59393674451,3,4,-2,-3,-2,-3,-2,0
59393696183,0,-4,0,0,1,-1,-1,-1
59393696183,2,1,0,0,0,0,-4,-3
59393696972,1,3,-2,-2,-1,-1,0,-2
59393696972,4,12,1,1,-2,-1,0,1
59393719367,-5,-4,-3,-2,-2,1,-1,-2
59393719367,2,1,-2,-3,0,-2,-1,-3
59393720094,2,2,1,-3,-2,-3,0,-1
59393720094,-2,-2,0,-1,1,0,0,0
59393733629,2,1,2,-1,-1,-2,-1,-1
59393733629,0,-4,-3,-1,-1,-1,-1,-1
59393734429,1,3,-1,0,0,-1,0,-3
59393734429,0,-4,0,-1,-1,0,1,0
59393756147,2,1,-3,-1,0,0,-2,2
59393756147,-12,-11,-3,-3,-2,-1,-2,-3
59393756916,0,1,-1,0,-1,0,0,0
59393756916,0,0,1,-1,-2,-1,-3,0
59393779352,6,-2,0,-2,0,-1,0,-1
59393779352,-15,-1,1,-1,-1,0,-3,0
59393780105,2,0,-2,-4,-1,-1,-2,0
59393780105,-5,-2,0,2,-2,-2,0,-3
59393793824,8,2,0,-2,-1,-1,0,1
59393793824,-2,-17,0,1,-2,-1,0,1
59393794459,-1,4,0,0,-1,0,-2,-2
59393794459,0,7,-2,0,-1,0,-3,-2
59393816180,-10,-7,-1,-5,-3,-2,-1,2
59393816180,9,0,-1,-2,-2,-1,2,-1
59393816953,-2,2,-1,-1,-2,0,-2,-1
59393816953,2,-8,-2,-1,-2,-1,0,-2
59393839479,-3,4,-1,0,1,-1,0,0
59393839479,11,12,-2,-2,0,-1,-1,1
59393840136,1,-3,0,-3,0,-2,-2,-1
59393840136,-1,-2,-2,-3,-1,-1,0,0
59393853779,-3,-3,1,-2,-2,0,-2,-1
59393853779,0,2,-2,-2,-2,-2,0,0
59393854521,0,-3,3,1,0,-1,-1,-1
59393854521,-2,-4,-1,-1,2,0,-2,-3
59393876142,-4,-4,-3,-1,-1,-2,-1,-2
59393876142,3,7,1,-1,2,-1,-3,-2
59393876948,0,0,-4,-2,-1,2,-4,0
59393876948,0,4,1,-1,0,0,-1,0
59393899470,-8,-8,-2,-2,-2,-2,0,-2
59393899470,2,5,-1,0,-1,0,-2,-2
59393900172,2,-1,1,-3,-3,-3,2,-1
59393900172,-7,-4,-2,-2,-2,-2,0,-2
59393913619,0,1,-3,-1,-1,-1,-3,-3
59393913619,-4,0,1,2,0,-2,-1,-1
59393914429,-4,-3,-2,-1,0,-3,-1,-3
59393914429,3,-1,-1,-3,-2,-1,-1,-2
59393936109,-2,1,0,2,-1,1,-1,-1
59393936109,-4,-16,-3,-2,-1,0,-1,-3
59393936897,0,4,-2,-1,-2,-2,0,1
59393936897,-2,-1,-3,-2,0,0,-1,0
59393959445,2,-3,-1,-1,-2,0,-1,-2
59393959445,-3,1,-1,-1,0,-1,-1,0
59393960157,-1,-2,-2,-1,-1,-2,0,-1
59393960157,-7,-6,-1,-1,-2,-1,-3,2
59393973878,-1,4,1,2,-1,0,-1,1
59393973878,6,0,-1,-1,1,0,-1,-2
59393974531,1,4,-1,-3,-2,0,-1,0
59393974531,0,-1,0,0,3,-2,1,-2
59393996186,4,-3,-2,0,-2,-1,1,0
59393996186,-4,-5,-4,0,-1,-1,0,-1
59393996925,-1,-3,-3,0,0,-1,-2,-1
59393996925,-4,-2,-2,-3,-2,1,-2,-2
59394019497,-1,-2,-2,-1,-1,-1,0,0
59394019497,5,3,-2,-2,-1,0,0,0
59394020184,-3,1,-1,-1,-1,0,-1,1
59394020184,2,2,-1,0,-2,-1,0,-1
59394033880,-4,-2,0,-3,1,0,-1,-4
59394033880,-2,-3,1,-2,-3,-3,-2,-2
59394034454,-1,1,0,-1,-2,0,-3,-3
59394034454,4,1,0,0,0,-1,-1,0
59394056173,-4,-2,-5,-2,-2,-2,-3,0
59394056173,-1,4,1,1,0,0,2,-1
59394056951,-1,-2,-3,0,0,-1,-1,0
59394056951,-5,-2,-3,0,0,-1,-2,-1
59394079606,-1,2,2,0,-1,0,1,-3
59394079606,5,12,-2,-1,-1,-1,-1,1
59394080231,-8,-14,1,1,-1,-2,-1,-2
59394080231,2,5,4,1,-1,-1,0,1
59394093782,-2,-1,-2,-2,0,-3,-1,0
59394093782,-2,0,0,-1,-3,0,1,1
59394094540,-3,1,-2,0,1,-2,0,-1
59394094540,1,-2,-3,-4,-1,-1,-1,-2
59394116343,0,-3,-1,-2,-2,-1,-1,-1
59394116343,-11,-11,0,1,-1,-2,-1,-2
59394116936,0,0,1,0,-1,-1,1,-1
59394116936,0,0,-1,-2,0,-2,-2,1
59394139584,3,8,-1,-1,-1,-1,1,0
59394139584,5,-5,1,-1,0,-1,0,0
59394140216,-7,-4,0,-2,-2,1,-2,1
59394140216,-3,-4,-2,0,0,-3,-2,-1
59394153785,-1,-1,2,0,0,-1,-3,-1
59394153785,3,6,3,0,-1,-2,-3,-1
59394154505,3,2,-1,-1,-2,-3,0,1
59394154505,3,-2,1,1,-2,-1,-1,-2
59394176197,-5,-7,-3,0,0,-1,-4,-2
59394176197,-1,-3,-1,-1,-1,0,-1,-1
59394177012,4,7,0,-2,0,-1,-2,-5
59394177012,-4,-7,-2,0,-1,-1,0,-2
59394199590,8,4,3,0,0,-1,1,0
59394199590,0,0,-2,-3,0,-1,-2,-1
59394200253,-5,-4,-2,-1,-1,-2,-3,-2
59394200253,-2,-1,-2,-2,-2,-1,-2,-2
59394213488,-7,-2,-3,-3,-1,0,0,1
59394213488,6,-1,-3,-4,-4,1,1,1
59394221269,3,-1,0,1,-1,-2,0,1
59394221269,-2,1,-2,-1,-1,0,-1,-1
59394236155,-3,2,-1,1,0,-2,-3,-2
59394236155,-11,-8,-6,-4,0,-1,-2,-1
59394236929,0,-4,-2,-1,-2,0,-1,-2
59394236929,-1,2,0,-1,-1,-1,-4,1
59394259563,1,2,1,-2,-3,-2,-1,-4
59394259563,1,3,0,-1,-2,-1,0,-4
59394260173,11,12,-2,-1,0,-1,-1,-1
59394260173,-4,1,1,1,-1,0,1,0
59394273764,2,-1,-1,-1,0,-1,-2,-1
59394273764,-2,1,-4,3,-2,-2,0,-1
59394274553,4,-1,-2,-3,-1,0,0,0
59394274553,-1,-7,-4,-3,-1,0,-1,0
59394296393,3,0,-2,1,0,-3,-1,1
59394296393,-4,2,1,0,-2,-3,0,-4
59394296982,-6,-3,-1,2,-2,-1,0,-2
59394296982,1,-4,-4,-1,-3,-1,0,0
59394319608,5,-3,-1,-2,-1,0,1,0
59394319608,-7,-2,-2,-2,-2,1,0,-3
59394320181,-5,-4,-1,-2,0,0,-2,-2
59394320181,0,-2,-1,-1,-1,-2,-2,-5
59394333008,-1,0,-2,0,-1,0,-2,-1
59394333008,0,1,-1,1,-1,-2,0,0
59394341194,0,1,1,-1,0,-2,-2,0
59394341194,-5,-13,0,-2,-2,0,-1,-2
59394356612,-6,-3,-1,-1,1,-1,2,-2
59394356612,0,-2,-2,0,-1,-1,-2,0
59394357365,-1,0,1,0,-1,-2,1,-1
59394357365,-1,2,-4,-4,-1,-1,0,0
59394379368,-6,-3,-2,-1,-2,-2,-2,-2
59394379368,-1,-4,0,0,0,0,-2,-1
59394380137,-3,-3,-2,-1,-1,-1,0,-3
59394380137,3,0,1,0,-1,-2,0,-3
59394393089,5,1,0,-4,0,-1,-2,1
59394393089,-5,-17,-1,-1,-1,-1,-2,0
59394401153,-3,-1,-2,-1,0,-2,2,-1
59394401153,1,6,2,2,-1,-1,-3,-2
59394431842,1,-3,-4,-2,-2,-1,-2,-2
59394431842,-1,3,-2,-2,-2,-3,-3,-1
59394432651,-2,-5,1,-1,0,0,0,0
59394432651,-13,-4,-2,-2,0,0,-2,-1
59394439388,-4,-3,1,0,-1,-3,-2,-1
59394439388,-1,3,1,-2,1,-2,-1,-1
59394440116,13,12,-5,-1,0,-1,-1,-2
59394440116,-3,0,-2,-2,0,-1,-1,-1
59394452955,-2,0,1,1,-1,0,-3,0
59394452955,3,0,-1,1,-2,-2,0,-2
59394461291,-3,-1,-1,-2,-3,-2,-1,-1
59394461291,-1,-2,2,1,-1,-1,-1,0
59394476150,4,5,0,1,-1,2,-1,-3
59394476150,5,5,-2,-2,0,-2,1,-1
59394476932,-8,-9,-1,-3,-2,-3,-2,-1
59394476932,1,3,0,1,-1,-2,-1,0
59394499643,-7,-15,-5,-4,-1,-2,1,-1
59394499643,-11,-1,-2,-2,-1,1,-2,-1
59394500146,1,0,-4,-1,-1,1,-3,-2
59394500146,1,0,-1,-1,-1,-1,0,-2
59394513101,0,3,2,-1,-2,-1,-1,1
59394513101,2,-1,-3,0,0,-1,-1,-1
59394521244,-3,-5,-1,3,0,-1,-2,-1
59394521244,8,8,-1,-2,-1,-2,-1,-1
59394536161,-12,-5,-1,-1,-3,2,1,0
59394536161,12,3,-1,-2,-1,0,1,-1
59394536921,-4,-4,1,0,1,0,-1,1
59394536921,-1,-1,-5,0,-2,-1,-1,-1
59394559578,1,-1,-2,-2,3,0,1,1
59394559578,-2,-1,-1,-1,-1,-2,0,0
59394560233,-1,-1,2,-1,-1,-1,-1,-1
59394560233,-3,-3,-1,-3,-2,-1,-2,-1
59394573216,3,-1,0,-2,-1,-2,-1,-1
59394573216,-6,-1,0,0,0,-2,-1,-1
59394581463,-2,-2,-2,-2,-1,-1,-1,-1
59394581463,-4,-3,0,-1,-1,-1,-2,0
59394596166,0,10,-4,-1,0,0,1,-1
59394596166,1,-2,-1,-2,-3,-1,0,0
59394596961,-4,0,1,0,-3,1,-1,-1
59394596961,-1,-2,-1,-2,-1,0,-2,0
59394619531,3,8,0,0,-1,-1,-3,1
59394619531,-1,-4,1,-3,-1,0,-2,-2
59394620152,-7,0,-2,-2,-3,-1,-2,-2
59394620152,-1,-3,0,0,0,-1,-1,-2
59394633183,-1,-7,-3,0,-2,-2,-3,1
59394633183,0,0,0,-2,-3,-2,1,0
59394641437,5,-2,-2,0,-1,-2,0,-1
59394641437,4,4,2,-1,0,-2,-1,-2
59394656296,3,-5,0,0,-3,-1,-2,-4
59394656296,-1,1,-3,0,-1,0,-1,-1
59394656990,-4,-2,-4,0,-1,-1,-4,-2
59394656990,-1,4,-2,-3,-5,-1,-1,-1
59394679591,0,-5,-1,0,-2,0,0,-1
59394679591,1,0,0,-1,0,0,-2,-1
59394680258,1,-3,-2,0,1,-3,1,-1
59394680258,-2,-1,-3,0,-1,0,0,-2
59394701861,-4,-4,-1,-2,-1,-2,-3,-2
59394701861,-2,-3,-2,-1,-1,-1,-2,-1
59394702642,-3,-4,-2,-3,-2,0,1,-1
59394702642,1,-3,-1,-1,0,-1,0,-1
59394716629,-6,-11,-3,-3,-2,-1,0,-1
59394716629,-9,-6,-2,-1,0,-3,0,-2
59394717423,5,4,2,-2,0,-1,-2,0
59394717423,0,-5,0,2,2,-1,0,0
59394739359,1,5,-1,1,-1,-1,-2,0
59394739359,-3,-3,-1,1,0,-1,-3,-1
59394739992,-3,-1,0,-3,-2,-1,0,-2
59394739992,-3,-2,-2,-2,0,-1,-1,-1
59394761891,-1,9,1,1,1,0,-1,0
59394761891,-1,-2,-2,-2,-3,-1,0,-2
59394762635,-2,0,-2,0,-1,-2,-2,-4
59394762635,0,1,-5,-3,-3,0,0,-2
59394776240,1,1,0,-3,-1,-1,0,-1
59394776240,-2,-5,1,-1,-2,0,-2,0
59394776991,-1,-2,-3,-1,-1,0,-2,-1
59394776991,-3,-2,0,-4,-2,0,-3,-1
59394799555,-14,-7,-3,0,-1,-2,0,-1
59394799555,1,4,-1,0,0,-2,-1,-1
59394800136,-7,-24,-5,-6,-4,-3,-2,-2
59394800136,0,-6,0,4,-1,-1,0,-2
59394821990,3,-3,-3,-4,0,-1,-1,-1
59394821990,2,4,0,0,-1,0,-1,0
59394823504,0,4,2,0,-2,0,-2,1
59394823504,-10,-5,0,-1,0,-1,1,-2
59394836190,-3,-5,0,-2,0,-1,-1,-1
59394836190,-1,-1,-3,-2,0,-2,-3,-1
59394836954,6,3,-2,0,-1,0,0,1
59394836954,0,-1,2,-1,-3,-1,-1,-1
59394859374,3,8,0,-1,-3,-1,0,-3
59394859374,-9,-5,-2,-1,-1,0,0,-3
59394860074,0,7,0,0,-1,-1,-1,2
59394860074,3,1,0,-1,0,-2,-3,-2
59394881998,1,-4,0,-3,-3,-2,-1,1
59394881998,2,2,-1,-2,-3,-1,-1,-2
59394882731,-3,-4,-3,-2,-4,-2,0,-1
59394882731,2,3,-1,2,1,0,0,1
59394920650,1,1,1,-2,-1,0,-3,0
59394920650,3,-5,-1,0,0,1,-1,0
59394921478,2,9,6,1,2,1,3,-1
59394921478,-7,-13,-4,-3,-2,-3,-3,-3
59394923039,1,0,-3,-1,0,-4,0,-4
59394923039,2,3,0,-2,0,-1,-1,1
59394926134,-4,-6,-1,-2,1,0,-1,-1
59394926134,7,1,-2,-4,-2,-1,-3,0
59394942064,-7,-7,0,2,2,1,-2,-1
59394942064,-4,-4,-3,0,-3,-2,-1,-2
59394942698,-17,-10,-2,0,0,-2,-3,-2
59394942698,-2,-2,-2,-1,-1,0,1,-1
59394956475,1,-1,-1,-2,-4,-4,-4,-2
59394956475,-2,2,3,-1,0,0,-2,-2
59394956943,7,2,-4,0,0,0,-1,-4
59394956943,0,2,-1,-2,-1,-3,0,0
59394979575,0,-9,-2,-2,-1,1,-4,-3
59394979575,3,4,3,2,1,-2,2,-2
59394980967,2,3,3,-1,0,1,-1,1
59394980967,-1,-2,0,-3,-1,1,0,-2
59395002019,0,6,0,1,-1,1,-1,-1
59395002019,2,14,-3,-1,-3,-3,-4,-1
59395002715,-3,0,-5,0,-1,-3,0,-1
59395002715,0,2,2,1,-2,-1,-2,-1
59395015575,-3,-5,-1,-1,0,0,2,1
59395015575,4,5,1,0,-1,1,-2,-1
59395024559,-4,-5,-1,-3,-2,-2,-2,-1
59395024559,-1,1,-4,-2,-2,-2,-1,-1
59395039436,4,5,2,-1,1,1,1,-2
59395039436,1,-7,-5,-2,-4,-2,-1,-3
59395040994,-2,-1,1,-1,-1,-1,0,-1
59395040994,1,1,0,2,0,-1,-1,0
59395061833,-4,-2,-3,1,-1,0,-1,-1
59395061833,10,-1,-2,-1,-1,-1,2,2
59395063529,-5,-16,-2,0,-1,-3,-3,-1
59395063529,-3,1,1,-3,-2,-1,0,-1
59395075689,2,2,-1,0,-3,-2,0,0
59395075689,-5,-7,-3,0,0,0,-2,1
59395084523,0,5,-1,1,-1,0,-4,0
59395084523,6,10,2,1,-2,-1,0,0
59395099438,-7,5,-1,-1,-2,-3,-1,0
59395099438,-3,-4,1,-2,0,-2,-1,-2
59395100932,1,3,-4,-1,1,-2,1,-5
59395100932,-4,-1,0,0,0,1,-1,-1
59395121923,3,3,-1,-2,-3,-2,1,0
59395121923,-5,-5,-1,-1,-2,-2,-3,-2
59395123596,3,1,1,0,0,-1,0,1
59395123596,-8,-2,-1,-3,0,0,-2,1
59395135516,-2,-5,-2,-1,0,-3,-2,-1
59395135516,3,-3,-1,1,1,0,-1,-1
59395144500,-2,-2,1,-1,-2,-2,-3,1
59395144500,-2,-3,-1,-1,0,0,-2,-2
59395159395,0,-4,-1,-2,0,-1,-1,-3
59395159395,-7,0,-1,-1,0,0,-2,1
59395160930,-1,3,-2,-2,-2,0,-1,0
59395160930,-2,3,-2,0,0,-2,-4,-2
59395182119,-7,-5,-4,-3,-1,-3,0,-3
59395182119,-1,2,0,-2,-1,0,0,-1
59395183529,2,8,-1,0,-1,-1,-2,0
59395183529,-3,-5,-1,-2,-1,-3,0,0
59395195702,-3,-4,-1,-1,-2,-2,-2,-1
59395195702,-2,-1,1,-2,-1,-2,0,-1
59395204593,0,5,-1,-2,-2,-1,-2,-3
59395204593,0,-6,0,1,1,1,-2,-1
59395219563,-1,2,-3,-1,1,1,-1,0
59395219563,-3,-2,-2,1,0,0,0,-2
59395220954,-2,0,2,-2,0,-1,1,0
59395220954,-4,-3,0,1,0,-1,-3,0
59395240972,0,-3,0,-2,-1,-2,-4,-1
59395240972,-2,0,-1,-2,0,-1,0,-1
59395249560,-3,-6,-4,-3,-1,-2,-1,0
59395249560,2,-1,2,-1,-3,-2,0,-3
59395255767,9,7,0,0,-1,-1,-1,-1
59395255767,-3,-4,-1,-1,0,-2,-1,-3
59395264597,-2,-9,0,1,-2,-1,-2,0
59395264597,2,-3,-2,-3,-3,-2,1,-1
59395279595,0,-3,0,0,0,-1,-1,1
59395279595,1,3,2,0,0,-1,-1,-1
59395280975,1,-9,-2,0,-1,0,-1,-3
59395280975,-5,-2,-2,-3,-3,-1,-2,-1
59395301966,-3,-3,-1,1,-1,-1,-1,-4
59395301966,0,-2,-1,-3,0,0,-3,0
59395303529,5,7,-5,-1,0,-2,-1,1
59395303529,-4,-2,-4,1,0,-2,-3,0
59395315763,0,-3,-1,-1,0,-1,2,0
59395315763,-4,-1,-1,0,-2,-1,-2,0
59395324533,4,1,0,-1,-4,1,-2,-3
59395324533,0,-3,1,-3,0,-1,-1,-1
59395339387,3,6,0,-1,-1,-1,-1,1
59395339387,2,2,-2,0,-2,-1,-1,-1
59395340951,-4,-3,-1,-2,-1,-1,1,-1
59395340951,-5,-1,-3,-1,-1,-2,-1,-1
59395362024,-4,-2,-1,1,0,-2,-1,-1
59395362024,-1,-1,-1,-1,-3,-1,-3,1
59395363476,1,3,0,0,-2,-2,-3,-1
59395363476,1,3,0,0,0,0,-1,-2
59395375556,2,6,0,-1,-2,-1,0,-1
59395375556,-2,-8,0,-4,-1,-2,-1,-2
59395384513,-8,-1,-3,-1,-1,0,-1,1
59395384513,0,-3,-5,-2,-1,-1,1,-1
59395399422,-8,-2,0,0,0,0,-2,1
59395399422,-1,2,-1,-2,0,-3,0,-3
59395401022,1,0,-1,0,-1,-1,1,-1
59395401022,-1,-3,0,-1,-1,-2,-1,1
59395421885,-2,-5,-3,-2,-1,0,0,-1
59395421885,-3,-4,-2,0,0,-2,-3,-1
59395423437,-1,-2,-1,0,0,-2,-2,0
59395423437,2,1,-1,0,-3,-1,-1,-3
59395435528,0,-6,0,-2,-1,-3,0,-3
59395435528,3,1,-3,0,0,-1,-1,1
59395444520,-2,-1,0,-1,-1,0,0,-4
59395444520,-1,2,2,1,1,-1,-1,0
59395466800,-2,-3,-3,-1,-4,-1,-3,-2
59395466800,4,3,0,-1,-1,0,1,0
59395468401,0,2,-2,-1,0,-3,0,0
59395468401,-5,-3,-3,0,-2,-1,-1,0
59395481840,3,1,0,0,-2,-1,1,-3
59395481840,7,6,2,0,0,0,1,1
59395483469,1,4,-2,-4,-2,-3,-1,-1
59395483469,-1,1,-1,1,-2,0,0,0
59395495572,-1,-3,-3,0,2,-2,0,0
59395495572,-4,-6,-2,-1,-1,-1,-2,-2
59395504565,-6,-4,-1,-2,-2,2,-2,-2
59395504565,0,4,-3,0,1,0,1,-2
59395519448,0,2,0,-2,-2,0,-4,-1
59395519448,-8,-5,-2,-1,1,-3,1,-1
59395521029,-4,-5,-1,-3,-2,-1,-3,0
59395521029,-1,-3,-3,-4,-1,0,-1,0
59395541931,7,6,1,3,-2,-2,0,0
59395541931,-4,-9,-2,-1,-2,0,-2,-1
59395543474,10,7,2,2,1,-3,-2,-3
59395543474,-1,-11,-1,-3,-3,-1,-3,0
59395555582,-9,-4,-2,-4,1,-1,-1,-4
59395555582,-1,-2,-1,1,-1,-2,-3,-2
59395564513,-5,-7,-4,-1,0,-1,1,0
59395564513,-1,0,-1,-1,-1,0,-3,-2
59395578715,5,-1,-1,0,-1,0,-6,2
59395578715,-2,-1,-1,-2,-3,-2,0,0
59395593010,-4,0,-3,-1,0,-1,-1,-2
59395593010,2,-4,-2,-2,0,-2,0,0
59395601893,-6,-3,-1,-2,-1,1,0,-1
59395601893,-3,2,0,-2,-3,-1,-2,0
59395603543,7,11,3,1,-1,-1,-2,-1
59395603543,-2,-2,0,1,-1,-3,1,-1
59395624585,6,-2,-1,0,0,-2,2,-2
59395624585,-1,2,0,-2,1,0,-1,2
59395625987,-3,-4,-3,-4,-1,-2,-1,0
59395625987,0,2,0,1,0,-1,-2,0
59395639564,-2,6,2,0,-3,-1,-2,-3
59395639564,14,8,4,0,0,0,2,0
59395640992,-7,-8,-3,-1,-3,-1,-1,0
59395640992,5,3,2,-1,0,-1,-1,0
59395662074,-2,-2,-4,-1,-1,-1,-1,1
59395662074,-6,-4,-1,0,-1,0,-3,-3
59395663540,-3,-5,-1,2,1,-2,-2,-1
59395663540,1,-4,-1,-2,-4,0,-3,-4
59395684471,-7,-3,1,-2,-3,-2,0,-1
59395684471,-9,-8,-5,-3,-2,-2,-1,-2
59395686012,7,2,1,-1,0,-1,-2,1
59395686012,-3,-1,-3,-2,0,0,0,-2
59395699595,-3,-6,-1,-1,0,0,0,-2
59395699595,1,4,-2,0,0,-3,-3,0
59395700981,-1,-7,-3,1,-2,2,-4,0
59395700981,-4,-15,0,-3,-2,0,-1,-1
59395722129,8,3,-1,2,1,-1,-2,2
59395722129,-4,-3,-1,-1,-2,1,-3,-2
59395723564,-5,-5,0,2,2,1,-1,-4
59395723564,-2,2,2,-2,-1,-2,0,-1
59395744501,-3,-2,1,0,-1,-3,0,-2
59395744501,-1,-6,-5,-1,-4,-1,-2,-3
59395745979,3,3,4,-3,0,1,0,-1
59395745979,-8,1,-8,-5,-1,-2,-2,-2
59395759473,5,0,1,4,0,0,-2,-1
59395759473,-7,-13,5,-4,-2,1,-1,0
59395760913,-5,-5,-30,-8,-1,-4,-3,-2
59395760913,8,0,2,4,1,-2,0,1
59395781834,5,3,2,0,-5,-1,2,0
59395781834,3,10,-2,30,7,-2,-3,-1
59395783457,-4,-4,4,-48,-15,-1,-1,-1
59395783457,-3,-3,-5,9,4,0,-2,-1
59395804431,-4,-2,-2,-1,1,-1,1,3
59395804431,2,4,2,8,-3,1,-3,0
59395805926,2,1,0,-7,0,-2,3,-2
59395805926,-5,7,1,-6,-2,-2,-1,-2
59395818881,-6,-4,4,10,-6,-2,-2,-1
59395818881,1,10,5,-1,1,-1,1,-2
59395825763,-3,-4,1,10,0,0,-2,-1
59395825763,3,5,-2,-3,-1,-1,1,0
59395841961,-9,-21,-8,8,0,0,-3,-6
59395841961,-1,-2,-1,-4,-2,-2,2,-3
59395843478,12,8,0,-16,0,-3,0,-1
59395843478,-3,3,4,16,-1,-2,2,-1
59395864477,-15,2,-13,0,7,2,-1,1
59395864477,-5,-6,2,-41,-8,0,-2,1
59395866033,-5,-8,-3,21,-1,-1,-1,0
59395866033,-1,4,-3,-7,-1,1,0,-2
59395878884,-2,-12,1,-4,-4,-2,-2,-1
59395878884,-2,-5,-3,-6,3,0,0,-3
59395885539,6,7,4,-4,-2,-1,-4,-2
59395885539,-10,-3,3,-7,-4,-2,-3,-3
59395901848,1,5,0,-7,-2,-1,-1,-3
59395901848,6,-1,-5,6,0,-1,-3,-1
59395903439,3,2,4,20,-1,-4,1,-2
59395903439,-7,-7,-7,-9,1,4,-2,-1
59395924391,0,0,2,1,1,0,2,1
59395924391,-4,-7,-4,-7,-2,-1,1,0
59395925900,1,6,2,11,-2,-5,0,-1
59395925900,-1,-4,-3,-1,-3,-4,-1,-3
59395938005,1,3,-1,-4,4,-2,-4,0
59395938005,0,3,-6,-1,-5,-4,2,-3
59395946983,-7,-8,1,-14,-5,-3,-6,-3
59395946983,4,0,1,7,4,3,0,0
59395962028,2,4,2,8,6,2,-4,0
59395962028,-4,-1,-2,2,-4,11,2,-2
59395963429,0,-3,-2,-1,-3,1,3,-1
59395963429,0,0,-8,-10,-8,-6,-4,-1
59395984394,-3,-2,-7,-10,-12,-10,1,-3
59395984394,0,-1,0,-2,7,-1,-1,1
59395985992,-5,-5,-1,4,-4,-2,-1,0
59395985992,3,3,5,-8,-1,-7,-2,2
59395998065,2,1,1,0,0,4,-3,-1
59395998065,0,-2,0,1,-2,-2,-3,0
59396006961,-3,-1,2,-2,3,5,-2,1
59396006961,6,4,-2,12,0,-2,2,2
59396022508,-1,-13,-1,-20,0,3,1,-1
59396022508,1,0,0,3,2,-1,-4,2
59396023969,1,9,3,8,4,-5,-2,2
59396023969,-3,0,-1,0,2,6,1,-1
59396044637,-3,1,-2,-7,-6,-3,-1,-3
59396044637,0,-2,-2,4,-6,0,2,-2
59396045984,0,-6,-3,-4,4,-8,-1,2
59396045984,1,-3,-1,-10,-3,0,-3,-4
59396058134,-3,2,2,19,2,5,0,2
59396058134,-5,-5,-5,-24,-6,-5,-6,-5
59396066975,-2,-1,0,9,3,3,-1,-3
59396066975,2,10,0,-8,-3,6,2,0
59396082133,-13,-1,-4,-3,-6,-17,-1,-3
59396082133,-4,2,-2,-3,1,2,-4,-1
59396083567,-1,-4,-1,-4,2,-3,-2,2
59396083567,4,0,0,6,0,4,0,1
59396104436,1,-1,-1,0,2,1,-2,-3
59396104436,-1,-2,-1,4,0,-2,-2,0
59396105925,-5,-1,-2,-5,-2,1,2,-1
59396105925,-6,-9,-5,1,-4,-13,-11,-4
59396118134,4,2,-3,-20,-4,6,6,1
59396118134,-2,-4,-1,29,4,-2,3,0
59396127039,2,0,-1,-9,4,10,-2,-1
59396127039,-4,-4,1,-7,-4,-21,-7,-3
59396142050,3,2,4,13,-2,0,-2,1
59396142050,-6,-14,-1,-4,2,1,2,-3
59396143496,-6,-3,-1,2,-4,13,-1,-2
59396143496,-2,-4,-2,-15,3,-12,-1,-1
59396164381,4,4,0,1,2,1,-4,1
59396164381,1,3,-1,-12,-6,-1,3,1
59396166027,-1,-1,0,7,-2,-2,1,-3
59396166027,0,-7,0,7,-2,3,0,1
59396178206,1,-2,-1,-4,2,-1,-2,0
59396178206,-4,4,-3,-5,-1,-1,-6,-5
59396187049,-11,-2,-1,5,-2,-3,-3,-3
59396187049,-1,2,-3,-9,-2,1,2,0
59396201911,-2,-2,-1,10,0,-2,-1,-2
59396201911,2,6,1,-18,-1,-8,-2,2
59396203517,-3,-13,-4,-1,4,1,1,0
59396203517,-1,0,1,2,1,10,1,-1
59396224512,-2,0,-3,-6,-3,-4,-3,0
59396224512,-3,-1,-2,6,-3,-9,-11,-3
59396226050,0,-2,-5,-13,-10,-10,3,-2
59396226050,5,1,1,25,5,7,3,2
59396238062,3,-3,-1,-28,5,6,1,1
59396238062,5,2,0,15,-2,0,2,1
59396247048,0,1,1,-5,-1,-9,-5,-1
59396247048,-5,-3,-4,-1,-3,12,-3,-5
59396261926,0,2,2,9,0,-10,3,1
59396261926,-1,0,0,4,2,3,2,-1
59396263436,5,3,-1,-17,-10,-4,2,1
59396263436,-19,-20,-4,2,-6,-3,-2,-3
59396284291,-4,-2,-5,-4,3,3,-1,-5
59396284291,-2,-2,0,-9,-4,-9,-2,3
59396285919,3,2,1,25,-3,1,-5,-1
59396285919,2,3,-3,-30,3,-2,2,-2
59396298242,2,-1,-5,22,-1,18,5,0
59396298242,-1,-3,-3,-40,-2,5,-4,1
59396307036,2,3,5,41,2,-23,0,0
59396307036,5,3,3,-40,-5,-2,0,1
59396321916,-4,-4,2,38,-5,-1,-3,-1
59396321916,0,1,-5,-20,-3,6,7,-2
59396323464,-1,-2,0,9,9,8,-8,-1
59396323464,5,11,-5,0,-1,-10,-3,0
59396344376,-2,1,1,-6,3,-8,4,-3
59396344376,5,-1,1,15,-1,16,-3,0
59396345884,-2,0,0,-22,-4,-19,0,-2
59396345884,0,-1,1,26,5,7,-2,-2
59396358100,-1,-1,-2,-28,0,0,-4,-2
59396358100,3,4,0,32,1,-3,2,3
59396374536,-3,1,2,-45,-3,-1,-2,-1
59396374536,-4,-4,-10,15,0,19,11,-4
59396381437,2,-1,0,-10,-10,-5,-9,-4
59396381437,-4,-3,1,22,7,-18,-7,0
59396388230,-2,1,-2,-32,-6,-2,1,-3
59396388230,0,-1,5,-10,0,7,2,4
59396404507,-1,-1,-7,17,4,4,-1,-3
59396404507,-8,-14,0,4,8,-1,4,-3
59396406031,-4,0,1,18,1,3,-7,-3
59396406031,3,2,3,-13,-11,-21,-1,3
59396418093,-4,-2,5,-13,-3,6,2,-3
59396418093,-4,1,-1,2,-6,-5,-5,-3
59396427039,-6,-7,-6,-31,-9,8,0,-2
59396427039,-1,-3,0,42,1,-12,-12,0
59396441175,1,0,2,3,2,-9,9,2
59396441175,1,2,-1,14,1,22,-2,-10
59396448004,-2,-1,-3,13,0,-14,-4,9
59396448004,-1,-2,-2,-36,-12,14,-1,-7
59396464421,-4,-4,-10,-3,-5,-37,-25,-1
59396464421,5,4,11,-2,0,13,13,0
59396465913,11,5,-5,13,-1,2,-3,-1
59396465913,-6,-6,-2,-17,3,-8,0,-4
59396478194,3,4,-3,13,0,10,-3,2
59396478194,-6,-3,-7,-41,-14,-21,-2,0
59396487001,13,5,1,16,7,11,-5,-9
59396487001,2,3,6,18,3,-1,1,5
59396501410,-7,-7,-4,-22,-16,-11,2,-5
59396501410,-3,0,-3,11,-10,-3,-8,2
59396508030,-2,-3,-8,3,13,9,6,-8
59396508030,0,-1,-9,-10,-16,-4,4,1
59396524378,5,3,4,31,14,9,2,3
59396524378,-10,-12,3,-7,2,-10,2,2
59396526050,-6,-2,4,9,-10,-5,-1,-7
59396526050,1,0,-26,-16,3,-2,-7,-1
59396554524,4,-3,18,-15,2,2,9,10
59396554524,2,0,-7,37,-5,-10,-8,-3
59396556013,-6,-3,0,0,4,4,3,2
59396556013,-4,-1,10,11,1,-2,-1,0
59396576843,0,-2,-8,-28,-15,0,0,-6
59396576843,3,-2,15,21,14,-3,-1,2
59396578450,-8,4,-39,-30,-12,1,-2,0
59396578450,11,-4,24,18,-3,-6,6,-4
59396584387,-5,-12,16,46,9,2,8,6
59396584387,-4,-2,-22,-53,-7,0,-5,-16
59396585958,-5,-3,7,27,-5,0,4,19
59396585958,-7,-7,-4,-8,5,-16,-7,-10
59396606831,-4,-2,-23,-22,-2,6,-2,-3
59396606831,3,2,-8,7,-2,-5,6,0
59396608430,-3,-8,0,12,4,5,3,-4
59396608430,-5,-7,-7,9,1,-5,2,1
59396621256,-1,0,7,-23,-6,-5,-1,4
59396621256,-2,0,-3,-22,-8,-3,1,-3
59396628019,6,0,2,-8,-5,-1,2,-6
59396628019,-4,-2,8,15,-2,2,5,1
59396644296,-6,-3,-23,13,-10,-6,-5,-10
59396644296,1,1,1,-47,2,5,3,1
59396645883,-5,-9,-2,35,4,-6,1,-4
59396645883,-1,3,-2,-14,-10,-4,-1,-2
59396666868,-6,-6,-4,18,2,-5,2,-3
59396666868,1,-1,-4,-13,-3,-3,4,1
59396668443,-2,-6,-1,0,5,-3,4,-2
59396668443,-5,-2,-6,-4,11,3,0,-5
59396680532,-1,0,-8,2,-8,-5,0,-7
59396680532,-2,-3,-3,-8,3,-1,4,5
59396689412,-2,-1,-2,-37,-22,-4,-10,-5
59396689412,0,0,-11,16,12,2,4,2
59396704318,3,2,-2,11,-1,-3,-3,-2
59396704318,-2,0,-1,-32,9,-3,-3,-5
59396705900,-5,-4,2,62,-10,-3,-5,-2
59396705900,-1,-1,-18,-43,-4,-1,-1,2
59396726880,-2,-2,27,30,10,3,4,-1
59396726880,-4,-4,-11,-32,-5,-3,-4,-4
59396728515,2,2,-1,-49,-3,-3,2,2
59396728515,-2,-3,0,19,-10,-2,-3,-2
59396740727,3,7,-9,-3,11,-1,-1,-1
59396740727,-1,-4,0,25,-15,1,-3,-1
59396749524,5,-4,11,10,10,1,5,-1
59396749524,5,-1,3,-3,-11,-1,-2,1
59396765033,2,0,-5,-26,1,-3,-3,-5
59396765033,1,6,-14,40,-3,1,-3,0
59396766507,3,8,-11,-2,2,-2,-3,-2
59396766507,-7,-16,21,10,1,-4,-2,-2
59396786932,-1,-1,0,-37,-9,0,-3,-1
59396786932,7,0,0,35,1,-2,0,1
59396788501,2,7,-4,-3,5,5,0,0
59396788501,1,3,1,-7,2,6,-1,-1
59396800716,-12,-6,-17,-18,-1,1,-4,-1
59396800716,-4,-2,1,4,1,-3,0,-1
59396809521,-4,-2,6,6,-7,-3,-1,1
59396809521,0,3,2,-33,-1,-1,-1,-2
59396824381,-4,-5,-14,43,1,-1,-2,-1
59396824381,2,9,25,-13,-3,-1,1,0
59396825970,-21,-25,-1,14,7,0,-4,-5
59396825970,2,5,-6,-1,-10,-2,-2,1
59396854335,3,3,-2,-19,-8,-1,-3,0
59396854335,-6,-1,-8,9,3,0,2,1
59396856020,5,2,5,-15,2,-2,1,-3
59396856020,-1,-4,-5,25,-7,-4,-5,6
59396860594,-1,0,9,-5,-1,-1,1,0
59396860594,0,-5,-1,-20,0,-1,-1,-1
59396869571,0,0,0,7,0,-3,-1,2
59396869571,0,5,-11,17,2,1,0,-2
59396884506,0,-3,-3,-35,-6,-3,2,-2
59396884506,2,1,3,19,-1,4,-1,1
59396886022,3,0,5,-14,3,-1,2,0
59396886022,-4,3,5,28,5,-3,-3,-5
59396906848,-1,3,-9,-16,-4,-3,-4,1
59396906848,1,-5,-2,-4,-4,-2,-2,-1
59396908436,-4,3,-17,-20,-6,-1,-1,-2
59396908436,-1,-5,11,-16,5,-2,0,-1
59396920496,-2,-1,-4,1,-9,-5,1,-1
59396920496,-1,0,-3,15,6,0,-2,1
59396929528,1,8,-19,-19,-14,-2,-11,-5
59396929528,-2,-2,9,3,6,3,0,0
59396944450,3,-8,5,1,2,5,6,1
59396944450,6,2,5,-15,-9,-7,0,-1
59396946070,3,3,-7,-6,4,-1,-6,-3
59396946070,-23,-5,-15,-30,10,6,3,-2
59396966824,5,0,5,16,4,1,8,17
59396966824,2,16,-69,-24,-4,-6,-15,-9
59396968431,-13,-10,56,-20,-15,-7,-10,-32
59396968431,29,9,7,5,-5,3,-4,32
59396980778,8,-7,72,45,31,21,29,5
59396980778,-6,-17,31,-60,-8,1,9,7
59396989444,11,15,12,40,-10,-10,-28,-31
59396989444,-32,-4,-77,-32,-15,-12,-28,12
59397004320,39,13,47,29,13,17,11,10
59397004320,-7,-18,23,-23,7,6,5,-2
59397005993,54,24,-8,63,-5,-14,2,15
59397005993,8,-15,-19,-8,-11,-11,-3,5
59397026837,-37,-1,-56,-22,-20,-18,-20,-37
59397026837,-48,-30,49,47,23,9,20,-59
59397028446,-36,-27,-35,21,13,-5,31,18
59397028446,7,3,-99,-1,-21,-17,-1,-29
59397049392,24,8,16,-45,-10,-14,-12,10
59397049392,11,12,67,52,1,-4,-5,3
59397050937,-20,-18,-65,-91,-9,5,-4,4
59397050937,-16,1,51,54,-5,1,3,-54
59397064588,-22,-6,-33,5,2,-2,-9,-22
59397064588,21,4,-32,-14,-9,-1,-22,10
59397065993,13,7,11,-25,7,13,4,25
59397065993,2,1,10,33,22,6,4,2
59397086879,5,-5,-9,-62,-36,-11,-9,-4
59397086879,-32,-2,-66,44,0,-10,-8,0
59397088426,-11,-14,-19,-25,3,9,-9,-7
59397088426,8,2,-52,21,13,-12,4,-2
59397109424,-1,4,-33,14,3,10,1,5
59397109424,23,8,-47,14,10,14,8,18
59397111052,1,-2,-14,-20,-13,2,5,3
59397111052,-12,-9,19,-69,-9,-3,-2,4
59397123921,4,-1,-17,25,5,-12,-9,5
59397123921,-4,-3,-8,-9,-19,-12,-9,-3
59397130763,-4,4,-15,-3,7,10,14,-4
59397130763,6,2,39,3,1,8,-8,0
59397146807,-8,-3,57,1,7,-5,0,-6
59397146807,-1,-5,2,-5,-10,3,1,1
59397148424,8,6,22,41,10,-4,1,-1
59397148424,-1,1,3,18,5,4,8,3
59397161923,2,-4,-38,-38,-3,3,-2,-5
59397161923,5,7,27,7,1,-4,0,33
59397169619,-4,-7,-63,13,-2,0,2,7
59397169619,23,8,5,28,12,7,8,0
59397184759,2,-6,-4,-15,-10,-6,-7,18
59397184759,2,-3,-26,-6,1,-5,-3,-2
59397214996,-3,3,14,3,3,2,-2,-7
59397214996,-12,-14,37,-37,-6,1,1,3
59397215824,-12,0,-16,8,-4,-1,-4,-7
59397215824,12,4,-10,33,0,-2,-2,-5
59397217426,-13,-2,21,-3,4,1,2,7
59397217426,22,-1,12,22,0,2,1,0
59397220508,-7,-2,5,-41,-6,0,2,4
59397220508,-10,-5,-6,-22,-7,-3,1,-4
59397229499,-7,-2,24,-1,2,-4,-2,-4
59397229499,-2,1,2,7,0,4,-1,3
59397244366,-6,-1,-12,11,0,-2,-2,-3
59397244366,6,1,1,-23,-4,-2,-4,-7
59397245951,0,0,11,-7,0,-2,-2,-3
59397245951,-23,-2,-9,-13,3,-1,-1,-8
59397274301,7,3,2,26,4,-1,-1,0
59397274301,-6,-2,2,-2,-3,-2,-4,-11
59397275894,-4,-2,11,19,-7,-4,-2,-1
59397275894,2,5,7,-8,2,-2,6,3
59397280463,-1,-1,-4,26,-2,0,-7,-1
59397280463,1,1,5,-3,4,3,3,1
59397289421,5,-2,2,5,1,-1,1,3
59397289421,-1,-2,0,-7,-6,-4,-4,-4
59397303455,-14,-5,-6,3,7,-3,-2,-2
59397303455,6,3,1,0,-6,0,0,-4
59397311919,-2,-3,-7,-27,-13,1,-3,-5
59397311919,2,1,1,-3,3,0,0,0
59397326851,-8,-7,0,16,-3,-2,1,6
59397326851,-3,4,3,-29,-2,-5,-3,-6
59397328455,-2,-3,4,17,6,1,-2,-5
59397328455,-3,-1,-2,-10,-9,-4,-3,4
59397340427,8,5,0,-8,7,-4,-1,-8
59397340427,2,-4,-4,10,-5,2,3,3
59397349481,4,1,7,0,1,-3,4,0
59397349481,-3,-5,-6,-20,-9,2,-4,-1
59397363687,-1,1,4,3,6,1,2,-3
59397363687,9,4,3,7,3,-1,1,6
59397370420,1,3,7,1,2,-1,0,-2
59397370420,-6,-3,1,5,0,0,0,0
59397386793,1,-3,-7,10,-1,-2,-5,-4
59397386793,-6,-3,1,6,2,0,0,0
59397388435,6,0,-2,-6,-2,-3,-1,-3
59397388435,-5,1,2,10,3,0,0,1
59397400475,-9,-2,-5,25,-3,4,4,1
59397400475,16,0,1,-15,-3,-2,-4,0
59397410182,1,-2,2,1,2,-5,-3,-1
59397410182,-4,1,2,-5,-13,-13,-4,-3
59397424323,-7,-1,-1,-16,-7,5,-3,-1
59397424323,-5,-2,-1,3,5,0,0,-2
59397425933,-4,1,4,9,2,2,1,2
59397425933,7,2,4,-6,1,1,3,2
59397446838,2,-1,1,-8,-5,-4,0,-5
59397446838,-7,-1,-3,-1,1,0,-1,-2
59397448455,-2,-2,-3,-9,-8,-10,-9,0
59397448455,-8,-2,-4,22,11,0,2,0
59397469309,9,0,-3,-25,-12,-2,1,1
59397469309,-9,-5,-2,0,2,0,-1,-4
59397470931,-4,0,1,-5,-5,2,-2,0
59397470931,8,-1,-3,-13,-4,2,-3,1
59397484428,1,2,4,20,9,2,1,1
59397484428,7,3,-3,-11,-7,-3,0,-1
59397492111,-6,-5,-6,-3,-1,0,1,-1
59397492111,-13,-3,-2,3,-4,-4,-5,0
59397514371,19,0,-3,-14,-3,-6,-1,-1
59397514371,-6,-1,0,39,8,0,-3,-2
59397515918,0,2,1,-10,-4,1,3,1
59397515918,3,1,-2,-4,2,1,0,-2
59397529301,-9,-2,-2,-10,-6,-2,0,-1
59397529301,-1,1,3,-9,0,0,-1,-1
59397530939,0,-3,0,22,2,-4,-6,-1
59397530939,-1,-3,-3,-34,-3,0,0,-1
59397543645,-7,-1,-3,11,3,2,1,0
59397543645,-1,-1,0,-11,-3,1,-1,2
59397550493,-2,-2,-2,1,-2,-2,-2,-3
59397550493,0,-4,-1,-24,-7,-3,-1,-5
59397566790,-4,-2,1,17,-5,-5,-2,0
59397566790,-3,0,0,8,-5,0,1,0
59397568372,7,2,0,-12,10,4,2,0
59397568372,-6,-3,-1,9,-16,-3,-3,-1
59397589380,6,2,-1,-15,4,-4,-1,-2
59397589380,-8,-2,0,11,4,2,3,1
59397590931,1,0,1,-13,-6,3,1,1
59397590931,-2,-2,-3,-25,-5,-1,-3,-4
59397603654,7,-1,0,2,0,-3,0,-1
59397603654,-8,-3,-3,-15,-2,-4,-1,-2
59397610437,2,2,2,12,0,-3,-1,0
59397610437,6,4,3,7,7,9,2,3
59397626800,-14,-6,-9,1,-4,2,-5,-3
59397626800,6,-1,-2,-19,-9,-5,-4,0
59397628426,-3,-2,2,3,0,-3,-2,-6
59397628426,-2,2,0,20,0,-5,-6,-1
59397649379,-4,-6,-5,-32,-9,-3,1,0
59397649379,-1,-2,0,13,6,7,-1,2
59397650946,-7,-4,-7,-17,-4,-3,-3,-2
59397650946,11,0,-1,9,3,-2,0,-3
59397688167,-3,-1,-2,6,-4,-4,-2,-2
59397688167,3,-3,-1,-26,5,7,4,1
59397689814,-4,-3,-2,-5,-5,-3,0,1
59397689814,-7,-3,-2,22,6,0,1,1
59397690603,11,1,2,-2,1,0,1,-1
59397690603,5,1,-4,6,-4,-8,-3,-3
59397694433,-12,-4,-5,3,5,2,-2,-1
59397694433,-2,-1,5,4,-1,-1,1,-1
59397709346,-3,0,0,-9,-7,-1,-1,1
59397709346,-5,-2,-4,-1,-3,-5,0,-6
59397710980,5,2,-1,-2,5,1,-1,2
59397710980,-1,-2,-2,-5,-5,1,1,-2
59397723037,-8,-3,-4,-4,-3,-2,-4,-4
59397723037,-2,-1,-2,3,-1,-3,-2,-1
59397731967,-2,-3,0,-16,2,-2,0,-2
59397731967,-1,-3,-1,-5,-9,-3,-1,1
59397746810,-2,2,-2,1,-1,0,-4,0
59397746810,-3,-3,-3,-3,2,3,1,-1
59397748430,6,-1,-1,2,-6,-6,-3,-3
59397748430,1,-2,-2,-9,12,2,3,2
59397769380,-10,0,-9,-29,-16,-1,1,-3
59397769380,9,1,-25,29,-15,-5,-6,-2
59397770951,2,0,15,5,4,-1,1,-1
59397770951,4,4,8,18,-1,-2,1,-1
59397782950,2,-2,-15,-16,2,-1,-3,0
59397782950,-12,2,4,-2,1,-2,-1,-2
59397791977,0,5,-33,-1,-8,-1,-3,-1
59397791977,1,0,-11,-2,-4,-7,-7,0
59397806861,-1,0,3,7,10,0,-1,-3
59397806861,5,0,15,11,1,3,2,3
59397808453,9,6,-6,7,-1,3,1,-1
59397808453,-8,-2,4,-4,8,3,1,-1
59397829381,-12,-7,-10,-27,-8,-2,1,1
59397829381,-5,-10,-6,24,0,-6,-3,-3
59397830948,0,-1,8,-3,-9,-2,-1,2
59397830948,-5,-6,-3,-9,0,1,1,-2
59397842966,-3,-2,10,36,11,1,-3,0
59397842966,-3,-3,-4,-11,-16,-4,-3,-1
59397851997,-2,-3,-1,7,-1,1,2,-4
59397851997,-6,-3,-4,-24,-8,-4,0,-5
59397867475,1,-1,5,29,6,3,1,-1
59397867475,0,0,4,-11,5,-1,-1,2
59397869107,-4,-1,7,6,-1,1,-8,0
59397869107,2,3,-4,-8,-4,1,-4,0
59397889305,-2,-1,4,19,0,-1,1,-1
59397889305,2,0,0,-4,-2,-1,-6,-2
59397890877,0,-3,1,1,3,-2,1,0
59397890877,13,8,3,33,8,3,0,0
59397902969,4,3,1,-20,-4,-2,-3,-1
59397902969,-1,3,6,-24,-12,-3,-2,-3
59397911983,1,0,-3,11,2,0,-2,2
59397911983,1,1,4,9,4,1,-4,0
59397926828,1,1,3,-13,0,0,1,2
59397926828,-2,0,0,-5,5,3,1,-2
59397928452,-8,-4,-1,12,-3,-2,-4,-3
59397928452,10,5,1,-11,-5,-7,2,1
59397949264,-1,0,5,-7,-1,7,1,0
59397949264,3,0,7,-5,9,-1,1,0
59397950911,2,-6,3,-15,-5,6,1,1
59397950911,3,1,-1,1,-3,-6,-2,1
59397962977,7,4,3,10,5,5,-3,1
59397962977,2,0,-3,-33,-14,-8,-2,-1
59397971955,-12,-15,-2,3,6,2,2,3
59397971955,-10,-4,-3,0,-2,5,0,-3
59397986799,2,0,-2,-2,0,-3,2,-2
59397986799,-2,-1,-4,7,1,0,-1,-1
59397988384,0,4,4,-10,-1,-3,-2,-5
59397988384,-7,-6,-3,-12,-5,-4,0,-3
59398016832,-2,-1,1,14,-1,-2,-3,-4
59398016832,-5,-5,-9,6,0,1,-1,-2
59398018435,-3,0,-4,-12,-8,-3,-8,-3
59398018435,-3,-3,-2,-7,1,-5,3,2
59398022934,0,-1,0,23,1,-2,-4,-2
59398022934,1,0,1,-38,-2,7,3,2
59398031954,0,2,1,14,-5,-7,-5,-5
59398031954,-3,-4,-5,2,-2,5,0,-1
59398046828,-3,-4,-3,0,-2,-6,1,-1
59398046828,-3,-1,-1,3,2,0,1,0
59398048397,-2,-2,-3,-2,3,-2,-5,-4
59398048397,3,2,3,-1,4,7,1,3
59398069293,-4,-1,0,-3,-3,-4,0,-3
59398069293,-3,-2,2,12,-1,-1,-2,0
59398070882,0,1,-3,-12,-3,-1,3,-2
59398070882,-3,-1,-4,4,-2,-5,-3,-1
59398082993,-2,-4,-4,-16,-1,9,-3,0
59398082993,0,1,0,12,2,-11,0,-1
59398091987,0,-3,1,-4,-3,0,2,1
59398091987,0,1,0,-9,3,-3,-7,-2
59398114311,0,2,-3,12,-2,3,-3,-1
59398114311,-3,-3,-3,-2,-2,0,-2,-3
59398115923,2,2,1,0,2,0,5,3
59398115923,-4,-3,-1,-5,-4,5,-3,-2
59398129304,-1,-2,2,-3,-1,-19,-3,-4
59398129304,-1,3,0,9,-3,7,0,1
59398130935,1,3,-1,-5,3,2,1,1
59398130935,1,-1,3,-4,-4,10,1,-1
59398142976,1,1,1,-7,3,-1,-1,0
59398142976,-1,-2,2,19,0,-2,-6,-1
59398159476,-3,-2,-1,-19,-1,-3,1,0
59398159476,1,1,0,6,-3,-7,-1,-2
59398166855,-1,-2,0,-8,0,2,1,1
59398166855,0,-1,-2,-13,2,-3,1,1
59398168458,-1,1,3,2,-3,1,-2,-5
59398168458,1,2,-3,2,3,2,-1,-1
59398189293,-4,-3,-7,-6,-5,3,2,-2
59398189293,-3,-2,-4,-1,0,-1,-3,0
59398190912,-1,0,0,7,-2,-13,-3,-1
59398190912,-4,-4,-5,-8,-1,6,7,-2
59398202981,-4,-2,-6,3,-4,-22,0,-4
59398202981,-5,-7,-8,-2,-2,9,6,-5
59398228355,-3,-4,-8,-3,-5,-6,0,-1
59398228355,-4,-3,-8,3,0,-8,-2,-1
59398229137,-3,-5,-5,-5,2,6,3,-4
59398229137,-4,-3,-7,5,-2,-6,3,-3
59398232951,-6,-4,-9,1,0,-3,2,-1
59398232951,-7,-6,-6,1,-5,-1,1,-1
59398249384,-5,-3,-6,0,2,-2,1,0
59398249384,0,1,0,-5,-5,-6,-6,-1
59398250932,2,1,2,1,3,11,3,0
59398250932,2,1,4,0,-3,-2,-9,-1
59398263029,4,2,2,-6,-4,-6,-7,-1
59398263029,2,1,2,5,2,3,-7,-1
59398271911,3,2,2,0,5,6,-4,0
59398271911,2,1,1,2,-2,8,-3,0
59398286166,4,1,6,-5,1,-2,1,3
59398286166,1,1,-1,6,2,6,0,-1
59398292971,3,2,3,-3,-1,-3,-3,1
59398292971,4,-2,0,1,-4,-15,-8,-3
59398316832,0,0,1,-1,-4,7,3,-1
59398316832,0,-2,1,-1,-1,-1,-8,-2
59398318455,-3,0,1,-4,-2,-13,2,1
59398318455,-3,0,-2,-2,1,4,3,1
59398322941,1,2,0,-2,0,4,-1,-1
59398322941,-1,-3,1,0,-3,-7,-1,-2
59398332029,-2,-2,-2,-4,-6,-3,-5,-3
59398332029,-2,-2,0,-4,3,3,1,-1
59398346526,-1,-1,-2,8,1,1,-1,-1
59398346526,0,1,0,-4,1,0,-1,-2
59398354490,0,-2,-1,1,-1,-4,2,-1
59398354490,-4,1,1,-6,-5,-8,-2,-4
59398369354,-1,-1,1,-2,-3,-1,-6,-2
59398369354,0,0,-3,-5,2,-1,0,-1
59398370948,1,-1,0,2,0,5,1,-1
59398370948,1,0,1,6,0,3,0,1
59398382926,-3,-3,-2,-1,-3,-8,-3,-1
59398382926,-2,-2,-3,-7,-1,0,1,-3
59398391912,0,-1,1,-5,-5,-7,-4,-1
59398391912,-3,0,1,6,1,7,0,-2
59398406100,-1,-1,-1,1,1,-1,0,1
59398406100,0,1,0,-3,-3,-2,0,0
59398412953,-4,0,-1,-2,-3,2,-5,-3
59398412953,-1,-5,-1,-2,-1,-11,-1,-2
59398429305,0,0,2,-1,-1,2,-1,0
59398429305,0,-1,-1,9,2,0,1,0
59398430933,-2,-2,-3,0,0,4,-1,-2
59398430933,-1,-1,-2,-9,-7,-14,-1,-1
59398442968,-3,-1,-3,-2,0,3,-1,-2
59398442968,2,-2,0,2,2,-1,0,0
59398451996,0,-3,-2,-3,-2,5,0,-1
59398451996,-3,-4,-1,-2,3,-3,0,0
59398466178,-1,-1,-1,-4,-4,-2,-2,-1
59398466178,-2,2,-1,5,-2,1,-3,0
59398472947,-1,-1,-4,-3,0,-2,-3,-2
59398472947,-1,-3,0,-9,-3,-1,-2,-1
59398489352,-1,0,-2,5,0,-7,-1,0
59398489352,-1,0,2,-2,-3,5,0,0
59398490966,-2,0,1,-2,1,0,1,-2
59398490966,-1,0,0,-3,-1,-1,1,-4
59398519374,1,-1,-1,-1,-3,1,-2,0
59398519374,-1,-3,-2,0,0,-4,0,0
59398520936,0,-2,-2,-1,-2,-1,0,-1
59398520936,-1,0,-2,-2,-1,3,-1,0
59398526144,0,0,-1,-3,0,1,0,-2
59398526144,-1,0,1,-2,-1,-4,-1,-2
59398533015,-1,0,-2,0,-1,0,2,-1
59398533015,-2,-2,-2,0,-1,2,-2,-1
59398549377,-2,-1,-1,0,-1,-2,-3,1
59398549377,1,-1,0,-3,-2,1,-2,-2
59398550944,-1,0,-2,2,1,-3,-1,1
59398550944,0,0,-1,1,-2,-2,-1,0
59398571803,-1,-1,-1,0,-2,3,0,2
59398571803,-3,-2,-1,-2,-1,-3,0,0
59398573389,-2,-1,-2,1,-1,0,-1,-1
59398573389,0,1,-3,-1,-1,1,-2,-2
59398585468,0,-1,0,0,-2,-1,-2,-4
59398585468,0,1,-1,-3,0,-4,-1,0
59398594433,-1,-1,-2,-1,-2,0,-2,-2
59398594433,-2,-4,-2,-2,-3,-3,0,-1
59398609304,-3,-1,-3,-2,-1,0,-2,-2
59398609304,-1,0,-1,-1,1,-2,-1,-1
59398610906,0,0,1,0,0,-1,-3,-2
59398610906,-1,0,3,0,-1,-1,0,1
59398631833,-1,-3,-2,-3,-2,-1,0,0
59398631833,0,0,1,-2,0,-1,-2,-1
59398633443,-1,0,1,-1,0,0,-1,0
59398633443,0,-1,-1,-1,1,-2,-3,0
59398645392,0,-1,1,0,0,2,-1,-3
59398645392,-2,-4,0,-1,-2,-2,-1,-1
59398654472,-1,-1,-1,0,-1,-2,0,-1
59398654472,-2,1,-3,0,-1,-3,0,-2
59398669262,-3,-2,-5,-2,-1,-2,1,-2
59398669262,-2,-3,-2,-1,-2,-2,2,-1
59398670906,-1,-3,-4,-1,-2,-2,-3,-2
59398670906,-2,-1,1,3,-1,-1,-2,-1
59398691832,-1,-2,-2,-7,-2,0,1,-2
59398691832,-1,-2,-4,0,-2,-2,-2,-4
59398693462,-2,-2,-1,2,0,0,0,0
59398693462,-2,-1,-5,-3,0,1,2,-1
59398705926,-2,-1,0,1,-1,-3,0,1
59398705926,-2,-2,-2,-2,-1,0,-1,0
59398714468,-1,1,0,-3,-2,-1,0,-1
59398714468,0,-2,-2,1,0,-2,-3,-1
59398729373,0,-1,0,0,1,-1,-1,-2
59398729373,1,-1,2,-1,-1,1,-2,1
59398730922,0,1,0,-2,-1,-1,-2,1
59398730922,0,0,3,0,1,0,-2,0
59398751808,2,0,3,-2,-2,0,-3,1
59398751808,3,3,4,-1,1,0,-2,0
59398753387,2,-1,1,0,-2,0,-3,1
59398753387,-1,-2,0,-1,-1,-3,-1,-1
59398765471,1,-1,-2,-2,-1,-2,-1,-3
59398765471,-3,-3,-4,0,-2,-1,0,-3
59398774436,-5,-4,-3,0,0,-2,2,-4
59398774436,-3,-4,-5,-1,-1,-3,1,-2
59398796859,-5,-3,-6,-2,0,-2,-1,-3
59398796859,-3,-5,-4,1,0,-3,2,0
59398798455,0,3,-2,-2,-1,0,-2,0
59398798455,-18,-21,-6,-4,-3,-1,-4,-1
59398811808,-2,0,2,2,0,-1,-1,-2
59398811808,1,1,1,-4,0,0,-3,0
59398813414,-1,-2,-2,-5,0,0,-1,-1
59398813414,3,3,2,-3,-1,1,-2,1
59398825485,2,2,0,-1,-2,0,-5,-3
59398825485,-1,0,1,-2,-1,-1,-3,-3
59398851479,0,-4,-3,-2,-2,-2,-1,-2
59398851479,2,6,0,-1,0,-1,0,-2
59398852355,-2,-1,-3,-2,1,0,1,1
59398852355,0,11,-2,0,-2,-3,0,0
59398855459,3,-1,3,5,1,-2,0,0
59398855459,2,1,0,0,0,-1,-3,-1
59398871789,0,-4,-3,-3,0,-1,-6,0
59398871789,-1,1,2,3,0,-4,-1,-2
59398873418,-2,-2,-1,-2,0,1,4,-1
59398873418,1,0,3,-2,-3,-1,0,2
59398885489,-3,0,2,2,-3,-2,-3,-1
59398885489,-2,-6,-7,-8,-4,-3,-1,-1
59398894442,-3,-1,1,-11,-6,-3,0,-2
59398894442,5,4,-2,4,-1,1,-1,-1
59398909301,-3,-3,0,-1,2,0,2,0
59398909301,-7,-4,2,-1,-5,-1,-3,-5
59398910901,22,5,-7,0,-1,-3,-4,-1
59398910901,-3,8,1,0,-1,3,4,4
59398931839,3,-8,2,1,-2,0,-6,-7
59398931839,-5,-13,0,0,2,2,1,-6
59398933422,-5,1,-1,10,1,0,-2,-28
59398933422,2,-11,-3,-1,0,-3,0,8
59398945439,6,0,-1,0,0,2,1,2
59398945439,4,9,5,-1,1,0,0,-2
59398961931,1,-6,1,0,-1,-1,-1,7
59398961931,-13,-9,2,7,3,-1,-2,-3
59398969297,-13,0,-10,-4,-2,-2,0,-3
59398969297,-18,-1,-4,-3,-3,-3,0,3
59398970906,-8,-4,-3,2,0,-1,-3,3
59398970906,1,2,1,-1,-1,-1,-1,-4
59398991853,4,-2,-5,-6,0,-1,3,4
59398991853,13,5,-4,-2,-1,-3,-3,2
59398993460,-33,-24,0,-3,1,1,-1,0
59398993460,5,4,-3,-3,-3,0,-1,-4
59399005429,-9,-18,2,0,-3,-5,-3,-4
59399005429,4,-2,-2,5,0,-1,-4,0
59399014422,-5,5,-1,-4,-4,-1,-1,2
59399014422,4,0,-2,-4,0,0,-1,-2
59399029380,3,4,1,-1,-1,0,0,0
59399029380,-2,-6,-4,-6,-2,-1,0,-2
59399030952,9,6,2,2,-3,-1,-2,4
59399030952,-4,0,-4,-2,-3,-1,-4,0
59399051801,4,3,0,1,-2,0,1,-1
59399051801,3,-1,-1,-2,-2,1,0,-1
59399053433,9,0,-3,-7,-2,-1,-2,-1
59399053433,5,-5,-1,0,-3,-1,-2,-2
59399065477,5,8,4,-1,-2,0,1,2
59399065477,4,-1,0,0,0,0,-1,1
59399074485,-4,-2,-6,-3,0,-2,-1,0
59399074485,-12,-26,-4,-3,-3,-2,-3,-2
59399089331,-1,-2,-1,-3,-3,-2,-2,0
59399089331,-5,2,1,2,-1,-2,0,0
59399090917,2,1,0,-1,-1,-3,-1,0
59399090917,-6,10,2,-1,-1,-1,0,-1
59399119291,11,-10,-9,-6,-5,-6,-7,-10
59399119291,1,-4,1,1,1,-1,-2,0
59399120913,-11,-1,-1,-4,0,-1,-1,-2
59399120913,2,11,-2,-2,-2,-1,-3,-3
59399125493,-5,-3,2,0,1,1,-1,0
59399125493,6,6,-3,1,-1,-1,-1,-3
59399135178,-10,1,1,2,-1,0,-4,1
59399135178,-3,-3,-3,-4,-2,-2,-2,-3
59399149307,-4,0,-3,0,1,-1,0,1
59399149307,-4,-4,0,0,2,0,1,-2
59399150918,3,2,1,1,-2,0,-1,2
59399150918,4,1,-1,-1,-3,-4,1,-3
59399171834,-2,1,1,3,0,1,-1,1
59399171834,-2,-2,-3,-1,-2,-1,-2,-1
59399173456,3,-2,0,-1,0,-2,-1,-1
59399173456,3,4,-1,-2,-1,-2,-1,-1
59399185456,-1,1,1,0,-1,0,-1,0
59399185456,-4,-3,-2,-3,-2,-2,-1,1
59399194477,2,2,-2,0,0,-3,1,-3
59399194477,-1,-1,0,-2,0,-2,0,-1
59399208624,-4,3,1,1,1,1,0,0
59399208624,2,10,-7,-6,-3,-2,0,0
59399215453,-2,-2,1,2,1,2,-1,0
59399215453,3,-2,0,0,-2,1,-1,-1
59399231802,9,12,3,1,0,-2,0,3
59399231802,0,-2,-2,-1,-2,0,-3,-3
59399233389,0,-1,-3,-2,-1,-1,-1,-3
59399233389,2,-4,-3,1,1,-3,-5,-3
59399245469,-3,-2,0,-3,-3,-1,0,1
59399245469,-3,-5,2,0,-2,-1,-1,0
59399254423,-1,4,1,2,-1,0,0,2
59399254423,-3,-2,-1,-2,0,-1,-1,-2
59399269277,-3,-3,-3,0,1,-1,-1,-3
59399269277,-3,-2,1,-2,-2,0,-2,-3
59399270865,0,-4,-2,-2,-2,-1,-1,1
59399270865,0,5,1,-1,-2,0,1,-1
59399291812,-5,0,-5,-1,-1,-2,-2,-1
59399291812,-1,-3,1,1,2,0,-1,-1
59399293400,0,0,-1,0,-2,0,3,-1
59399293400,0,0,-3,0,-4,1,-1,-1
59399305489,-5,-1,1,1,-1,2,-2,-1
59399305489,-7,-21,-2,-5,-3,-3,0,-2
59399314469,-1,3,0,1,1,-2,0,-2
59399314469,-1,2,-3,-2,1,-1,-2,-1
59399329263,-1,-6,-6,-6,-4,-1,0,0
59399329263,1,2,1,2,2,-3,0,1
59399330919,-3,-5,-4,-3,-3,-3,-4,-2
59399330919,-4,-2,3,3,1,1,2,-1
59399351832,1,2,-9,-8,-4,-5,0,-2
59399351832,-3,-2,1,-3,0,-1,-3,0
59399353463,-12,-10,-5,-5,-2,-2,-6,-7
59399353463,-6,0,-8,0,3,-2,-1,-3
59399365429,-2,-8,10,8,2,4,0,2
59399365429,-2,2,-9,-4,-4,0,0,1
59399374496,5,2,4,1,-2,-1,2,-1
59399374496,-6,-16,19,4,-2,-1,-1,-3
59399389292,4,10,2,-3,-2,-3,1,-1
59399389292,4,1,-4,0,-1,-2,-2,-1
59399390925,2,5,3,2,0,1,0,0
59399390925,-1,4,-8,-4,-3,-4,-2,0
59399411782,-2,-1,0,0,0,-1,-2,1
59399411782,-1,0,4,3,1,-1,-2,0
59399413370,2,-2,-4,-3,0,-1,-3,0
59399413370,0,-1,-3,-5,-2,-3,2,0
59399434316,-3,-5,-2,-2,0,-2,-2,-2
59399434316,1,3,-2,0,0,-2,0,-2
59399435968,-1,-1,-1,1,0,-1,-3,1
59399435968,3,2,-2,-7,-4,0,-1,0
59399449306,0,1,-3,-3,0,-1,1,-1
59399449306,-3,-3,-1,1,-1,0,-2,-2
59399450942,2,-1,2,-1,-1,-2,2,1
59399450942,-1,1,-2,1,1,-1,-2,-1
59399471911,-2,-1,-2,1,-2,-2,-3,0
59399471911,-6,-2,0,0,-1,1,-1,0
59399473509,5,3,-1,-4,-2,0,-1,-1
59399473509,-1,-6,-3,-1,1,-1,-2,1
59399494297,10,4,-1,2,-1,-1,2,2
59399494297,-11,-3,2,-1,0,-1,-2,-1
59399495918,-4,-2,0,0,-2,-1,-2,0
59399495918,10,-4,-6,-2,-2,-1,-3,0
59399509297,-2,1,0,1,2,-2,-1,-4
59399509297,30,17,-4,-1,-2,-1,-3,0
59399510904,-34,-31,0,-4,-3,-4,-3,-1
59399510904,0,0,0,-1,1,1,0,1
59399531821,-6,-7,-6,-5,0,-2,-3,0
59399531821,0,5,0,-3,-2,0,0,-1
59399533430,8,7,-3,1,-1,0,1,-2
59399533430,0,4,-2,-1,-1,-2,-2,-2
59399554322,-13,-11,-1,-2,-4,0,-3,-3
59399554322,-3,2,2,0,-2,-3,1,-1
59399555902,8,3,-1,2,-1,-1,-1,0
59399555902,-9,-8,-4,-3,1,1,0,-3
59399567954,4,7,2,-1,1,0,-2,0
59399567954,-8,-6,-3,-2,-1,-1,-2,-3
59399576186,-1,1,-3,-2,1,0,-2,-1
59399576186,4,10,2,-1,-2,-2,0,1
59399591104,-17,-18,-4,-2,-1,-3,-3,-3
59399591104,-6,-4,-4,0,0,-1,0,0
59399591889,3,3,-2,0,-2,-1,1,1
59399591889,-3,1,0,1,-2,0,-3,-2
59399613656,4,2,-3,2,1,0,1,1
59399613656,-8,-11,-2,-3,-2,0,-4,-3
59399614465,2,5,1,0,0,0,0,-1
59399614465,-1,-1,-2,0,-1,-3,0,-2
59399627933,-1,-1,-3,-1,-4,-3,-1,-4
59399627933,-20,-20,-2,0,0,0,-1,-2
59399636152,6,2,0,-2,-1,1,-2,0
59399636152,-4,-1,2,3,-2,0,-1,0
59399651075,8,8,0,0,-1,0,1,-1
59399651075,2,1,-1,-2,1,-1,-2,-1
59399651902,-2,-6,-4,-3,-2,-3,-1,-2
59399651902,11,8,3,0,-1,0,1,-1
59399673612,-2,4,-3,-3,-2,0,-3,-1
59399673612,0,1,2,-1,0,-3,-1,-2
59399674433,-1,-3,-2,-2,-2,-1,1,-1
59399674433,-1,1,-2,2,1,-1,-1,1
59399687887,-2,-2,2,0,-1,0,-2,0
59399687887,5,2,0,-5,-2,-1,1,0
59399696108,-1,1,-4,-2,-2,-2,-3,-2
59399696108,-7,-9,-1,-1,-1,-3,-3,-2
59399711159,0,-1,1,-1,2,0,0,2
59399711159,1,2,0,0,1,-1,0,-2
59399711914,-4,1,-1,-5,-3,-4,1,-2
59399711914,-2,-3,-1,-2,-4,-2,0,-1
59399733625,-4,-8,-3,0,-1,0,-2,0
59399733625,5,3,-3,1,1,1,-2,-1
59399734444,-1,1,-1,1,0,1,-2,-1
59399734444,-1,-1,0,-1,-2,-1,0,0
59399758358,9,9,-1,-2,-2,-2,-3,-1
59399758358,-13,-8,-1,0,-1,-1,-2,0
59399759147,-2,1,-1,0,2,-3,0,0
59399759147,-7,-16,-3,-3,-3,0,-2,-3
59399771100,1,-1,3,0,-1,-1,0,0
59399771100,13,14,-2,-3,-1,-2,2,-1
59399771876,0,0,2,-1,-1,-1,-1,-1
59399771876,-3,-7,-4,1,0,0,-2,-2
59399793651,1,-5,-5,-4,-1,-3,-1,-3
59399793651,6,1,1,3,0,-1,-1,1
59399794440,-6,-2,3,0,0,0,-1,-1
59399794440,4,8,2,0,-1,-1,0,1
59399808562,-2,-2,1,0,1,1,-2,-2
59399808562,-1,-1,-4,-1,-2,-3,-2,-3
59399809383,6,6,-1,-2,-1,0,-1,0
59399809383,-3,0,1,0,-1,0,-1,1
59399831245,-4,-2,1,-4,0,0,-1,-1
59399831245,-2,-2,1,4,1,1,-1,-2
59399831899,-4,-7,-6,-1,-4,-1,-1,-1
59399831899,0,4,-1,-1,2,-2,0,-1
59399853657,-4,-1,-1,-2,-1,-2,-2,-1
59399853657,0,0,-2,-2,-1,-1,-3,0
59399854473,1,-2,-4,-2,-1,-1,1,-2
59399854473,0,7,-2,-2,-2,-3,-2,-2
59399869483,2,1,-1,-1,-2,-1,0,-1
59399869483,-4,-4,-2,-2,-2,0,0,0
59399876183,1,1,0,2,-2,0,0,-2
59399876183,4,0,-3,-5,0,-1,-2,0
59399899297,-8,-3,1,-1,1,0,-2,-2
59399899297,-4,1,1,-1,-2,0,-1,0
59399900076,-6,-19,-1,-3,-1,2,0,0
59399900076,1,4,1,0,1,1,0,-1
59399913601,1,3,-3,1,-3,-1,-1,-2
59399913601,-1,-5,-3,-4,0,-2,-1,-1
59399914453,-1,2,-1,-1,-3,-2,-2,-2
59399914453,-2,1,-3,-1,-1,-4,0,-1
59399927901,-7,-10,-5,-4,-3,-2,-1,1
59399927901,2,2,-1,1,-1,0,0,-2
59399936159,1,0,-2,0,3,-2,-2,-1
59399936159,-1,-4,-1,-1,-2,-1,-2,-3
59399959288,1,2,0,-1,0,-3,0,-2
59399959288,-2,-2,-2,0,-2,-1,0,0
59399960081,0,4,1,-1,0,-2,-2,-2
59399960081,-2,-5,0,1,-3,0,0,-2
59399973606,-1,1,-2,3,6,4,2,-1
59399973606,-3,-3,0,-5,-8,-2,-3,-2
59399974407,0,3,-1,-2,-2,-4,-2,0
59399974407,-1,-1,-1,-2,-1,-2,1,1
59399996849,2,1,1,0,0,-2,-2,-1
59399996849,1,-3,-3,2,4,0,0,0
59399997604,-1,1,-1,-7,-11,-3,0,0
59399997604,-2,-1,1,4,0,0,-2,-3
59400011342,-4,-3,-4,-4,-4,-1,-1,-2
59400011342,6,11,0,-3,0,-2,-2,0
59400012162,-2,-4,1,1,2,-1,-2,0
59400012162,13,4,0,-3,0,0,-1,1
59400033604,5,3,2,0,0,-1,1,-2
59400033604,-3,-10,-2,0,-2,1,-4,0
59400034382,-10,-12,-5,-2,1,0,-2,-1
59400034382,-9,2,3,0,-1,1,0,-1
59400047949,1,-4,1,2,-3,1,1,1
59400047949,-4,0,0,-1,0,-1,1,-3
59400056177,7,4,1,-2,0,0,-1,0
59400056177,-2,-4,-1,-3,0,0,-2,-1
59400071095,-3,2,-1,-1,-2,-2,-1,0
59400071095,-2,-2,-1,-1,1,1,-2,-1
59400071901,-1,2,1,2,1,0,-2,1
59400071901,-3,1,-4,-1,-2,-1,0,-3
59400093604,1,2,-1,-1,-1,-1,0,-2
59400093604,3,1,0,-1,-2,-2,0,-1
59400094384,-3,-1,-1,-1,0,-1,-1,-3
59400094384,-3,-2,-4,-1,-3,-4,-1,0
59400107938,-1,-4,0,-2,-2,1,-3,0
59400107938,-2,-2,-1,2,0,1,-4,-1
59400116173,-1,2,-1,-1,-1,0,-1,-2
59400116173,-1,-3,-2,-2,0,-1,0,0
59400131075,-1,0,-1,-1,-3,-1,-2,0
59400131075,-1,0,0,-1,-1,-1,-3,-3
59400131893,1,4,-1,0,-1,-1,0,0
59400131893,-2,-4,-5,-2,-2,-1,0,-3
59400161809,-5,-5,-2,-3,-1,-1,-2,1
59400161809,-3,-2,1,-2,0,1,0,0
59400162600,0,-2,-1,-1,-1,0,0,0
59400162600,-1,-2,-1,0,1,0,-1,-1
59400167977,0,4,1,-1,1,-1,-2,-1
59400167977,1,-2,1,-2,-1,-2,0,-1
59400183628,-2,0,0,0,0,0,0,-1
59400183628,-2,-2,-1,-1,-2,0,-2,0
59400191130,1,-2,-7,-3,-4,0,0,-1
59400191130,-5,-1,0,0,1,-3,0,1
59400191929,2,6,2,-1,1,-5,-3,-2
59400191929,-2,-1,-2,-3,-2,0,-3,0
59400213623,0,-3,-1,-1,0,0,-1,-4
59400213623,-1,1,-3,-2,0,-1,-1,0
59400214367,-1,-3,-4,-3,-3,0,-2,3
59400214367,-1,-2,1,-1,0,-2,0,-1
59400229468,-1,0,1,0,0,-1,-3,0
59400229468,-2,-2,-4,-1,0,-2,1,-1
59400236137,0,1,-2,2,1,-2,-1,-3
59400236137,-1,-1,0,0,1,-1,-3,0
59400250923,0,-2,1,-1,-2,-3,-1,0
59400250923,-1,-2,-2,0,-3,-1,-2,-2
59400258688,0,-1,-2,-6,-9,0,0,0
59400258688,1,0,0,-1,-6,-4,-3,-3
59400273616,-1,0,1,-2,-1,-3,0,0
59400273616,-1,-1,0,0,2,-1,-2,1
59400274385,-3,-3,0,-5,0,-4,0,-1
59400274385,0,-2,0,1,0,1,-2,-1
59400287972,1,-1,-2,1,0,-1,0,-2
59400287972,1,1,-3,-3,-3,-1,1,-1
59400296161,-20,-25,-2,4,1,1,-2,-4
59400296161,1,1,-1,0,1,0,0,-1
59400311102,-1,-5,-4,-1,0,-2,-2,-2
59400311102,-14,-11,-2,0,0,0,-1,0
59400311894,2,3,-1,-2,-2,-1,-4,-3
59400311894,-3,-3,-4,-4,-2,-1,-1,0
59400333604,-6,3,-3,0,0,-1,1,-2
59400333604,3,0,-4,-4,-1,-1,-1,-2
59400334374,2,1,-2,0,-1,-1,0,1
59400334374,0,-3,-2,-1,-1,0,-3,0
59400356759,2,0,1,1,0,0,-1,-1
59400356759,-1,0,-2,-1,-2,0,0,-2
59400357539,1,4,-2,2,2,0,1,-1
59400357539,-1,2,-3,2,1,-1,-2,-2
59400379981,-2,-2,-2,-3,-4,0,-3,1
59400379981,-2,0,0,-1,-1,-1,0,-1
59400380746,2,2,-3,0,-2,-1,1,-1
59400380746,-4,-2,-2,-2,0,-3,-3,-3
59400393625,-1,-1,-1,1,-1,-1,-2,1
59400393625,2,0,1,-3,-1,-1,-1,0
59400394350,3,1,1,1,-1,1,2,-2
59400394350,-3,-1,-2,-1,-1,-2,1,-2
59400416771,-3,-3,-1,-1,1,-2,0,-2
59400416771,1,1,-2,-2,0,-1,-2,1
59400417560,-1,-2,-2,-3,-2,-3,-2,-2
59400417560,-1,0,-3,0,-2,-1,1,1
59400431154,1,2,2,0,0,0,0,-3
59400431154,-1,3,0,-1,-2,-3,-3,-4
59400431889,-4,-1,-1,-2,0,0,-2,0
59400431889,6,-1,2,-2,-1,0,0,1
59400461841,-2,-2,0,-1,-1,-3,-2,-1
59400461841,4,4,3,1,1,0,0,0
59400462593,-7,-19,-7,-7,-2,-1,-3,-1
59400462593,-3,1,1,0,0,1,-1,-1
59400476830,0,1,1,1,0,0,0,-1
59400476830,-6,-5,0,-1,-1,-1,-1,-3
59400477578,3,6,-1,1,1,1,-1,-1
59400477578,-2,-1,-2,-4,-1,0,-2,-1
59400491093,-1,-4,-2,-3,-2,0,-3,-1
59400491093,-3,0,-1,-2,0,-3,-2,-1
59400491868,2,3,2,3,0,-2,-1,1
59400491868,-4,-2,-1,-3,-1,-3,1,0
59400513605,-1,1,-1,0,0,0,-2,0
59400513605,0,-1,-3,0,-1,-2,-1,-2
59400514376,1,4,1,1,-1,-1,0,-1
59400514376,-2,-3,-1,3,1,0,-1,-1
59400536760,-1,-1,1,0,-1,1,-2,0
59400536760,1,-1,-4,-3,-2,-1,-1,0
59400537581,-1,-1,2,0,2,-2,-2,0
59400537581,-2,0,0,-3,-3,-2,-1,-1
59400551156,1,-1,-2,-4,-2,-1,0,-1
59400551156,1,0,2,3,1,0,-1,-1
59400551905,-4,0,-1,-2,-2,-1,-2,-2
59400551905,0,1,-3,-3,-3,-2,-2,-3
59400573561,-4,-2,0,1,0,-2,1,-1
59400573561,-4,1,2,-2,-1,0,1,0
59400574457,9,3,1,-1,2,0,2,-1
59400574457,-4,-2,0,1,0,-1,-3,0
59400596818,-1,-3,-3,-2,0,-3,-4,-2
59400596818,-4,-2,-1,0,-1,-1,-1,-1
59400597601,-5,0,-2,1,-1,-1,0,-3
59400597601,5,14,2,-2,-1,0,-2,-1
59400611073,-1,1,3,0,-1,0,-1,0
59400611073,0,-1,-1,-2,-2,-1,-3,1
59400611840,0,-2,-2,-1,-1,-1,-1,-1
59400611840,1,-3,-1,1,2,-1,1,-1
59400633648,-3,-1,-1,-1,0,0,-1,-3
59400633648,2,-2,-1,-1,-2,-1,-1,0
59400634377,-6,3,-2,-5,-2,-3,-4,-2
59400634377,-6,-5,0,-1,-2,1,-3,-1
59400656797,0,-1,-4,0,0,0,1,-1
59400656797,-1,-5,-7,-6,-3,-1,1,0
59400657619,-1,1,0,0,-1,-1,-3,0
59400657619,2,-3,0,0,-1,-1,1,1
59400671128,-1,-3,-2,-2,1,-2,-2,-2
59400671128,0,0,-3,-2,-3,-2,0,-2
59400671906,-5,-3,-1,-1,-3,-1,0,-2
59400671906,1,-5,-2,-3,-2,-2,-2,-2
59400693636,0,0,-4,-3,-2,-1,-2,0
59400693636,-2,-2,0,0,1,-1,0,-1
59400694386,4,-3,1,2,0,-1,-1,0
59400694386,-4,-2,-1,0,-1,-1,1,-1
59400716835,0,0,0,1,-1,-1,-1,1
59400716835,-1,-3,-2,-1,-1,1,-1,-1
59400717619,-1,-1,-1,-2,-1,2,-1,-2
59400717619,-2,-3,-2,-2,-1,-3,-1,-1
59400731165,0,3,-2,-1,-2,-2,-2,0
59400731165,4,0,-1,0,-1,-3,0,-2
59400731897,0,3,2,1,-1,0,-3,0
59400731897,-3,-2,-2,-1,-1,0,-1,-2
59400753604,1,1,1,-1,-2,-2,0,-1
59400753604,-4,-8,-3,0,-1,0,-1,-1
59400754384,-1,12,-3,0,-1,-1,1,-3
59400754384,1,-4,0,0,1,0,1,0
59400776791,0,-3,1,-1,-1,-1,0,-1
59400776791,0,2,0,-1,-1,1,-2,0
59400777608,0,-3,-6,-2,-1,-1,1,-2
59400777608,-4,1,-1,-1,-2,-1,-1,0
59400791191,-1,-3,-1,-1,-2,-2,-4,-4
59400791191,0,0,0,1,1,-2,-3,1
59400791911,0,0,0,-2,-3,0,1,0
59400791911,3,2,-3,-3,-2,-1,-2,-1
59400813621,-1,-5,-1,-3,0,0,0,0
59400813621,-3,1,0,0,-2,-3,-3,-1
59400814407,2,-5,-2,-1,1,-2,0,-2
59400814407,-3,-3,-4,-4,-1,-1,-2,-4
59400838431,-1,3,3,-3,-1,0,1,-2
59400838431,0,-1,0,-1,-2,-3,0,0
59400838453,-1,-3,1,0,2,-2,-1,1
59400838453,-1,0,2,-1,-2,1,0,-1
59400859816,3,-4,-4,-3,2,0,0,-1
59400859816,-4,-3,-1,-1,-2,-1,-1,-2
59400860002,1,0,-1,0,-1,-1,0,-1
59400860002,-4,0,-1,1,0,-3,0,0
59400881817,-2,-1,-4,-3,-1,-3,0,-1
59400881817,0,-1,0,-2,-2,-1,0,-4
59400882624,2,0,-1,-3,0,-2,0,2
59400882624,-2,0,2,0,-2,-2,-2,-1
59400896834,11,10,-1,0,-3,-1,-2,0
59400896834,8,7,-1,-2,0,-1,3,2
59400897587,-6,-8,-3,-2,-2,-1,-4,-1
59400897587,-2,3,1,-2,2,-2,-1,-2
59400911087,-4,-1,-3,1,0,0,1,0
59400911087,-3,-4,-1,-1,0,-3,-1,-5
59400911885,0,-1,-3,-4,-4,-1,-3,1
59400911885,2,-1,-1,-2,-3,0,2,0
59400933586,-8,-7,-2,1,-1,1,-2,1
59400933586,6,3,2,1,0,-1,-1,1
59400934392,0,-1,1,1,-2,-1,-2,-3
59400934392,-6,-5,-2,-1,1,0,-2,3
59400956779,-3,-3,2,-2,-3,-1,1,-1
59400956779,-6,-4,0,-1,-2,1,-1,0
59400957605,1,3,-3,-5,-1,-2,0,-1
59400957605,1,-2,0,-2,-2,-2,1,-1
59400970428,-3,-2,0,2,-1,-2,-2,0
59400970428,-2,-2,-3,-2,0,-1,-2,-1
59400978627,-2,-3,0,0,0,-3,-1,-1
59400978627,0,1,0,-1,-2,0,-2,-1
59400993614,-7,-12,-3,-2,-1,-1,-2,-2
59400993614,0,1,0,0,-1,-1,-2,-2
59400994435,-7,0,-1,-1,-2,0,0,-2
59400994435,0,-3,-1,-1,-1,0,-1,0
59401016785,0,0,0,0,-2,-3,-2,-1
59401016785,-3,-7,-3,-3,0,-3,-1,-2
59401017594,10,4,2,1,0,0,2,2
59401017594,2,3,0,2,-1,0,0,-1
59401030461,-2,5,0,-3,-2,-2,-3,-3
59401030461,-5,-5,0,1,1,0,-1,-4
59401038675,-7,-7,-7,-3,-2,-1,-4,0
59401038675,0,-4,-2,-3,-1,-2,1,-1
59401053623,-1,-1,-2,-1,0,-2,0,1
59401053623,0,0,3,6,1,0,1,-1
59401054398,-4,-2,0,-1,0,-1,-3,-2
59401054398,-2,-1,-1,0,-1,-1,-2,0
59401084379,-2,-4,-5,-6,-2,-2,-1,-2
59401084379,-2,3,2,-1,-3,0,-2,1
59401085035,-1,-3,1,0,-2,-1,-1,-1
59401085035,-1,-2,0,-1,0,-3,-3,-3
59401090435,0,1,-2,1,0,0,-1,0
59401090435,2,8,-3,-1,-2,-1,1,1
59401098656,-9,-24,-2,0,-2,-1,-1,-2
59401098656,-3,-1,0,0,-1,-2,0,-2
59401113617,0,4,-1,-2,-1,-2,1,0
59401113617,-2,1,-3,-2,-2,-1,-2,-1
59401114397,-2,1,-2,-1,-1,0,-1,-2
59401114397,1,-1,-2,1,0,-1,0,0
59401136779,-4,-5,1,-2,0,0,-3,-1
59401136779,-2,-7,-2,-5,-3,-3,0,-1
59401137606,3,9,-2,1,1,-2,-4,0
59401137606,-5,-5,2,0,-1,-1,0,-2
59401150431,-3,2,-1,-2,1,2,1,-2
59401150431,-1,-3,2,-1,1,0,0,-2
59401166156,-1,1,-2,-2,-1,-1,-1,-2
59401166156,0,0,-3,-1,-1,1,-2,-1
59401173627,2,0,2,2,-4,0,-4,0
59401173627,1,-11,0,-1,-2,0,2,0
59401174400,-1,0,-1,-4,-1,-3,-1,-2
59401174400,-4,3,-2,-2,-1,-1,2,-1
59401196865,2,-3,-3,-1,-2,-2,-1,0
59401196865,-2,2,-5,-3,1,1,-1,-2
59401197606,-2,-1,-2,-8,-3,-3,1,-3
59401197606,-3,-4,1,-2,-1,-1,-4,-1
59401210437,-2,-3,-2,-1,0,-1,-1,-2
59401210437,-2,3,-3,-1,-1,-3,-4,-1
59401218627,-1,0,2,3,1,-1,2,-1
59401218627,0,-3,0,-1,-2,-3,-4,-2
59401233576,-1,-3,-3,-1,-3,-2,-1,-1
59401233576,-2,0,0,1,-1,0,1,0
59401234367,4,3,1,-1,1,-1,0,-1
59401234367,1,0,-3,-2,-1,0,-1,-1
59401256784,-1,1,1,1,0,0,-1,-2
59401256784,-2,-1,0,3,0,-1,-3,1
59401257608,-5,-5,-4,-4,-4,-1,-4,-2
59401257608,0,1,-3,-1,-1,0,-5,-2
59401286813,1,0,-1,0,-1,-3,2,0
59401286813,-3,-1,1,-1,0,0,-1,-3
59401287607,-5,-1,-2,4,0,1,1,0
59401287607,-1,1,-2,-1,0,0,-4,-1
59401293567,-3,-3,3,-1,0,-1,0,0
59401293567,3,14,-3,-4,-2,0,-1,0
59401294379,-6,-6,1,2,0,2,-1,0
59401294379,1,-2,-4,-5,-2,-1,-1,1
59401316815,-2,-1,-2,1,0,-1,-2,0
59401316815,2,3,0,-2,-2,-2,0,-1
59401317603,0,-3,-1,-2,-2,-2,-3,-2
59401317603,2,0,3,0,1,-2,1,1
59401339364,-2,-1,-2,-2,-2,-1,1,-2
59401339364,-3,-8,-1,-1,-2,-2,-3,-1
59401340062,3,3,1,2,1,-1,-2,0
59401340062,-5,-4,-3,-1,-1,-1,0,-2
59401353621,2,0,-2,-5,-1,1,-4,-4
59401353621,-3,-3,-1,0,-1,1,0,-1
59401354385,1,2,4,2,-2,0,-2,-1
59401354385,0,2,1,-1,-2,-2,0,0
59401376808,2,-2,-1,1,-1,-2,1,1
59401376808,-3,-2,-1,-4,-1,-1,1,-1
59401377599,-1,0,-2,-3,0,-1,-1,-2
59401377599,-3,-3,0,-1,1,0,-1,-1
59401399939,-4,-14,-5,-5,-2,-5,-4,-1
59401399939,4,-2,-2,-1,-1,-3,0,-2
59401400771,-6,-7,-3,2,0,-2,1,1
59401400771,8,0,-4,-2,-3,-1,1,1
