timestamp,emg1,emg2,emg3,emg4,emg5,emg6,emg7,emg8
116839834172,1,0,-2,-3,0,0,2,-1
116839834172,0,-1,-2,-1,-2,0,1,-2
116839836286,-1,1,0,4,0,-1,0,0
116839836286,-2,0,-1,-3,-1,-2,0,-3
116839837765,-5,-4,-2,-3,-2,-1,-1,-2
116839837765,11,1,2,0,-1,0,0,-3
116839839072,-3,-4,0,-1,-3,-2,0,-7
116839839072,2,-5,-1,-1,-1,-3,0,-2
116839839917,5,7,-1,-1,0,-2,-5,2
116839839917,-8,-14,-4,-1,0,-2,-5,-6
116839854741,-2,-2,-4,-2,-1,0,-5,5
116839854741,-7,-3,-1,-1,0,0,-18,-31
116839861898,-2,-6,-3,0,-1,-1,-37,-5
116839861898,-8,4,-5,-4,-3,-2,-37,3
116839879640,3,3,0,-1,-1,0,-20,-4
116839879640,10,0,3,1,0,0,7,12
116839883258,0,9,0,-4,0,1,23,4
116839883258,-10,-12,-2,-4,-1,0,23,-3
116839900521,-1,-2,-1,0,-2,-2,20,6
116839900521,-1,2,-1,-1,0,-1,17,1
116839901355,-1,-2,2,1,-2,0,13,-4
116839901355,16,9,0,-1,-1,-2,8,5
116839960648,-4,-2,0,-3,-1,0,2,-3
116839960648,35,6,-1,-3,-1,-1,5,1
116839961488,12,-1,-4,-2,0,-1,5,-8
116839961488,6,-2,-1,-1,-1,-2,1,-4
116839962347,-1,-2,-1,1,-1,0,0,-3
116839962347,-13,-2,-3,-2,-2,0,-4,1
116839963193,-6,-1,0,0,-2,-1,-2,0
116839963193,-4,11,1,-5,-2,-2,-3,-1
116839967623,-2,-5,-1,2,-1,-3,-3,0
116839967623,-11,-1,-4,-3,-1,0,-3,-6
116839968459,-6,0,-4,-2,-3,-2,0,-2
116839968459,-6,0,-7,-1,0,-1,2,6
116839974503,-5,-1,-2,-5,0,0,-5,3
116839974503,-4,-1,2,7,-1,-2,-3,-1
116839988664,-3,-3,1,1,0,-2,-3,0
116839988664,-3,-5,3,2,-2,1,1,-5
116839995582,0,-2,-8,-15,-3,-3,1,-2
116839995582,-2,-1,3,1,2,-1,2,-2
116840019401,-13,-2,-2,-1,-1,-2,-5,-3
116840019401,-1,-3,-1,7,1,0,-1,-3
116840021041,0,-1,-1,-19,-2,0,-10,-3
116840021041,-14,-1,0,20,-1,-2,-11,-3
116840033678,1,-2,-4,15,2,-1,-8,0
116840033678,-6,-15,-2,-3,-2,-1,-6,-3
116840040480,2,5,5,11,2,1,-1,-1
116840040480,4,-3,-8,-35,-3,-2,3,1
116840056864,1,-2,2,7,-6,0,2,-1
116840056864,2,1,-3,-21,-1,0,2,0
116840058523,0,1,5,18,2,-1,4,0
116840058523,1,-3,0,4,2,-1,4,-2
116840079371,-1,1,3,0,-5,-5,2,-5
116840079371,-4,1,-1,-2,1,2,3,-1
116840081041,-2,-1,2,-20,-6,-1,-2,-1
116840081041,-4,1,-6,2,4,2,3,-2
116840093755,-3,1,-3,-18,-12,-4,-2,1
116840093755,3,1,-2,5,4,1,3,1
116840100497,-2,-17,-4,15,5,1,2,-1
116840100497,-4,-5,-3,-16,-13,-11,-3,-3
116840116889,12,-3,-2,-5,5,3,2,2
116840116889,4,1,1,-10,-3,-4,-7,-1
116840118502,6,24,-1,12,-3,0,6,2
116840118502,-5,-3,-2,-22,-2,5,-5,-3
116840139428,-2,-4,0,39,13,0,1,3
116840139428,-6,-1,-1,-57,-21,-8,-7,-12
116840140972,-3,-1,0,20,11,1,-1,3
116840140972,7,-1,3,-10,-9,0,6,4
116840153016,5,7,0,1,4,1,-5,31
116840153016,6,-15,-6,19,-1,0,0,-10
116840162120,8,-4,-3,-15,-2,-2,1,1
116840162120,-9,-4,-3,3,-6,0,-12,-22
116840177388,2,-2,-3,-6,8,-5,0,37
116840177388,-1,5,0,2,1,1,3,15
116840178958,3,-2,0,-9,-3,-2,-6,-6
116840178958,-13,0,0,45,-2,-1,0,3
116840199446,-4,-1,-6,-17,-7,-5,1,-14
116840199446,-30,-7,-1,17,3,19,-12,-65
116840201093,5,1,-5,-18,-13,-32,18,50
116840201093,-21,1,-3,-1,4,2,-2,-8
116840213064,8,3,-2,-22,-16,-3,-5,-30
116840213064,21,3,1,4,7,21,10,26
116840228164,-4,-9,-6,-12,-2,3,-7,-24
116840228164,-8,-2,3,14,-8,4,4,5
116840237067,-7,0,-1,-28,0,-16,-20,-11
116840237067,2,-4,-4,-2,-8,-25,8,-6
116840238521,-11,5,4,24,4,5,-2,52
116840238521,28,3,3,-19,-1,-8,3,-11
116840259654,-10,-1,2,31,8,24,19,-25
116840259654,0,1,5,2,6,-7,1,24
116840261115,-9,-3,-2,3,-10,-32,-7,-28
116840261115,15,0,1,9,11,1,-11,22
116840273125,20,2,0,-24,-15,-7,-2,8
116840273125,-26,-1,-2,5,1,13,-2,-75
116840282106,9,-1,0,-23,-12,1,16,47
116840282106,13,0,5,17,17,4,-32,-22
116840296943,-32,-5,-6,-13,-1,25,11,-25
116840296943,-5,-1,-1,25,-4,-32,6,34
116840298493,-7,-3,-3,-1,14,34,-14,-44
116840298493,-1,-9,-7,-5,-22,-19,25,39
116840319405,3,4,5,18,22,1,-27,-78
116840319405,7,1,-3,-39,-30,-13,-30,38
116840321009,-4,1,1,15,3,11,24,-24
116840321009,-6,-17,-3,4,2,7,9,-25
116840333259,-5,-7,-2,17,4,3,3,39
116840333259,-15,5,-9,-25,2,-8,-1,6
116840342119,9,-2,-1,21,-7,-9,-37,-31
116840342119,-40,3,-2,-22,0,13,-13,-33
116840357127,-13,0,1,27,4,-10,24,58
116840357127,4,0,0,-10,-1,0,13,21
116840358643,6,0,2,-4,4,28,-20,-15
116840358643,3,1,-3,-9,2,-28,-9,-13
116840379446,19,5,4,-13,-4,25,29,85
116840379446,2,-2,1,3,6,-22,9,3
116840381126,-9,10,-1,-3,-16,10,-4,-28
116840381126,-2,5,1,7,1,-17,-6,-6
116840393342,1,-2,3,-9,-8,-4,-20,-30
116840393342,19,-1,-2,18,6,15,8,-41
116840402011,-18,-4,-6,7,9,-9,-1,-5
116840402011,7,-2,-3,-7,-12,-13,-16,-6
116840416950,16,1,-1,-20,-1,-7,18,9
116840416950,-9,-3,-5,13,-11,13,-18,-29
116840418605,23,0,-2,-11,-4,-8,-3,1
116840418605,-11,4,1,-11,0,22,33,43
116840439600,-10,-6,-7,-16,-7,-8,-20,-49
116840439600,15,5,9,43,10,-6,-3,15
116840440992,6,-5,7,-16,-4,0,1,-12
116840440992,8,-2,-2,-5,-7,-2,-1,-4
116840453254,2,-3,-1,12,-6,-9,-19,-40
116840453254,-17,1,0,-14,4,9,17,38
116840462115,5,5,-5,-23,-22,-9,-4,5
116840462115,5,-2,-1,20,5,8,21,10
116840476976,-2,-5,1,-6,-4,-7,-3,10
116840476976,5,-5,-13,-3,6,5,-26,-16
116840478550,-40,-11,-1,11,9,-2,18,-2
116840478550,14,7,2,4,1,2,-7,6
116840499634,-2,3,-6,12,6,-1,-7,-4
116840499634,7,-3,3,-18,-22,-6,14,45
116840501117,-1,-2,0,-5,1,1,7,8
116840501117,3,0,-5,-24,2,-2,-33,-70
116840513224,10,-3,4,47,14,-1,16,12
116840513224,26,11,3,-5,8,4,0,16
116840522103,-27,-10,0,7,-1,-8,-14,-7
116840522103,2,12,4,-6,1,1,0,-27
116840536283,18,0,-4,-5,-8,-6,-8,-11
116840536283,19,-3,-6,-22,-2,2,-4,-6
116840543246,-68,-9,-5,31,7,-3,-1,-45
116840543246,-4,-9,-5,-24,-17,-6,7,3
116840559582,3,-5,1,3,2,-3,-8,53
116840559582,-29,-10,-1,2,0,-2,-7,-29
116840561086,62,9,-4,-11,-5,-2,6,32
116840561086,33,11,4,17,13,2,-1,40
116840573268,8,0,1,-23,-10,-3,-3,-39
116840573268,-57,-3,12,6,5,1,-14,-45
116840582073,6,6,-11,2,-4,-4,-5,4
116840582073,26,1,-5,14,7,3,11,88
116840596311,10,15,-2,-21,-17,-9,-2,17
116840596311,2,4,0,13,4,5,10,1
116840603129,-27,-5,-1,3,8,6,13,11
116840603129,-36,9,4,-13,-1,11,-6,-79
116840620855,-8,-1,-1,11,-8,-15,1,4
116840620855,-32,13,-5,-2,-5,-8,-36,-59
116840622454,19,-13,4,5,4,-8,15,4
116840622454,7,-5,-1,-17,-11,8,4,-7
116840633245,-9,-4,-5,-15,13,-9,0,-3
116840633245,2,-7,4,19,-7,-15,-11,-35
116840642085,9,8,5,-6,9,25,-1,-54
116840642085,-73,-14,-3,6,-7,-16,-2,-5
116840656470,-9,0,1,-21,5,14,3,-20
116840656470,6,-4,-2,6,5,-3,4,-23
116840663088,35,3,-10,-20,-2,11,-4,7
116840663088,5,-7,-1,12,2,-11,10,30
116840679626,-15,-8,0,45,-7,3,-9,15
116840679626,19,1,-14,-13,11,14,13,6
116840681130,6,1,-3,-41,-37,-16,-18,23
116840681130,-7,2,-2,14,7,-6,-5,-22
116840693318,17,-4,-2,-20,4,-1,24,27
116840693318,5,6,7,-5,4,9,-10,25
116840702099,-15,4,4,-1,-11,-21,-49,-25
116840702099,12,-2,0,1,6,19,59,49
116840716505,3,1,5,-5,-13,-6,-22,-16
116840716505,0,-6,0,12,-4,0,49,45
116840730674,2,3,-4,-28,0,-11,3,78
116840730674,-8,-4,-4,25,-17,-15,-13,-44
116840739649,-14,-18,-7,7,-1,-1,-14,-6
116840739649,15,0,3,0,-1,-6,-3,-4
116840741155,-9,-3,0,17,3,-2,2,-31
116840741155,31,2,1,1,20,10,-5,10
116840762084,-17,1,-3,-2,-2,4,2,-15
116840762084,14,-3,-5,-15,-11,-1,-16,11
116840763578,-2,-7,4,4,-3,-9,7,-13
116840763578,-9,-11,-10,-7,4,8,-17,1
116840776455,-11,5,0,-13,0,0,-4,-64
116840776455,3,-1,-6,-26,-12,-8,3,27
116840783183,5,-1,2,40,5,-1,3,7
116840783183,-3,-2,-1,8,3,-8,-7,1
116840799599,-1,0,-5,16,5,10,-3,3
116840799599,1,-1,-1,-13,-9,-16,-6,-46
116840801017,-6,11,-3,4,6,8,16,12
116840801017,8,2,-1,-34,-11,0,-8,78
116840822163,2,1,-2,17,5,-1,0,9
116840822163,11,1,0,7,4,6,3,35
116840823586,-10,-2,2,-21,-2,-5,-6,-39
116840823586,3,-2,-3,5,-2,-1,9,-6
116840836311,-7,1,2,-13,9,3,0,10
116840836311,-5,-4,-2,12,-1,0,3,17
116840843256,0,-5,-3,-3,3,-1,-1,8
116840843256,-13,-3,-1,1,-4,-6,-16,-23
116840859628,12,-2,-4,-13,-4,-1,12,42
116840859628,-34,1,0,7,-1,-3,-15,-16
116840861111,0,-3,2,16,13,5,13,1
116840861111,-9,-2,0,-11,-14,-2,-1,-33
116840882057,-12,-6,0,2,2,-6,-13,-38
116840882057,-1,-3,0,2,0,1,1,-52
116840883616,11,2,-4,-15,-9,0,-9,12
116840883616,-5,-1,-2,-5,-3,-1,1,-28
116840895746,-9,-6,-2,9,3,-5,-6,21
116840895746,-12,-2,-1,-14,-8,-1,-3,2
116840904602,6,-4,1,6,4,4,-2,-18
116840904602,11,-3,1,0,4,0,-16,-12
116840918250,1,0,-5,-24,-20,-4,9,-17
116840918250,-25,-2,2,6,7,2,2,-19
116840927085,5,0,-4,4,-1,-3,-2,12
116840927085,-8,1,0,-4,-10,-5,-3,20
116840942130,4,-5,-2,-9,0,3,2,35
116840942130,19,-1,-1,5,-3,-4,-18,19
116840943579,-8,1,1,4,6,2,27,74
116840943579,-7,-1,-3,-9,-6,-2,-4,-14
116840964656,-10,-2,1,1,-6,-6,-4,-34
116840964656,24,-3,-4,0,3,0,3,13
116840966111,-19,-4,1,0,-2,-2,-8,-4
116840966111,-2,-1,0,-12,3,0,-21,-40
116840978213,15,0,-4,-4,-16,-1,24,80
116840978213,2,-2,3,23,8,-3,-7,-5
116840987083,13,9,2,-3,6,5,4,-14
116840987083,-5,2,-2,-4,-2,-4,-10,-20
116841002048,1,7,4,-5,5,2,-4,-48
116841002048,-6,-12,-2,-14,-16,-3,12,92
116841003574,29,-1,-1,-1,6,1,11,36
116841003574,-24,-1,5,20,-1,-1,-4,-49
116841024637,-30,-11,-6,-2,3,-2,-23,-65
116841024637,24,5,0,-15,-2,4,15,47
116841026077,-11,3,3,10,-6,-7,-16,-48
116841026077,-63,-1,1,-3,5,0,0,-30
116841038274,26,-8,-5,-5,-11,-7,-12,17
116841038274,-14,-9,2,-5,-3,0,-12,-68
116841047108,-11,-10,-4,-6,-5,-10,-12,-47
116841047108,45,17,6,10,12,13,11,27
116841061255,56,-6,0,-11,-10,3,12,100
116841061255,-45,-16,-2,2,7,0,1,-32
116841068052,0,9,1,10,-7,-2,-1,-36
116841068052,17,-9,-1,-1,-4,-7,-6,-24
116841084422,-37,5,1,1,6,-1,-4,-41
116841084422,38,15,-4,-16,-6,3,2,43
116841086006,-1,-6,-1,-3,1,-1,-3,13
116841086006,-6,-7,-3,27,3,-7,-4,20
116841098219,-13,4,-1,-33,-20,-2,7,-12
116841098219,35,-1,4,45,21,1,-10,39
116841107050,-59,-13,-2,-32,4,2,3,-33
116841107050,30,1,-4,-1,-6,-9,-2,25
116841121302,4,1,-2,-4,4,-5,1,-9
116841121302,-30,-2,-11,12,6,-1,-23,-62
116841128057,9,-5,-10,-17,-9,10,4,-7
116841128057,8,-1,3,-17,-1,6,17,55
116841144519,7,13,0,23,16,10,5,-5
116841144519,7,8,-2,-5,-5,-1,3,-16
116841146012,22,0,5,15,-6,-11,-35,-15
116841146012,-16,-11,-9,-14,-8,-10,-2,38
116841158042,-11,1,2,0,-3,-5,3,2
116841158042,1,6,4,-5,-7,-1,12,-7
116841167087,7,-3,-3,-9,-2,-6,29,15
116841167087,16,3,1,1,-4,-4,-10,1
116841181281,-20,-3,-2,17,4,1,-8,-25
116841181281,1,-1,-1,-17,0,0,15,17
116841195654,5,-4,-2,11,-11,-4,-12,17
116841195654,-4,-7,-2,7,10,4,-2,-19
116841204692,-2,-4,3,-10,2,6,-1,-14
116841204692,-10,-3,-3,-10,-2,0,-4,-13
116841206059,-5,1,-2,1,10,1,-6,-1
116841206059,3,6,4,-7,-10,3,4,3
116841226993,-7,-10,-3,-2,0,-5,2,-11
116841226993,-13,-5,-4,-15,-9,-5,-6,-6
116841228532,21,8,3,29,9,1,2,-7
116841228532,8,0,-1,4,-1,-1,10,57
116841241454,-11,2,-2,5,-4,-3,-8,-3
116841241454,4,1,-2,-31,-16,1,6,43
116841248190,-7,-15,1,41,17,0,-1,1
116841248190,9,2,-6,-2,0,-1,3,-13
116841264463,-3,-3,2,-1,-1,-1,-2,-16
116841264463,-9,-3,-1,7,0,-1,-3,-19
116841266081,-14,6,-6,-20,-8,-2,0,-8
116841266081,-11,-16,-4,-10,-8,-1,-2,-2
116841286898,17,1,1,13,9,-2,-1,20
116841286898,-10,-2,-4,-3,-1,-4,-9,-32
116841288585,-14,6,1,-11,-2,1,2,15
116841288585,-2,4,1,-4,-2,2,1,-35
116841301305,5,-12,-3,4,4,2,4,25
116841301305,-9,-1,0,2,-1,-1,-3,29
116841308121,-8,-4,0,-7,-2,-2,-3,25
116841308121,7,-1,0,2,1,0,6,17
116841324445,-17,0,0,-7,-9,-2,-7,-23
116841324445,-5,-3,-3,12,4,-1,-1,-11
116841326025,8,-8,-3,-11,-5,-1,2,10
116841326025,-5,1,-2,-8,-2,0,0,-3
116841347053,-1,3,-3,0,-2,-4,-5,-6
116841347053,8,-1,0,12,-4,-3,-2,0
116841348552,-2,1,-3,-5,0,0,1,-3
116841348552,-6,-3,-5,-3,-11,-2,-2,-13
116841360551,1,1,0,-35,0,-1,1,-6
116841360551,-4,-3,2,16,3,3,2,-1
116841369617,20,1,3,4,0,-2,-5,-11
116841369617,1,10,3,19,6,1,0,6
116841384397,5,1,-2,-46,-11,-3,-8,1
116841384397,9,9,-2,45,5,9,6,43
116841386052,1,-19,-9,-25,-10,-25,-3,-8
116841386052,-1,-3,-3,8,4,2,-4,-47
116841407121,5,4,5,20,8,9,8,20
116841407121,7,1,7,21,11,-4,-7,-40
116841408640,12,10,0,60,-9,4,0,21
116841408640,-5,4,-6,-42,0,-2,-3,5
116841420649,-13,-3,-3,-8,-9,-8,-7,-28
116841420649,-5,-5,-13,-70,-19,-3,1,-13
116841429619,-3,-1,0,20,10,4,5,-3
116841429619,-7,-4,1,11,0,-8,-11,0
116841444614,5,4,1,19,0,5,8,16
116841444614,15,4,7,1,11,-5,7,-3
116841446069,-32,-7,-5,12,-8,-6,-22,-90
116841446069,13,1,-4,-21,0,8,29,91
116841467075,3,-1,-3,23,1,-2,0,27
116841467075,4,-3,2,-24,-3,1,1,2
116841468553,-12,2,2,-2,-4,-3,-3,-3
116841468553,6,-6,1,10,6,0,-11,-6
116841480621,9,2,-6,-5,-14,-5,-2,9
116841480621,-5,-2,-3,103,6,-5,-2,-3
116841489660,-8,-3,-6,-27,3,7,-3,6
116841489660,-15,-7,-7,-35,-13,-5,-17,-18
116841504631,13,0,7,26,12,3,1,21
116841504631,-14,10,-6,-66,-10,-10,1,-7
116841506145,4,2,2,-16,5,13,0,-57
116841506145,14,0,7,-4,5,-3,1,27
116841527022,13,-1,-9,-25,-6,-6,4,10
116841527022,-27,-3,-4,-19,-6,-2,-11,-16
116841528578,2,-3,-1,-7,1,-2,9,15
116841528578,-22,3,0,0,2,0,-4,-35
116841540838,4,4,2,17,4,1,-2,4
116841540838,5,-3,1,0,-6,-1,3,-2
116841549630,5,0,4,11,1,0,5,33
116841549630,2,-3,-1,30,0,0,-5,-12
116841564575,-16,1,-7,-29,0,-1,1,-24
116841564575,4,-8,0,38,2,1,-3,-33
116841566049,17,-4,-6,-68,-8,-1,6,60
116841566049,2,2,2,39,2,-1,-1,-16
116841586418,-19,-2,-2,-3,6,-2,-9,-83
116841586418,24,1,2,-12,-1,2,17,70
116841587108,-7,3,2,10,-1,0,1,3
116841587108,10,8,-5,1,1,-2,-2,-6
116841608761,-10,13,-1,13,-6,-4,-4,-5
116841608761,-5,5,0,-13,7,2,-8,-8
116841609505,-22,-4,4,13,-4,-3,-4,-16
116841609505,-7,-7,-5,-22,-5,-1,7,19
116841623839,-1,-3,0,23,-1,-2,-5,-2
116841623839,-10,-12,-1,-4,3,0,-2,-10
116841624542,-13,0,-3,4,-1,-3,-2,4
116841624542,7,-2,-3,5,-3,-1,-3,-18
116841646467,-6,-12,-4,-10,-1,0,1,28
116841646467,0,2,1,11,1,1,-1,-3
116841647081,-15,-2,-1,-25,-4,-2,-2,-8
116841647081,2,-9,2,18,0,-1,3,9
116841668884,2,-3,-3,-2,-4,-2,0,-6
116841668884,-5,4,2,27,2,-4,-2,-1
116841669524,0,-2,-6,-46,-7,-1,-1,2
116841669524,3,11,-3,10,-2,-2,3,-16
116841683838,13,1,5,25,5,-1,2,-3
116841683838,0,-3,-2,-24,-12,-5,-4,-18
116841684721,19,3,0,10,5,-1,2,4
116841684721,-6,27,9,-16,3,3,4,11
116841706217,-8,-12,-7,-5,-8,-2,-2,4
116841706217,-6,-8,-4,-7,3,2,-4,-2
116841707082,9,-5,-1,7,-2,0,-1,8
116841707082,-9,-7,-6,-1,-6,-2,-7,-5
116841728843,-14,-4,-3,7,2,-1,-2,5
116841728843,0,12,-5,-25,-9,-4,-5,-6
116841729535,17,4,2,15,3,0,-1,9
116841729535,-14,-16,-7,-18,-1,-1,-3,-10
116841743318,-9,-1,-8,-10,-8,-4,-2,20
116841743318,34,2,-2,3,0,0,-2,9
116841751327,-10,-7,-5,-14,-5,-2,-5,-15
116841751327,16,-6,0,-4,0,1,1,-43
116841766243,7,6,2,-7,-3,1,1,17
116841766243,-3,-4,3,41,10,1,-1,-24
116841767193,-13,-9,-11,-76,-18,-3,-4,-5
116841767193,-7,-2,5,-3,2,-3,-4,-1
116841788838,10,-16,0,32,7,-1,-2,-9
116841788838,-16,-36,-3,-7,-4,-1,0,-2
116841789596,12,14,3,45,15,3,2,2
116841789596,-7,-13,-13,3,-18,-7,-3,13
116841803033,-8,10,8,6,3,3,-3,-16
116841803033,-14,5,0,-19,-1,-1,-6,-9
116841811339,22,-17,-3,16,-5,-6,1,27
116841811339,-14,-29,2,16,6,2,2,15
116841826255,6,18,4,23,9,3,-1,-22
116841826255,16,-24,-8,-57,-9,-4,-1,55
116841827019,-2,1,-3,0,-4,-3,0,-23
116841827019,-23,13,0,-2,-3,-1,1,-7
116841848857,-15,-18,-4,-18,6,-4,0,-11
116841848857,-1,15,-4,21,-10,-3,3,-8
116841849653,10,11,7,27,1,-1,-4,-8
116841849653,17,-3,5,-7,-2,-3,-2,24
116841863788,0,-3,1,3,-3,-1,7,-7
116841863788,-16,25,2,7,5,1,-4,-9
116841864689,19,6,4,20,1,-2,-6,27
116841864689,-18,-12,1,8,-1,0,2,-31
116841886481,0,19,7,-18,5,0,0,58
116841886481,-16,14,-4,48,-4,-3,-3,-14
116841886969,-8,6,1,-84,-8,3,1,-52
116841886969,39,11,1,42,5,3,10,91
116841908942,-19,-14,-3,-10,-11,-6,-7,-26
116841908942,10,-15,-1,-12,2,1,4,11
116841909573,-4,13,7,33,9,2,-1,-7
116841909573,-4,-1,-2,-29,0,0,1,0
116841923922,-4,-14,-6,-26,-10,-3,-3,-2
116841923922,13,1,10,36,5,1,-2,-26
116841924496,-32,-11,-14,0,-4,-3,0,47
116841924496,13,14,5,-11,2,-1,-3,29
116841946483,7,-4,0,15,-1,1,1,33
116841946483,5,1,7,-7,8,1,0,-7
116841947035,-32,-13,-17,4,0,1,3,-19
116841947035,-12,-6,6,3,0,-2,-10,-5
116841969007,6,6,-2,-15,-5,-2,-7,-6
116841969007,10,6,-5,-18,-4,-1,-6,4
116841969578,-10,-6,6,3,3,-1,-3,2
116841969578,19,31,0,32,-3,-4,-6,-23
116841983853,3,-6,-8,-4,-7,-5,0,-70
116841983853,-26,-15,-7,-12,-7,-5,-9,-35
116841984607,22,11,2,24,5,0,7,-8
116841984607,-40,-13,-1,-11,0,-2,0,-60
116842006290,27,8,4,7,-1,-1,14,2
116842006290,5,3,0,-2,-1,0,4,32
116842007216,-32,-3,-5,4,-4,-5,-8,-24
116842007216,-3,-6,-3,-1,1,-1,-5,-11
116842028738,10,9,1,4,0,1,-4,-2
116842028738,-9,-4,-3,-19,-2,0,-1,-33
116842029530,13,3,6,23,4,2,1,7
116842029530,1,-18,-8,-66,-8,-1,0,-59
116842045228,1,-5,-2,21,1,0,0,61
116842045228,11,-2,2,2,1,1,-2,10
116842046162,15,7,-6,-19,-7,-3,-4,12
116842046162,2,2,3,37,7,-2,-7,-1
116842066334,-24,-9,-10,-92,-10,-1,8,-17
116842066334,0,-4,-8,11,-4,-1,-1,-2
116842067049,-4,-6,-2,4,4,-1,-18,-18
116842067049,40,20,-3,8,3,0,1,58
116842088728,-17,-9,2,5,1,0,-1,-59
116842088728,-8,-3,5,45,-6,0,-15,-13
116842096469,-23,-17,-23,-84,-27,-8,9,25
116842096469,-6,0,2,17,3,2,6,-11
116842103986,16,0,-4,16,1,-3,-20,-26
116842103986,-8,2,-1,-9,5,0,11,-5
116842104469,39,12,8,4,2,2,-3,-8
116842104469,-23,-13,-6,-20,-5,-4,-17,-32
116842126219,19,4,-2,-6,2,0,1,40
116842126219,-6,-6,-1,-23,1,0,4,0
116842127200,8,23,12,68,12,0,-2,14
116842127200,42,-4,-26,-52,-19,-4,14,98
116842148639,-16,-1,5,41,9,2,-7,-10
116842148639,-7,-13,-19,-50,-12,-4,2,16
116842149422,21,11,6,29,8,2,1,-3
116842149422,-9,-3,1,-18,-2,0,11,2
116842163700,-18,-3,-3,-19,1,1,-8,8
116842163700,1,6,4,43,3,-3,-2,-9
116842164454,-14,-13,-10,29,-5,-1,-2,38
116842164454,14,-7,3,6,4,0,-14,-33
116842186404,-8,-1,-10,-41,-8,-2,3,7
116842186404,-2,3,6,-23,9,4,-1,0
116842187158,-9,-10,3,47,3,-1,2,-9
116842187158,-7,-6,-1,15,-7,-4,-8,-9
116842208770,-5,5,6,17,4,2,14,17
116842208770,11,14,0,4,-5,-4,-3,-18
116842209515,-19,-9,-3,-19,-1,-2,-4,-66
116842209515,-1,6,4,-4,1,3,-1,-18
116842223714,-3,1,5,11,4,3,3,-32
116842223714,-17,-7,-9,-27,-7,-4,-11,-6
116842224516,0,-12,0,-55,-11,-3,2,-27
116842224516,-20,2,5,75,6,-1,3,-22
116842246193,-9,0,-1,-40,-5,-2,-18,-9
116842246193,13,20,4,8,1,-1,7,26
116842246974,5,-3,-2,-9,1,3,4,23
116842246974,3,1,4,-16,2,-1,-8,10
116842269385,-2,-2,-9,48,-8,-5,8,86
116842269385,12,-5,-2,-16,1,-2,1,-5
116842270138,10,2,2,-4,-5,-3,1,4
116842270138,-7,-5,-10,-50,-12,-1,1,1
116842283935,6,-1,-3,-5,2,-1,-13,-41
116842283935,5,-5,4,22,-1,1,0,1
116842284519,-9,-1,1,-9,1,-1,9,37
116842284519,3,0,-1,11,1,-1,-3,-16
116842306418,4,-3,2,7,-2,-2,1,-10
116842306418,-6,-7,-3,-7,-2,-2,-14,-58
116842307072,3,-4,-4,-14,-1,-2,1,43
116842307072,3,2,4,7,2,2,12,9
116842329554,-10,2,5,-17,-2,-3,3,-7
116842329554,-8,-5,1,23,1,0,-8,-38
116842330336,-14,-4,-2,-5,2,2,1,-25
116842330336,-8,-15,-6,-24,-6,-1,-2,12
116842343732,-1,-4,-3,8,-1,-1,0,-22
116842343732,13,8,6,-14,0,0,4,64
116842344552,3,-2,-4,1,2,1,-2,13
116842344552,-9,0,-1,41,1,-1,-3,7
116842366453,-12,-8,-2,-28,-3,-1,-2,-52
116842366453,3,-6,-7,46,-3,-3,-2,19
116842366970,-1,1,0,-10,0,-1,8,-1
116842366970,-14,3,-2,1,-2,-3,-3,-14
116842397175,3,-6,1,13,-1,0,-2,-9
116842397175,-9,-3,0,-13,1,1,3,3
116842397791,-17,3,-6,-11,-6,-3,-10,-77
116842397791,-5,-2,2,6,4,2,1,7
116842403960,16,4,2,18,4,2,3,8
116842403960,-19,-20,-10,-49,-9,-3,1,-39
116842404596,1,-3,-2,18,3,-1,-6,7
116842404596,-2,-2,-1,3,3,0,-4,-18
116842426377,5,9,-3,-13,-6,-2,-3,18
116842426377,20,-12,-1,11,1,0,3,33
116842427201,-12,-7,-1,5,-2,-4,-9,-25
116842427201,2,1,3,1,-2,-3,-4,-5
116842449652,17,5,-2,14,4,3,2,12
116842449652,-12,7,7,7,2,1,1,26
116842450313,-4,-9,-9,-5,-9,-4,-6,5
116842450313,-16,6,0,-26,-3,-2,-1,-3
116842463738,-18,-2,-4,-1,-3,-4,0,-31
116842463738,-6,8,6,34,3,1,3,-7
116842464532,10,-10,-6,-5,-2,-2,-5,13
116842464532,2,2,-2,-1,2,1,6,-5
116842486422,13,10,-1,10,-2,0,-4,25
116842486422,1,4,1,-27,1,2,5,-26
116842486977,-20,-2,-1,-19,-3,-3,-6,-13
116842486977,2,1,0,17,3,-1,0,-29
116842509627,2,-21,-3,4,-3,-2,-5,9
116842509627,15,-6,-4,-10,-2,-3,0,1
116842510276,-2,-3,1,-17,0,2,3,14
116842510276,-5,0,1,3,-2,-2,-4,-55
116842523828,19,-1,-7,0,1,0,7,60
116842523828,1,11,3,-1,1,1,-7,-8
116842524646,5,-3,1,4,-2,-1,-7,-17
116842524646,4,-6,-2,-7,1,0,13,25
116842546415,-4,3,6,11,2,-2,-5,-23
116842546415,7,-5,-9,-13,-9,-7,-4,-16
116842547058,7,6,-1,2,1,2,3,45
116842547058,6,-14,1,15,3,0,-1,24
116842569472,-1,-4,-6,1,-9,-2,4,-14
116842569472,6,-21,-10,-32,-3,-2,0,3
116842570277,2,9,3,13,1,-2,-16,-55
116842570277,-2,-3,-4,19,-1,-1,10,34
116842583865,-5,-3,1,-10,-1,-3,-3,5
116842583865,-13,2,-3,-1,1,-1,0,-8
116842584539,1,3,6,9,-3,-1,0,3
116842584539,-8,-5,-1,-12,-1,0,-7,-16
116842606345,2,-2,-3,-20,-2,-1,-1,17
116842606345,7,12,-3,4,-2,-1,-2,12
116842607037,-13,-2,2,3,2,-1,5,1
116842607037,-1,8,2,-3,-1,-1,-5,8
116842629674,-13,3,1,-4,-3,0,-4,-9
116842629674,-3,-12,2,8,-2,-3,0,2
116842630235,-14,15,-3,-3,0,0,5,49
116842630235,8,3,-3,-9,-3,-4,-8,-35
116842643257,-10,0,-1,0,1,-1,0,31
116842643257,-30,-1,-2,-7,0,-2,-6,1
116842651460,5,-3,2,3,-2,1,2,-26
116842651460,-4,-7,-6,-16,-2,-2,-3,-29
116842674454,-9,-9,0,9,2,-2,-6,-29
116842674454,0,10,-1,-5,-2,0,5,53
116842675384,-5,-11,-3,1,1,-3,-2,7
116842675384,-7,-3,1,3,0,-3,-5,-1
116842689426,41,6,1,-5,1,0,1,2
116842689426,-4,3,2,10,0,0,-2,13
116842690252,3,7,-5,8,-1,-2,-3,-24
116842690252,14,14,-1,-14,-4,-1,-4,16
116842703901,-7,-12,-1,1,-1,0,9,5
116842703901,0,-4,-7,-13,-5,-3,-2,-19
116842704506,6,1,2,12,2,1,6,7
116842704506,-22,-2,-6,-8,-4,-1,-8,-18
116842726468,-8,-2,-4,2,0,0,-1,-3
116842726468,2,11,-7,-2,-7,-2,1,35
116842727038,-16,-17,1,-3,1,-1,0,-9
116842727038,16,-8,-1,1,0,-1,6,18
116842749644,42,23,9,4,3,3,2,-13
116842749644,-5,-10,4,8,4,2,1,-9
116842750186,-2,18,2,-4,-2,-4,-15,-17
116842750186,5,-6,-5,-10,-3,0,9,25
116842763749,-15,-4,3,0,0,0,0,-14
116842763749,3,1,-6,4,-2,-3,2,-15
116842764601,28,0,3,-3,-2,-1,2,35
116842764601,-10,-2,-1,1,3,-1,-7,4
116842786258,-14,-2,-3,9,-1,-2,-4,-58
116842786258,15,2,5,1,2,1,11,55
116842787028,-3,-5,-1,-14,1,-2,3,6
116842787028,3,-2,2,22,-2,-3,-2,13
116842809633,-4,-7,-6,-7,-4,-2,-6,4
116842809633,-4,-1,-3,-12,-3,-2,-4,-22
116842810178,-1,-4,0,7,0,1,0,-7
116842810178,0,-4,2,-3,1,-2,0,8
116842823223,-18,1,-2,6,-5,-6,-8,-4
116842823223,-13,-26,-5,0,0,0,2,-23
116842831380,15,-9,-6,0,-3,-3,-7,-40
116842831380,-27,-1,0,-11,0,1,3,-20
116842846281,-14,-2,-4,12,-1,-4,-17,-30
116842846281,3,4,5,15,-1,-3,11,-3
116842847090,-2,-4,-2,-6,3,0,4,8
116842847090,11,-3,-3,12,-5,-2,-10,-10
116842869621,11,-3,-11,-23,-10,-3,-1,4
116842869621,-5,-1,3,12,2,0,-4,22
116842870228,-7,1,1,5,2,0,-2,-14
116842870228,5,0,-2,-4,-1,1,4,0
116842883191,5,-1,4,4,1,-1,1,19
116842883191,2,17,-2,-5,-3,-3,-1,-3
116842891247,9,30,3,-2,-1,1,2,9
116842891247,7,2,4,-5,3,1,-1,62
116842906219,-2,-1,-4,-30,-6,-2,8,3
116842906219,-9,-4,-1,-6,-3,-1,-9,-18
116842907222,-9,-1,-3,11,0,-2,-4,6
116842907222,11,7,1,-3,-6,-1,-2,-20
116842929658,-5,-1,-1,3,2,2,8,11
116842929658,-2,3,1,6,0,1,-4,-28
116842930225,-1,-9,-2,-13,-5,0,3,18
116842930225,-9,-8,0,-2,-1,-2,-5,-11
116842943271,0,-8,0,3,0,-1,-4,-4
116842943271,-8,-4,-4,-10,-2,0,-6,-32
116842951477,-3,-10,-4,-3,-3,-1,0,6
116842951477,-2,1,-3,-7,-2,-3,-1,-11
116842966446,-6,7,4,12,2,-1,-1,7
116842966446,-2,11,-7,-16,-5,-2,-2,0
116842967020,-17,-19,-7,-11,-5,-2,0,-1
116842967020,13,13,2,10,-1,-2,-1,-27
116842989631,-20,-46,-7,-10,-1,-1,2,5
116842989631,-8,-5,-3,-2,-2,-1,-8,-20
116842990322,18,-7,-2,-2,-1,0,11,91
116842990322,-7,-6,-2,-2,0,0,-4,-22
116843003251,-3,10,0,7,0,1,1,-5
116843003251,18,-4,2,5,0,-3,-3,0
116843011282,-1,-6,-5,-2,-2,-2,-4,-28
116843011282,-13,-7,-6,-3,-1,-4,12,25
116843026280,3,8,4,0,0,0,0,18
116843026280,6,17,4,14,2,-1,-2,2
116843027101,1,1,0,-2,-1,1,-3,-14
116843027101,-3,-6,-4,-9,-3,-3,-7,16
116843049543,-5,4,2,-1,0,-1,-1,-59
116843049543,-16,-12,-5,-4,-1,-3,-2,26
116843050249,-7,-2,-1,7,-3,-2,-4,-21
116843050249,-2,-2,-3,-1,0,1,-4,-11
116843063285,16,-2,-2,-8,-3,-1,2,68
116843063285,-4,-11,-4,-1,-2,-2,2,-2
116843071308,-2,21,5,3,2,-1,-1,-3
116843071308,3,-16,-1,-9,-1,-1,-3,-10
116843086481,-7,5,-2,5,0,-1,-4,-3
116843086481,1,-6,0,-1,-1,-2,5,9
116843086984,-2,-3,-1,-11,-3,-1,-4,0
116843086984,0,23,2,4,-3,-1,4,0
116843109435,-2,-22,-5,-1,-1,-1,-2,27
116843109435,-3,-4,1,-4,-1,-1,-6,-4
116843110261,5,-12,-2,4,-2,-1,-2,-63
116843110261,-4,-3,-8,2,1,-2,-4,9
116843132830,4,7,1,-4,0,0,-5,-21
116843132830,-5,-1,-2,-4,0,0,3,10
116843133378,3,1,4,1,-1,0,-3,29
116843133378,-2,0,-4,-15,-3,-1,5,5
116843146478,-2,6,-1,-2,0,-3,0,-1
116843146478,2,-4,-2,4,-1,-1,-2,-12
116843147022,-4,2,0,-2,1,1,-3,-41
116843147022,-6,4,-1,9,-1,-1,-1,24
116843169546,24,10,1,-11,0,-4,-1,-2
116843169546,-4,4,3,8,-3,-1,-1,-14
116843170326,4,-5,-3,6,0,-2,0,0
116843170326,0,1,-3,-4,-1,-1,-2,-2
116843191947,-11,-1,-2,2,-1,-2,-7,-20
116843191947,6,-1,-4,-8,1,-1,-6,-26
116843192917,2,4,4,4,0,-1,5,20
116843192917,-1,-2,3,3,1,0,-3,-4
116843206186,8,18,1,-11,-1,1,4,-43
116843206186,6,-1,-4,4,0,0,2,27
116843207215,-4,-3,-4,-5,-3,0,1,10
116843207215,-1,-5,0,-3,-1,-2,-10,-17
116843229727,-20,-8,-1,1,-2,-1,1,-18
116843229727,7,-12,1,-3,-1,-1,0,-1
116843230287,16,-1,-5,13,-1,-2,5,20
116843230287,-1,0,-2,-2,-1,0,-1,-1
116843251878,-12,-7,-2,5,1,0,3,30
116843251878,31,3,-1,-1,-2,0,6,27
116843252708,5,2,1,-6,-1,0,-2,9
116843252708,-11,-2,-2,-2,0,1,-1,-12
116843266306,0,-3,-1,10,0,1,-3,-32
116843266306,-2,-2,1,2,0,-1,1,43
116843267063,-13,-4,1,2,0,0,-6,-3
116843267063,10,5,-2,10,0,-1,2,1
116843289623,-6,-4,-1,-14,-5,-2,-1,-4
116843289623,-16,1,2,6,1,-1,-6,-14
116843290268,7,-17,0,0,-2,-3,-3,-9
116843290268,6,-3,-1,-11,-1,0,2,14
116843312018,-3,-5,-5,5,-1,-2,-4,22
116843312018,-12,-4,-3,-15,-1,-4,-2,-34
116843312874,-4,3,-2,-3,-1,-1,-4,2
116843312874,-7,-2,3,4,-1,-3,-4,-16
116843326256,-13,-4,2,2,0,-1,-1,-3
116843326256,5,-1,-6,-10,-4,1,-2,1
116843327002,-12,-2,0,-6,-2,-1,1,-26
116843327002,2,-1,2,-2,-1,-2,-1,37
116843349425,2,15,1,-7,-1,-2,-5,1
116843349425,-14,-14,0,6,2,0,-1,-6
116843350166,-3,3,-2,-11,-5,-4,0,4
116843350166,-9,-7,-1,-2,-3,-2,1,-9
116843371905,25,9,3,0,-3,1,0,7
116843371905,-15,5,0,5,-1,0,2,-4
116843372735,-6,10,1,-2,0,1,2,7
116843372735,-15,-2,-4,-9,-2,0,1,-14
116843386420,-4,-6,-4,2,-2,-1,1,1
116843386420,-1,4,3,-2,-3,-2,-2,12
116843387149,7,1,-3,0,0,-2,0,3
116843387149,12,-13,2,1,-1,-1,1,13
116843409640,-12,-7,-6,-3,-3,-3,-5,-41
116843409640,0,2,-2,-3,-1,-1,-4,-14
116843410244,-7,-4,-4,2,2,0,-2,-7
116843410244,6,-3,-7,0,-6,-7,-6,2
116843432328,-16,-13,-7,-1,-1,-1,1,-11
116843432328,13,3,-3,-8,-2,-1,-3,-21
116843433184,-8,-1,4,2,0,2,-3,-3
116843433184,17,3,-2,-2,0,1,1,-45
116843446169,1,-8,-5,-3,-2,-1,-2,39
116843446169,-12,-18,-5,-16,-5,-2,-1,-14
116843447050,0,1,-1,-2,-1,-1,1,-3
116843447050,-6,3,2,3,0,0,-2,-8
116843469391,0,-1,-3,3,-1,-1,-3,12
116843469391,0,3,1,-2,1,-1,-1,8
116843470166,-9,-6,-4,-2,-2,-2,-4,-53
116843470166,9,-1,2,2,-2,-1,2,0
116843491884,-4,-11,-1,-3,-1,-2,-1,2
116843491884,-6,5,2,1,0,0,-2,-9
116843492668,-8,-5,-5,5,-3,-1,-1,-8
116843492668,-14,5,1,-2,1,-1,-2,-9
116843506636,-4,2,7,9,2,2,0,13
116843506636,10,6,-1,-39,-6,-3,-2,5
116843507441,-8,-5,-1,4,-2,-2,0,5
116843507441,-7,-6,-4,5,0,-2,-5,0
116843529398,1,1,4,2,1,0,0,3
116843529398,-1,-18,0,-9,-1,-1,-2,-2
116843530194,7,5,-1,-3,-3,-2,-1,14
116843530194,-2,-1,-2,-2,-2,-3,-3,10
116843551844,3,1,-1,12,1,-1,1,21
116843551844,-8,2,-2,13,1,-3,-6,-85
116843552657,8,-1,-2,6,-1,-3,1,25
116843552657,2,-4,-1,7,0,1,2,9
116843574394,13,34,3,0,1,1,-1,-3
116843574394,0,-17,-7,-3,-3,0,-1,14
116843575183,-13,0,0,-10,2,0,-2,-1
116843575183,6,0,-3,7,-1,-2,0,2
116843589382,2,7,0,-6,-4,-2,3,-10
116843589382,-2,9,-1,12,0,-2,-1,20
116843590177,6,1,1,-3,0,-1,-2,-10
116843590177,-4,3,0,-8,0,1,1,22
116843611916,-1,-8,4,3,0,-1,-5,-31
116843611916,12,2,-4,8,0,-1,0,33
116843612695,0,-4,1,-9,-2,-2,-3,6
116843612695,-6,3,0,-5,1,-2,-2,-13
116843634400,1,-6,-3,-7,0,-2,1,-2
116843634400,-14,2,1,-5,-3,-1,-2,-21
116843635230,4,2,-4,-10,-1,-1,-2,-17
116843635230,-3,14,-1,-7,-1,2,1,1
116843649389,-5,-8,-3,-14,-4,-2,-1,12
116843649389,-14,12,1,7,2,1,-2,-10
116843650165,7,-5,-4,4,2,-1,8,16
116843650165,1,5,4,1,-2,-2,-2,14
116843671883,-4,13,-3,-10,-3,-2,-1,-11
116843671883,-7,-9,-2,10,1,0,-1,-2
116843672664,-5,0,3,-5,-4,-2,-1,-11
116843672664,-7,-25,-3,7,1,-3,-1,25
116843686173,-5,-6,-2,1,-2,-1,-1,1
116843686173,7,-3,-1,0,-1,1,1,4
116843686965,1,6,1,0,1,-1,-2,-16
116843686965,1,-17,-2,0,-2,0,0,0
116843709390,0,-6,-1,4,0,-2,-4,-3
116843709390,3,4,0,2,-2,-3,1,12
116843710205,-2,-10,-8,-1,-1,-2,-4,-30
116843710205,18,14,7,-3,0,2,5,-8
116843731865,-3,-9,-3,1,-2,-2,-1,6
116843731865,8,0,1,7,-2,1,0,8
116843732660,18,7,0,-4,-3,1,1,22
116843732660,6,-3,-4,3,-2,-2,-4,-15
116843745527,-2,-7,-1,5,3,0,-1,9
116843745527,2,1,-3,-16,-4,-2,5,12
116843753645,1,-4,-3,4,0,0,-2,7
116843753645,4,6,-1,-6,-2,1,3,50
116843769336,-5,-22,-2,1,0,0,1,-9
116843769336,-17,-2,-1,5,0,-1,-1,-9
116843770125,-12,-4,-4,-2,-1,-1,-2,59
116843770125,-11,-2,-1,-3,0,-2,0,-29
116843791829,31,10,2,-6,-2,-1,-2,18
116843791829,1,-20,0,1,0,0,0,4
116843792688,-7,-3,0,8,0,0,-3,-14
116843792688,2,1,-3,-12,-3,-2,-1,-6
116843805476,-10,-4,-4,-4,-4,-1,-2,6
116843805476,1,7,2,5,0,-3,-3,-17
116843814540,10,0,1,-2,0,-1,-3,-6
116843814540,-18,-14,-1,1,-1,-2,-1,-33
116843836875,-1,1,0,2,0,0,0,-14
116843836875,8,6,-2,-3,-2,0,3,70
116843838544,-12,-4,2,1,1,-1,-1,-9
116843838544,2,2,-8,0,-2,-1,-3,-20
116843851891,4,-7,-3,-6,-3,-1,3,50
116843851891,6,2,-2,3,0,1,-1,-12
116843853491,-11,4,2,1,0,-1,2,-2
116843853491,-14,-13,-6,-9,-2,-4,-5,-12
116843865493,-6,3,-2,6,1,1,-2,-17
116843865493,-4,1,-2,-2,-1,-1,-3,-2
116843874535,-6,8,-3,1,-3,-3,-3,-1
116843874535,-5,-2,0,-10,1,-1,1,-8
116843889352,-7,-2,-2,13,-2,-2,-5,-40
116843889352,-3,-5,0,1,-1,-3,0,-2
116843891008,-1,-13,-7,-6,-2,1,-1,-7
116843891008,5,7,1,4,-1,0,-2,4
116843911871,1,1,0,-5,-3,-2,0,1
116843911871,-14,-3,-7,-3,-3,-1,-3,-26
116843913471,-14,-3,-3,-2,-2,-2,-8,-42
116843913471,10,-10,2,3,-1,0,0,4
116843934369,-1,0,-4,-6,0,1,0,0
116843934369,-23,-21,-1,5,-1,-3,-3,-6
116843935997,5,2,1,-1,-1,-1,2,8
116843935997,1,7,1,4,-1,-2,-3,-1
116843949353,3,4,-5,2,1,0,-2,3
116843949353,1,2,-2,-22,-6,-1,-1,-15
116843950962,0,0,0,-2,-2,-1,1,0
116843950962,10,1,1,-2,0,0,2,35
116843971883,-8,-3,2,6,0,-3,-1,-2
116843971883,5,21,6,4,1,-1,-1,0
116843973539,2,2,-5,-3,-3,-2,-1,9
116843973539,-24,-4,-2,-1,-4,-2,-5,-27
116843985948,-2,0,0,-5,-1,-1,-1,4
116843985948,9,1,3,5,1,0,0,3
116843994538,1,5,1,-4,-2,0,0,-19
116843994538,-3,0,1,5,3,1,0,-28
116844009392,17,1,1,-4,-1,-1,5,65
116844009392,-4,2,-2,1,0,1,-3,-10
116844011037,-1,-4,-3,-3,-3,-2,-1,2
116844011037,2,0,-3,-6,-2,-2,3,-10
116844031827,-2,0,0,-1,-2,-1,-5,-18
116844031827,0,17,1,1,0,-1,0,7
116844033465,4,-10,-1,-8,-2,0,5,38
116844033465,7,7,2,-1,-1,1,0,9
116844045511,-6,1,1,11,0,0,0,-15
116844045511,-6,-5,-2,-1,-2,0,-6,33
116844054522,-23,-2,0,1,-1,-1,-3,-22
116844054522,0,-1,0,0,0,-4,-3,3
116844069409,0,0,-1,-5,-2,-1,0,-7
116844069409,0,-4,0,-2,0,-2,0,-16
116844071004,8,-8,0,0,0,-1,-2,8
116844071004,6,-4,-1,0,-2,-2,-1,6
116844091884,0,-4,-2,-4,0,-2,-1,-14
116844091884,-1,-6,-5,-6,-4,-2,1,21
116844093508,0,2,0,1,-2,-1,-1,1
116844093508,-3,3,-1,-1,0,-1,-2,-6
116844114426,-4,-24,-4,-3,-3,-2,-1,1
116844114426,-2,13,1,2,-1,-1,0,-18
116844115991,9,0,1,-7,0,0,2,5
116844115991,6,1,-3,-2,-2,0,-4,-1
116844129432,6,11,1,-1,-2,1,-2,-8
116844129432,-1,-1,-2,-3,0,0,1,-1
116844130991,-6,-2,0,2,-2,-2,-5,-44
116844130991,9,2,-4,-6,-1,0,1,33
116844151877,-15,28,0,-5,-2,0,-3,-13
116844151877,-2,-12,-2,-4,-1,-1,-1,-12
116844153474,1,2,1,9,-1,-1,1,11
116844153474,-12,-2,-2,-1,-1,-1,0,-5
116844181877,-6,0,-3,-5,-3,-2,-1,-4
116844181877,8,-6,0,1,0,0,-1,-22
116844183470,1,-4,-1,3,1,0,0,40
116844183470,0,0,1,-4,-2,-2,0,2
116844187968,-2,-7,1,1,2,-2,-1,2
116844187968,5,-3,-6,2,-2,-3,-5,-25
116844197044,-1,-4,-2,-14,-4,-1,0,-3
116844197044,16,-16,-1,-3,0,2,2,-3
116844211859,-4,-3,-1,-2,-1,-2,-3,4
116844211859,-8,12,0,-1,1,0,0,0
116844213454,2,2,3,1,-2,-2,-1,-7
116844213454,-9,3,-2,-4,-2,-1,-2,-3
116844234403,-14,-8,-4,-3,-3,0,-5,-20
116844234403,2,-3,2,-1,0,1,1,13
116844236034,-5,-1,-2,-3,-2,-3,0,-2
116844236034,0,1,2,2,-1,-1,-1,-6
116844248012,11,-5,-3,-3,0,-1,-1,3
116844248012,-2,-4,2,-2,0,-1,0,-11
116844264519,6,-1,-2,6,-1,-2,2,87
116844264519,-12,0,-1,3,0,-2,-3,-12
116844271841,5,14,0,2,2,-1,1,-2
116844271841,0,5,-5,-7,-2,-2,-3,2
116844273515,2,4,1,-2,1,0,-1,-31
116844273515,-3,4,2,4,-2,0,-2,-2
116844294355,-10,-5,0,-1,-4,-2,-1,16
116844294355,-3,-3,0,5,-1,-1,-1,2
116844295961,-2,-1,-3,-2,1,0,-1,-17
116844295961,2,6,-2,5,0,-2,-1,2
116844308006,7,1,0,-2,-1,-1,0,-11
116844308006,2,-38,-5,2,-2,-1,-1,5
116844317037,1,2,0,2,-1,0,-2,-17
116844317037,2,-3,-3,-3,-2,-2,1,5
116844339363,-2,-6,-1,-4,-1,-1,1,-1
116844339363,-5,28,2,-1,-2,-2,-2,4
116844340982,-10,-11,-2,-3,-1,-2,-3,-8
116844340982,-13,-4,-2,-2,0,-1,-5,-31
116844354375,-1,-13,-1,1,0,0,-2,2
116844354375,-10,-1,-1,-2,-1,-1,0,-1
116844356024,18,14,1,5,1,1,0,-6
116844356024,-13,9,4,0,-1,0,-2,-1
116844368221,0,0,-10,-9,0,-3,-3,-8
116844368221,3,-5,-1,-2,-1,0,-2,3
116844377029,-1,-6,-5,-3,-2,0,-2,-12
116844377029,-1,-4,-1,-3,-1,-1,-1,14
116844391858,4,16,5,3,1,2,5,2
116844391858,11,2,-1,1,-2,-1,0,5
116844393467,-9,-3,-3,-4,-1,-3,-2,-3
116844393467,2,1,-2,-2,1,1,-2,1
116844414536,1,-28,-5,-4,-4,-2,-2,-10
116844414536,1,2,-2,3,-2,-2,-1,0
116844415981,-7,-1,1,0,0,-1,-1,-27
116844415981,2,0,-2,-3,0,-2,0,7
116844428143,1,-1,0,5,-2,-1,-4,-4
116844428143,-12,-14,-6,0,2,0,1,3
116844437099,-1,1,-2,-11,-2,-2,-2,-6
116844437099,1,-10,-5,-1,-3,0,1,-1
116844451936,8,2,0,-2,0,0,-3,7
116844451936,-8,-2,1,-1,-1,-1,3,-1
116844453524,-7,12,-2,3,-1,-3,-3,-3
116844453524,-3,-17,0,-2,1,-1,-2,-12
116844474464,0,2,1,-2,-2,-1,-1,4
116844474464,8,1,1,-3,0,-1,1,1
116844475994,-2,-13,-3,0,-1,0,0,0
116844475994,2,-13,-2,2,-3,-1,-2,3
116844488063,-14,7,3,1,-1,-1,-2,-4
116844488063,-1,-11,-4,-6,0,-1,-2,-10
116844497021,1,0,1,4,-2,-1,1,9
116844497021,3,7,0,5,1,-1,0,4
116844511890,-2,-3,-4,-10,-3,-3,1,3
116844511890,4,0,-2,-3,-2,-2,0,33
116844513507,-11,-3,0,0,3,2,0,16
116844513507,-18,-3,1,-1,-3,-2,-5,-7
116844534579,2,3,-4,2,0,-2,-3,-3
116844534579,5,4,-1,0,-1,1,-1,4
116844536015,8,3,-1,-2,-1,0,2,-5
116844536015,15,15,2,0,1,-1,-1,1
116844548127,-13,-30,-2,-4,-2,-1,-2,1
116844548127,-2,-2,-2,1,0,-2,-1,-8
116844557027,-8,-2,-1,-1,-3,1,-2,0
116844557027,5,4,-2,-2,-1,-2,-2,2
116844571913,-21,4,-1,-2,-4,-1,-2,-1
116844571913,-5,3,1,-1,-1,-1,-3,-30
116844573530,4,-6,-4,0,-3,-1,-1,3
116844573530,0,2,-2,-1,-3,-1,1,-2
116844594533,0,-16,-4,2,0,-1,-3,-5
116844594533,-10,-4,-4,-3,-5,-3,-1,20
116844595987,0,0,1,0,-1,0,-2,14
116844595987,-8,-6,-4,-5,-3,0,-1,-9
116844616886,8,10,0,3,3,1,2,0
116844616886,-6,-3,-2,-1,-1,-1,-2,-10
116844618501,7,-3,0,-2,1,-2,-1,-5
116844618501,-15,9,0,1,-4,-5,-1,8
116844631862,-4,6,-1,-1,0,0,-2,-4
116844631862,7,3,1,0,0,-1,-2,0
116844633624,-1,-1,0,-7,0,1,0,0
116844633624,3,-4,-4,5,-3,-2,0,-9
116844654489,-22,5,-2,0,-1,-1,-1,-1
116844654489,-1,-19,-1,-3,-2,-1,-3,-6
116844655931,0,0,-2,4,-2,-2,-3,-29
116844655931,6,1,0,-15,-1,0,-1,11
116844668009,10,0,-1,-2,-2,-1,-1,5
116844668009,3,22,3,3,0,0,2,5
116844677125,-8,-1,-1,2,2,-2,-1,-8
116844677125,4,-11,-2,-1,-1,-1,1,12
116844691260,13,-3,-4,-4,-1,-1,0,15
116844691260,-21,0,-1,-8,-1,0,0,-17
116844698162,10,6,1,2,-3,-1,1,8
116844698162,-4,2,1,1,0,-3,-3,-3
116844714459,21,14,3,1,-1,1,-1,4
116844714459,-2,-9,-2,-3,-1,-1,-2,-6
116844716100,-2,-5,-4,-7,-4,-3,-3,-2
116844716100,0,0,-1,1,-1,0,0,6
116844728171,-4,-5,-1,-2,-2,-2,-2,-9
116844728171,4,8,1,-1,0,1,-3,-27
116844737117,16,0,2,1,0,0,5,11
116844737117,-2,2,0,0,-2,-2,1,2
116844751992,-2,1,-1,-3,-1,0,0,-1
116844751992,5,2,-1,1,-1,-2,0,4
116844753572,-8,-3,-4,-4,-3,0,-1,0
116844753572,11,-4,0,1,1,-1,-1,-9
116844774641,3,21,0,-11,-3,-1,1,-15
116844774641,3,-27,-3,5,-2,-1,0,7
116844776094,-4,-3,-1,-2,-2,-1,-2,0
116844776094,-4,-9,-7,-4,0,0,-1,-2
116844788057,-8,-2,1,8,-1,-2,-1,-2
116844788057,-3,3,-4,-6,-3,-2,-6,5
116844797150,-5,-5,-2,-1,0,-1,0,1
116844797150,-4,0,1,2,-1,-1,-4,-7
116844811709,-2,-3,-2,-4,-2,-2,-2,-18
116844811709,-1,-1,-1,-2,-1,-1,0,5
116844818158,-14,-4,0,2,-2,-1,-2,-3
116844818158,13,3,-4,-6,-2,-4,-3,2
116844834534,3,-3,0,-1,1,0,-2,2
116844834534,6,-15,-1,-1,0,-1,-2,4
116844836008,-6,-2,-2,-2,-1,-3,-6,-8
116844836008,3,-1,-1,1,0,0,-1,-3
116844848241,4,-7,-3,1,-1,0,1,6
116844848241,-10,4,1,4,-1,-1,-3,-5
116844857067,8,2,-1,-4,-1,0,-1,-5
116844857067,-12,-3,0,-2,-4,-2,0,-7
116844872058,9,-2,-1,-3,-1,-1,1,5
116844872058,-2,4,0,7,-1,-1,0,3
116844873602,-10,-15,-2,-2,-3,-2,-2,1
116844873602,-1,9,2,2,0,2,0,-5
116844894812,-14,-11,-7,0,-3,-4,1,0
116844894812,17,7,1,-4,-3,-1,0,-23
116844896396,1,12,1,-1,-1,2,0,9
116844896396,-8,-8,-2,-4,-1,-1,-4,-5
116844908063,-1,-3,0,-2,-3,-3,-5,0
116844908063,-6,2,-2,-2,1,-3,-3,-5
116844917009,-3,0,0,1,1,-3,-4,-10
116844917009,16,8,0,-5,-1,-1,-3,9
116844931960,-3,-3,-4,2,0,-1,-1,-2
116844931960,-2,4,-2,-3,-1,-3,-2,4
116844933577,4,5,1,2,-1,-2,-1,5
116844933577,-33,-8,-8,-13,-4,-2,0,3
116844954527,-6,-9,0,-1,0,0,-1,-6
116844954527,24,2,1,-1,1,1,1,8
116844956065,0,6,6,0,2,0,2,5
116844956065,2,-2,-1,4,-2,0,-1,-7
116844968027,1,6,1,0,2,0,-1,3
116844968027,-11,-3,-2,-1,-3,-1,-4,-22
116844977113,-2,-8,-5,-2,-3,-1,-1,-5
116844977113,1,-3,3,3,2,0,-4,1
116844991429,1,1,0,-2,-1,-3,0,-2
116844991429,-6,-4,-2,-2,-1,-4,-1,11
116844998231,0,8,-3,-2,-2,-2,-3,0
116844998231,-4,-4,-4,3,0,-2,0,-4
116845014575,-8,-2,-1,-1,1,1,-1,3
116845014575,-5,-5,-2,-3,-3,-1,0,-2
116845016035,-1,3,-1,-1,-1,-2,-8,-2
116845016035,-5,-2,-1,-2,1,-1,-12,22
116845036873,-3,0,1,0,-2,-1,-6,3
116845036873,-19,7,-1,-3,-1,-1,-3,-2
116845038552,1,-26,-6,-3,-2,0,7,-5
116845038552,-3,-3,1,1,0,-1,0,-16
