timestamp,emg1,emg2,emg3,emg4,emg5,emg6,emg7,emg8
84031892907,3,-1,3,3,1,-1,-1,-6
84031892907,-6,10,-2,-2,-2,-1,-2,-6
84031907742,-3,-36,-5,-3,0,-1,-1,8
84031907742,-13,-14,-2,1,-3,0,2,25
84031909299,3,8,-2,-3,-2,0,-4,-16
84031909299,13,2,0,1,-1,-1,0,6
84031929957,2,16,0,-1,-2,-1,-2,-10
84031929957,14,9,-1,-4,-1,0,-1,2
84031936336,-8,-19,-1,1,-2,-2,-2,5
84031936336,-3,-3,1,-2,-3,-2,-1,-15
84031943817,-16,1,-5,-8,-4,-3,-3,-37
84031943817,-2,6,1,1,0,-2,2,14
84031952851,-2,-8,-1,-5,-2,-4,-2,-2
84031952851,4,0,0,7,-2,-1,-1,4
84031967696,-13,-2,-3,-6,-2,-2,-2,-51
84031967696,28,-3,-4,0,-2,1,3,41
84031969280,2,19,3,-2,-1,1,-1,-5
84031969280,7,-16,0,-3,-1,-1,0,-3
84031990173,6,11,6,5,1,1,0,9
84031990173,-7,-8,-6,-2,-3,-3,-2,-9
84031991812,-1,-1,-2,6,1,-1,2,2
84031991812,2,16,0,-5,-2,-1,0,2
84032003871,4,6,1,1,-3,1,-2,22
84032003871,-9,-21,-2,-2,-1,-2,-3,-9
84032013687,10,7,-1,1,0,-2,-2,-6
84032013687,-23,-13,-2,-4,-1,-1,-2,-13
84032027710,-5,1,1,2,1,0,2,45
84032027710,-10,6,-1,0,-2,0,0,-10
84032029341,9,4,-3,-5,0,2,-3,-8
84032029341,-9,-15,-2,2,1,-1,-4,-16
84032050358,0,4,-1,-4,-2,-2,-1,-20
84032050358,2,0,2,5,0,0,1,28
84032051852,17,-13,-3,-3,-3,-1,-1,10
84032051852,7,5,-4,-4,-1,-1,-1,16
84032063839,-2,-3,-2,2,0,-1,0,-6
84032063839,-6,4,3,-2,-1,-1,-2,-15
84032072872,8,7,-2,1,-2,-1,-1,-5
84032072872,2,-8,-2,-2,-1,0,0,4
84032087727,6,-4,-2,3,1,-2,0,9
84032087727,-25,2,-4,-3,-3,-3,-2,-14
84032089332,-19,6,1,0,0,0,-2,25
84032089332,12,7,-3,-1,-2,-1,0,-8
84032110181,-9,-1,3,5,0,1,1,23
84032110181,4,-3,-1,-10,-2,-2,-2,-9
84032111931,0,2,2,1,-2,-1,-1,-16
84032111931,-12,-2,0,2,-2,-2,-1,-5
84032123857,30,-20,-4,-3,-3,-1,-1,8
84032123857,-11,-6,-4,-1,-1,-2,-4,-6
84032132845,-3,8,4,0,1,-2,-2,-5
84032132845,-1,18,1,-1,0,-1,-1,-6
84032147776,-10,-7,-5,0,-1,-2,-4,-1
84032147776,0,6,2,-2,-2,-1,-4,-16
84032149288,13,4,0,-1,-1,1,1,32
84032149288,-2,20,-1,3,-2,-2,-2,-1
84032177704,1,5,-1,0,1,-1,-2,2
84032177704,10,-6,-1,-8,1,-2,3,-14
84032179275,-14,-9,-1,5,0,-1,1,8
84032179275,6,2,-1,-2,-1,-2,2,5
84032183892,-6,2,2,-3,-1,0,0,-1
84032183892,6,-8,0,3,2,1,-2,2
84032192837,10,9,-4,-5,-2,-1,0,-8
84032192837,-11,-13,-4,0,-1,-1,-2,-1
84032207716,0,13,1,2,-2,-2,-1,-1
84032207716,-17,-20,-4,-5,-2,-3,-2,0
84032209314,8,-2,-2,-2,-1,0,1,-9
84032209314,-9,-18,-2,-2,-1,-2,-2,33
84032230200,0,-10,-5,-9,-3,-2,-2,-5
84032230200,2,8,0,2,-1,0,-3,3
84032231830,-23,-16,-6,-2,-2,0,-3,3
84032231830,5,30,7,2,2,1,0,-16
84032252726,-1,-6,-3,1,-1,-1,-1,0
84032252726,4,4,0,-1,1,-1,0,12
84032254301,-17,1,0,-4,-1,-5,-5,-26
84032254301,4,2,-1,-4,0,0,0,-2
84032266353,2,3,0,6,0,-1,-4,7
84032266353,11,7,-1,1,0,0,0,-10
84032275323,3,-3,0,2,1,0,-1,-4
84032275323,-1,-10,-2,-3,-3,-2,-1,-3
84032290296,-8,15,-3,-12,0,-1,2,-1
84032290296,0,-13,1,12,-1,-2,-1,-7
84032291831,-5,10,0,-6,-1,0,0,10
84032291831,-5,-5,0,2,0,0,-1,1
84032312959,-27,7,-1,2,0,-3,-8,-70
84032312959,-3,0,-1,-4,-1,1,0,2
84032314355,-20,-11,-4,-5,-1,-1,-1,-12
84032314355,-3,0,-3,2,-1,3,-1,3
84032327963,10,-13,-4,-1,-2,-3,-2,0
84032327963,15,29,2,-3,0,-1,-1,5
84032329422,0,-13,-2,0,-2,-1,2,-9
84032329422,9,-4,-3,-2,-1,-1,-1,-15
84032350475,-8,-8,-1,-5,-1,0,1,10
84032350475,-4,0,-4,-3,-1,-4,-2,5
84032351894,9,4,0,2,-1,-2,-2,-11
84032351894,4,7,-1,-8,-3,-1,0,9
84032372270,5,-14,-2,2,-1,0,2,12
84032372270,4,-5,0,0,-1,1,-2,4
84032372825,-8,-4,-4,-2,0,1,-3,-1
84032372825,-10,-2,-5,-7,-2,-2,-4,-8
84032386524,10,-1,-1,0,-1,1,1,14
84032386524,-6,-8,0,-1,-1,0,0,-8
84032394754,7,-1,1,0,-2,-4,-1,-2
84032394754,13,-6,-2,-2,-2,-1,-2,-4
84032409710,1,-1,-1,-3,-2,-1,0,11
84032409710,-9,-2,-5,1,-3,-1,0,-16
84032410382,-6,-21,-5,-4,1,-2,0,36
84032410382,-1,-1,1,9,2,-1,2,0
84032432265,0,3,0,-1,-2,-2,-4,-7
84032432265,-3,-5,0,-5,-2,-2,-1,1
84032432852,12,27,5,10,-1,-1,-3,-11
84032432852,-5,-11,-2,-9,-2,-1,1,-6
84032446619,-6,-4,1,3,0,0,0,7
84032446619,-3,3,-7,-22,-4,-1,-2,2
84032454747,3,1,1,-5,1,1,0,-7
84032454747,12,3,3,23,-2,-1,-2,-2
84032469602,2,4,-1,-15,0,0,-1,-6
84032469602,3,0,0,23,1,-2,0,3
84032470360,0,-4,-1,10,1,0,-2,-9
84032470360,-8,-6,-2,18,0,-1,-1,1
84032492264,-3,-3,-10,-65,-12,-5,0,2
84032492264,2,-1,4,19,0,-1,-2,-1
84032492884,-2,8,1,15,3,0,-1,-1
84032492884,-8,-2,-2,-37,-2,-1,-2,-5
84032507237,2,6,3,42,8,-1,-3,1
84032507237,-9,-4,0,-12,3,0,-1,3
84032507820,10,7,-4,-7,-17,-2,0,-9
84032507820,-5,-4,4,-1,4,-1,0,-1
84032529564,0,1,0,4,-4,0,2,1
84032529564,2,0,0,1,2,-2,-1,-1
84032530386,-1,-11,-2,8,5,0,-2,-2
84032530386,5,-2,-1,2,0,-1,0,-3
84032552225,-3,-2,-1,-5,-2,0,0,6
84032552225,-6,1,-5,7,0,-3,-1,-2
84032552873,4,-1,2,-9,0,-2,-3,0
84032552873,-5,-8,-2,2,-6,-3,-2,-3
84032575367,-1,-3,0,-9,2,-1,1,-5
84032575367,-4,-4,-5,7,-10,-3,-4,-2
84032576052,-5,-4,-2,-16,0,-2,0,-4
84032576052,-2,-25,-5,3,0,5,-2,-1
84032589663,-2,2,1,-11,-2,-4,-6,-4
84032589663,2,1,-2,-19,-3,3,2,0
84032590368,0,-2,1,-4,1,-4,-1,-8
84032590368,-2,10,4,20,6,5,2,8
84032612253,-3,-1,-4,-6,-5,-1,-1,-3
84032612253,1,-7,-2,-16,-3,-2,1,1
84032612930,-4,-1,-2,9,3,-2,-1,0
84032612930,9,1,-5,-11,-5,-8,-6,-3
84032635233,-5,-22,-2,23,1,11,3,6
84032635233,-1,6,-2,-32,-5,-10,-2,-4
84032635963,0,-1,2,44,4,0,-2,0
84032635963,-3,19,-2,-47,-2,0,-1,-4
84032649744,6,-2,-1,5,-6,-3,-4,6
84032649744,5,1,2,21,8,7,2,2
84032650317,-3,-1,-1,-32,-4,6,0,-2
84032650317,1,4,-3,2,-12,-14,-1,16
84032672215,-4,3,-1,10,10,6,4,-15
84032672215,-39,-13,-5,-17,-5,-2,-5,8
84032672823,1,3,1,1,7,9,1,-2
84032672823,-7,-6,-8,-2,-12,-33,-7,-7
84032695324,-4,2,-1,-3,-7,2,-2,14
84032695324,-2,-6,-1,12,0,-2,-6,-11
84032696073,-4,5,2,5,6,8,0,-13
84032696073,11,-16,0,-8,8,17,6,5
84032709689,-3,-1,0,35,-1,-1,0,18
84032709689,5,4,-3,-11,-6,-24,-1,0
84032710337,0,1,-3,8,-10,-5,-3,0
84032710337,-11,2,1,8,-4,-9,-4,-10
84032732106,-12,15,-1,-1,7,14,-12,-57
84032732106,-6,0,2,4,-3,4,7,40
84032732895,-5,-7,-1,6,-3,-13,3,12
84032732895,-8,-6,0,-50,3,13,0,-14
84032755306,1,7,2,4,0,-11,-9,-29
84032755306,7,-8,-5,-11,-6,2,1,9
84032755942,-11,-7,1,-9,-1,-11,-2,-15
84032755942,-1,9,3,23,2,25,3,-5
84032769689,-2,-36,-2,-13,1,-14,-3,10
84032769689,19,3,0,19,5,-6,-9,-8
84032770322,1,-1,-4,3,0,9,8,2
84032770322,-5,-7,-3,3,-2,6,-2,-7
84032792048,4,10,0,-5,-2,-11,7,-21
84032792048,-6,-2,-1,1,-5,-3,-11,-1
84032792872,6,-10,-5,14,1,11,-1,-1
84032792872,-1,4,-1,-2,-1,-27,-13,45
84032806380,7,23,-4,8,-5,8,5,15
84032806380,6,-5,6,11,16,23,12,0
84032814728,12,2,-7,-12,-16,-1,-2,-1
84032814728,8,1,-1,-2,4,8,-1,10
84032829773,1,3,0,-2,-5,-52,-16,-15
84032829773,5,2,-2,13,0,10,15,28
84032830362,-8,0,-2,-33,0,14,4,-8
84032830362,0,2,2,6,-4,-21,-5,20
84032852044,-2,-10,-1,3,1,11,1,11
84032852044,-12,1,-3,5,-1,-15,-5,-83
84032852815,17,-28,-2,10,-4,-2,-8,36
84032852815,8,13,4,20,8,7,-8,-17
84032866601,4,-1,-1,-16,3,1,13,19
84032866601,-4,-1,-4,-25,-14,-1,-3,-12
84032874799,-3,10,0,-15,-3,-8,-8,-14
84032874799,-12,-6,-2,-12,-10,10,17,-18
84032897947,5,-4,-3,31,7,-16,4,21
84032897947,2,7,5,5,6,-11,-17,-19
84032898535,-6,-1,-3,-14,-2,6,-5,-14
84032898535,-3,-1,5,6,-3,8,12,35
84032912243,-7,-1,-1,-39,-11,20,16,-42
84032912243,-2,-1,-2,13,7,-5,-6,12
84032912867,-16,2,2,14,8,-19,-18,-25
84032912867,-25,-3,-2,1,1,-9,-20,-55
84032926515,12,-14,-6,5,-6,33,23,48
84032926515,8,-8,-10,-21,-8,-29,-3,-2
84032934580,-1,4,-2,-5,8,41,4,16
84032934580,-4,0,-6,4,-2,-26,4,-25
84032949598,-8,6,-2,-7,-6,3,-29,-11
84032949598,10,2,-2,-7,-10,-4,-5,2
84032950309,-6,3,-1,-8,-4,-15,19,10
84032950309,0,-4,3,10,2,10,2,4
84032972065,-4,0,2,-2,6,2,-12,-14
84032972065,-3,-2,2,-19,-11,8,-8,19
84032972811,1,0,4,10,-2,-22,9,23
84032972811,-4,-3,-1,-17,0,-16,4,-17
84032986292,2,-2,1,20,-6,35,0,-10
84032986292,1,1,-2,-38,16,3,9,-4
84032994547,-4,-17,2,4,5,-16,-10,-30
84032994547,8,-3,-5,-21,-11,3,-3,18
84033009510,0,-2,-5,-50,-10,-57,-25,-10
84033009510,-1,0,2,37,0,31,18,-11
84033011212,4,5,-5,-12,14,-5,1,-7
84033011212,24,-8,-4,-28,-7,19,4,77
84033032041,-8,-2,-2,9,-1,-7,-1,-17
84033032041,-3,3,-8,9,4,1,-5,-2
84033032824,-3,-1,2,-11,-12,-11,-20,2
84033032824,-17,-3,-8,24,5,3,8,-44
84033055217,-3,7,3,3,2,-3,7,37
84033055217,1,0,8,24,6,12,8,19
84033056086,-1,-14,-4,-50,1,8,2,-14
84033056086,-2,-3,-4,-11,-16,-15,-25,-15
84033069568,-8,-3,-1,8,5,-30,-23,-62
84033069568,28,0,1,25,-2,3,30,54
84033070384,8,10,1,43,23,26,1,9
84033070384,1,3,1,-8,2,12,-11,-5
84033092114,19,-5,6,-4,-4,-4,15,2
84033092114,-7,-2,-2,1,1,15,8,-32
84033092825,-8,2,-3,-10,-25,-37,-27,4
84033092825,-3,-3,-3,-2,18,5,10,20
84033115301,-2,5,6,54,3,-18,-14,-9
84033115301,-8,1,3,-8,4,6,-8,2
84033116065,-13,1,-9,-29,-22,12,15,-72
84033116065,9,-5,0,71,7,-8,14,51
84033129631,-4,0,-4,-58,-6,9,10,4
84033129631,-9,-2,-8,-20,-14,-15,-26,6
84033130359,-6,-1,-1,-14,-3,1,-4,-32
84033130359,-3,-1,-2,-31,-5,-8,4,-39
84033152006,5,-3,-3,18,5,12,7,65
84033152006,-31,-19,-4,-1,-15,-7,-1,-62
84033152751,-2,10,-1,0,29,-11,-23,26
84033152751,0,2,2,-48,-29,2,1,-48
84033175197,-11,-8,-15,11,-1,6,-3,-13
84033175197,19,6,6,-11,12,3,5,11
84033175972,-16,-3,1,3,-13,-9,-7,-12
84033175972,6,1,-5,11,0,-12,-6,-24
84033189514,-3,3,-1,10,13,4,-10,-2
84033189514,-16,17,-4,-24,-7,14,15,-28
84033190307,19,-3,-2,16,2,-11,30,55
84033190307,-7,-5,-4,16,1,-5,-32,-77
84033212233,-11,-5,-1,-34,-12,24,12,21
84033212233,27,-5,1,14,10,-16,-29,20
84033212817,-54,-9,-3,-15,-5,4,-21,-68
84033212817,-14,12,-2,6,2,34,30,14
84033235465,6,2,4,-12,2,-20,-57,-37
84033235465,5,4,6,9,-2,26,46,70
84033236092,17,-20,-4,0,4,-14,-9,-8
84033236092,54,-10,-3,5,-4,5,-11,69
84033249569,-31,-5,-4,-1,-9,-27,46,74
84033249569,22,13,4,3,6,-13,-90,-19
84033250370,17,16,-1,4,-8,67,94,97
84033250370,-18,1,4,12,20,-32,17,-25
84033272079,53,-9,4,5,6,20,39,95
84033272079,37,1,-2,-9,-10,-9,-28,-10
84033272804,-34,13,-2,2,-9,10,4,-27
84033272804,13,1,-1,14,2,-23,-22,23
84033295284,-22,2,1,4,8,12,27,-25
84033295284,-29,-18,-9,-19,-10,6,26,-26
84033296057,12,-1,-4,4,2,-3,-45,-19
84033296057,2,3,0,-6,-4,8,22,51
84033317817,-5,-6,-6,-8,-14,16,-42,-54
84033317817,-34,2,0,3,2,-61,14,9
84033318506,17,0,4,11,13,21,48,37
84033318506,7,8,1,0,-9,-9,-48,19
84033332238,-7,0,5,3,4,21,-6,15
84033332238,-11,-7,-8,-9,-9,6,40,-16
84033332813,-1,0,2,2,-8,-18,-18,-34
84033332813,-31,-2,-1,0,16,-3,-8,-43
84033355223,-7,7,3,10,4,-20,-17,-37
84033355223,9,-5,-2,19,-2,10,-4,34
84033355980,-16,-18,-9,-25,-4,-28,-37,-5
84033355980,-8,-6,-9,-12,-15,4,11,15
84033369644,13,4,-1,30,-2,0,-9,-25
84033369644,-1,-1,-7,-8,6,-5,1,21
84033370302,17,2,-3,11,-8,6,13,4
84033370302,-42,3,3,-5,12,15,18,-27
84033393583,19,5,-1,-10,-5,2,66,69
84033393583,-7,-2,-2,5,3,4,-19,-47
84033394232,7,5,0,-8,-13,-34,-12,-1
84033394232,24,-12,-5,2,-12,-3,-16,53
84033415223,-33,-19,-16,-22,7,-3,-19,-22
84033415223,-56,-7,-4,1,-5,10,33,-27
84033416041,6,6,7,45,1,-4,9,53
84033416041,9,-5,-12,-25,-7,8,9,-6
84033429627,-12,-3,-3,-1,3,-12,-2,-27
84033429627,18,-1,-1,-8,-10,-6,-32,-18
84033430316,-49,-1,0,-14,-8,-25,-7,-87
84033430316,-38,2,9,37,26,37,50,-2
84033452003,-10,0,-2,-1,-7,4,-2,-15
84033452003,-2,5,1,-11,0,4,1,-18
84033452922,9,-2,-2,4,-5,-13,-21,-13
84033452922,16,0,-2,-5,-12,-12,21,-37
84033475282,8,8,-6,-7,8,28,-4,-28
84033475282,12,24,-4,12,4,-13,15,97
84033476066,30,-9,-8,-4,-5,9,15,27
84033476066,-7,-1,-17,-9,-6,-18,-23,-20
84033489761,19,0,-20,-4,6,-2,2,20
84033489761,-3,-4,-10,28,-16,-1,-12,-36
84033490332,3,1,-3,5,8,3,-1,23
84033490332,-10,-3,8,-12,-5,-3,-27,-36
84033512269,-14,-3,11,1,-6,-17,-17,-36
84033512269,6,-5,11,-6,17,9,-13,-11
84033512894,-30,1,14,-8,-6,-2,-2,-14
84033512894,-12,-3,8,7,2,-5,-31,-37
84033535209,4,-1,6,3,-8,-6,1,-8
84033535209,-10,-6,0,-19,-8,-9,-6,-21
84033536041,16,1,3,-1,4,6,-10,16
84033536041,-3,-8,0,6,-1,-3,-15,-45
84033549699,-6,2,-2,-20,2,-10,-11,9
84033549699,10,-1,5,7,-5,17,25,9
84033550313,8,7,12,0,10,5,4,9
84033550313,2,1,3,10,-9,-3,4,7
84033572043,5,1,8,-1,-6,-12,-7,-12
84033572043,-3,-9,-5,-13,3,13,-8,-12
84033572828,2,-2,-2,6,-4,-18,-2,-13
84033572828,4,-3,-4,-41,1,8,2,14
84033595268,5,2,0,8,-4,-3,-8,1
84033595268,-6,-1,2,-1,0,-1,-1,-3
84033596054,4,-2,-1,2,3,3,-4,7
84033596054,8,-3,0,10,5,-1,8,21
84033609608,-2,1,5,17,1,2,2,2
84033609608,-2,-1,-3,-28,-13,-15,-9,-8
84033610383,2,-5,-1,-6,-3,3,0,-4
84033610383,-1,10,4,21,8,2,2,3
84033631970,-3,-3,0,-12,-4,3,2,-6
84033631970,2,1,7,30,0,-9,-6,-4
84033632725,2,0,0,-11,-3,-6,-14,-2
84033632725,-9,-4,-5,-3,-4,-4,12,5
84033655193,-14,2,6,11,9,10,-3,11
84033655193,4,-1,-3,-10,12,3,1,15
84033655934,3,-3,-9,-23,-16,7,6,6
84033655934,-3,1,3,-2,-3,-13,-4,6
84033669495,14,4,5,21,1,-5,0,-1
84033669495,-5,-13,-2,-8,-4,-3,-4,-8
84033670285,-39,-6,-3,-21,0,10,-1,-9
84033670285,4,-13,-1,-1,-1,-15,-4,-13
84033692040,21,3,-4,-15,1,11,4,57
84033692040,-4,6,2,4,5,4,7,11
84033692868,12,-2,-3,17,-1,4,-6,-6
84033692868,2,-3,0,-11,-9,-15,-2,0
84033715255,-11,-4,-1,-12,-4,-2,1,-10
84033715255,-8,-1,-2,17,2,-1,-3,-27
84033716008,26,1,-4,-23,1,8,11,59
84033716008,3,3,1,-2,2,5,-9,5
84033729518,-7,-1,-2,6,-6,1,16,-6
84033729518,-3,-4,-4,-3,1,-4,-1,7
84033730323,4,11,3,10,7,13,7,-25
84033730323,-14,-1,-1,1,5,19,3,26
84033752040,-1,-3,-1,6,-3,6,-8,-16
84033752040,2,1,-2,-17,-11,-34,-8,-4
84033752776,-33,-8,0,13,2,-5,-4,-23
84033752776,17,-10,-5,-14,-8,-2,-6,26
84033775278,-4,-3,-5,20,-8,-9,-15,-23
84033775278,-12,-5,-5,-18,3,16,16,23
84033776063,47,10,1,14,6,7,1,52
84033776063,-13,10,-2,-5,-5,-4,-7,-87
84033789110,23,0,-4,-6,-2,-10,1,18
84033789110,2,-1,1,1,4,2,-6,4
84033797194,-31,5,-10,1,-3,-14,-2,-16
84033797194,36,12,2,1,2,17,3,-6
84033812246,-26,6,46,-9,0,-16,-2,3
84033812246,8,-2,36,9,-7,-9,-4,-6
84033812882,0,-8,66,-19,-2,6,1,-12
84033812882,0,4,119,12,-4,-9,-1,9
84033836712,-5,-4,102,-9,-2,9,-8,-42
84033836712,-8,0,63,-1,-1,-7,-6,4
84033837442,5,3,-28,10,3,4,5,26
84033837442,1,-7,-92,0,-3,-4,1,23
84033848916,-10,-3,-111,-19,-3,-2,2,-18
84033848916,16,2,-103,3,4,8,-7,48
84033857297,7,-10,-83,11,-4,-4,-3,-9
84033857297,-18,-8,-67,3,-5,-13,-2,-10
84033872148,-20,-1,-56,-5,6,-7,-20,4
84033872148,-2,3,-35,4,-2,1,10,-40
84033872808,6,1,-12,2,2,3,2,44
84033872808,-20,4,-10,0,-3,3,-2,9
84033895237,-16,-18,-14,4,-5,-12,-3,-72
84033895237,-3,-16,-3,-11,0,8,-6,-21
84033896065,-7,-3,1,0,-8,-25,-16,-44
84033896065,12,-1,4,0,6,12,16,10
84033908932,4,16,-2,6,3,-7,-1,11
84033908932,14,3,5,-1,1,1,-10,-50
84033924651,28,-6,9,-1,-2,2,6,-3
84033924651,-10,-4,4,-23,-1,1,-6,-20
84033932287,6,1,0,-18,-6,-5,3,19
84033932287,0,1,4,12,4,8,1,1
84033932915,3,2,3,-5,-7,-6,-11,-5
84033932915,-11,-13,3,13,5,-9,0,-4
84033955210,10,0,4,-10,0,19,11,6
84033955210,-13,2,1,1,1,-8,-4,-65
84033955987,3,-1,0,1,-9,-8,-5,10
84033955987,-10,-2,1,-7,-1,2,-3,-43
84033968854,10,-3,1,0,-1,-10,2,23
84033968854,3,-2,-1,9,4,7,3,36
84033977296,-27,8,5,0,3,-2,-1,-18
84033977296,6,-2,2,11,2,5,-3,-5
84033992119,19,-3,-3,-23,-4,3,5,57
84033992119,-2,6,1,0,-9,0,-4,-31
84033992827,-62,-15,-2,-11,0,-6,8,8
84033992827,42,11,8,3,3,-15,-4,-11
84034015207,5,4,0,13,-3,16,2,12
84034015207,-17,-11,-2,-3,-2,-10,-5,3
84034016009,-2,-3,1,4,2,5,-7,-33
84034016009,-10,-3,-3,-15,-5,-3,0,-23
84034029058,-1,-7,-1,7,0,-8,-4,-28
84034029058,-9,9,6,-1,5,5,10,68
84034037295,6,0,0,7,2,1,3,-23
84034037295,-8,4,1,14,-1,-3,-1,77
84034052066,37,-23,-5,-34,-2,4,2,31
84034052066,3,-9,-9,-8,-4,-4,-3,48
84034052792,27,-2,2,-31,-11,-7,-5,-9
84034052792,18,8,2,-6,-1,0,-1,0
84034075266,-6,1,-4,18,2,6,-2,60
84034075266,5,-2,-1,-7,-3,-6,0,-88
84034076062,6,-6,0,6,6,1,-8,21
84034076062,-12,-10,2,2,3,5,7,-6
84034089078,-9,2,-1,-20,-12,-8,-3,-39
84034089078,6,11,5,35,3,-2,6,31
84034097026,-2,7,0,-15,-4,0,0,-19
84034097026,-6,1,0,-2,1,-6,0,11
84034120230,-14,6,0,-11,-2,2,-2,-9
84034120230,19,-4,-2,10,-3,-4,-5,8
84034121011,-8,-1,0,11,3,3,5,16
84034121011,1,-3,-3,-26,-7,-2,-7,27
84034135251,7,4,3,6,0,-4,2,-11
84034135251,7,0,-4,-27,-3,3,3,-6
84034136045,1,-2,3,23,5,-1,-9,17
84034136045,4,11,-2,1,5,1,1,1
84034157728,-11,1,1,-3,-7,-4,6,-23
84034157728,-11,-4,-1,23,-2,-2,-7,6
84034158497,0,7,0,-36,-5,-2,-1,-44
84034158497,-13,-3,-1,18,3,7,-2,0
84034172143,2,-6,-1,11,2,0,-3,-3
84034172143,-17,2,2,6,5,-1,3,5
84034172833,9,-2,-5,-62,-16,-2,3,4
84034172833,0,-4,-2,4,-1,0,-4,0
84034195155,8,10,0,15,5,0,1,-17
84034195155,-1,-1,-2,-24,-4,-3,-3,-29
84034195736,3,-2,-2,19,4,-1,-1,7
84034195736,-5,-5,0,3,-2,0,0,-2
84034217770,-3,-4,-2,-1,-2,-1,-5,-12
84034217770,-15,0,-1,7,0,-2,-2,-3
84034218504,5,-5,-2,31,4,-1,0,-7
84034218504,-6,2,-2,-12,-7,-2,2,-8
84034232024,-9,-8,-1,8,5,-1,-1,6
84034232024,-1,-11,-3,-19,-6,1,-3,3
84034232852,-11,-27,-2,13,1,-2,-3,7
84034232852,26,4,2,20,3,2,-1,-31
84034255204,-8,15,-2,-29,-6,-1,3,51
84034255204,3,-2,1,-5,0,-1,-2,2
84034256000,-4,0,-1,-5,-2,-2,-2,-13
84034256000,-14,-7,-6,10,1,-2,-2,-5
84034277906,-5,-8,6,11,4,1,-1,-13
84034277906,26,41,3,-1,-6,-4,1,9
84034278567,-1,-7,-2,-6,0,1,0,5
84034278567,-7,-3,-3,-7,-5,0,-1,4
84034292232,16,7,5,11,5,-1,-2,-11
84034292232,-14,-4,-1,-4,-1,1,-3,-3
84034292880,-4,7,-1,-6,-2,-2,-2,-8
84034292880,7,-4,-1,-12,-2,0,0,10
84034322789,0,-18,-5,0,0,-2,-3,-20
84034322789,0,-6,2,5,1,-1,-2,-5
84034323538,0,1,-3,11,1,0,-1,4
84034323538,3,-2,2,-1,-2,1,0,9
84034337753,-16,14,-2,2,-3,-3,-2,-8
84034337753,3,-5,-5,-12,-3,-2,1,-1
84034338505,-27,3,0,-2,-1,-3,-2,5
84034338505,-3,6,1,4,0,-1,-1,-2
84034352065,-6,-11,-2,0,-1,-4,-4,-12
84034352065,-3,-7,2,-2,1,1,0,3
84034352798,18,8,3,18,3,0,0,-6
84034352798,-11,1,-6,-7,-7,-1,-5,-4
84034375396,-1,2,2,1,2,1,1,-1
84034375396,0,3,-3,-10,-4,-3,0,3
84034376071,17,4,3,4,-2,1,1,2
84034376071,0,-3,0,-3,-1,-1,-2,-3
84034397797,-2,-1,2,7,0,0,0,0
84034397797,2,2,-4,-1,-1,-2,-2,2
84034398519,-7,-1,1,1,1,0,-1,-6
84034398519,1,-7,-4,-9,-5,-2,1,-1
84034412102,-8,0,-1,-12,-3,-2,-2,-9
84034412102,-7,3,-2,-3,-1,0,0,-8
84034412816,16,12,-3,0,-7,-4,-1,13
84034412816,2,-2,0,-1,0,1,-2,-8
84034435218,-8,16,-2,1,-3,-1,-2,10
84034435218,-4,-5,-2,-7,-5,-1,-2,-11
84034435962,8,-2,-2,-4,2,-1,1,40
84034435962,-5,3,0,6,-2,-2,-2,-9
84034457996,-16,2,-1,2,-2,-2,-3,-9
84034457996,-4,0,-2,-7,-2,-2,-1,1
84034458565,-20,-9,-1,-2,1,1,0,-23
84034458565,24,4,0,-4,1,-2,2,59
84034472240,6,-2,0,-5,-2,-1,-1,-3
84034472240,-11,-10,-1,6,-3,-3,-4,-8
84034472834,-1,-13,-3,-1,-1,-1,-1,-7
84034472834,-8,-30,-2,-4,-3,-5,-4,-17
84034495282,-25,-6,-5,-4,-3,0,-3,-47
84034495282,19,3,-2,8,1,-2,-2,20
84034496048,-16,-3,-1,-17,0,-1,-2,-21
84034496048,22,24,-6,9,-2,-3,-5,-50
84034518048,-33,-16,-2,-2,-2,-1,1,16
84034518048,-19,1,3,26,4,2,4,-11
84034518506,35,21,6,-16,2,1,3,39
84034518506,-19,7,-4,-15,-13,-3,-6,-24
84034532060,6,-14,-3,-3,-1,-2,-1,-27
84034532060,-17,4,-2,-23,-5,-3,-2,-2
84034532825,-4,16,0,31,3,-1,-1,38
84034532825,-17,-15,-2,-8,1,2,4,21
84034555339,8,5,4,8,2,-2,1,8
84034555339,0,-7,-2,10,1,-2,-1,12
84034556066,0,2,-2,0,-6,-2,-2,-19
84034556066,-8,-11,1,-10,0,0,0,-2
84034577928,20,5,-6,-5,-2,0,-1,19
84034577928,1,-18,-4,-11,-2,-1,-4,-48
84034578532,-29,-15,-4,-8,-6,-5,-4,18
84034578532,-5,9,4,4,3,0,1,0
84034592214,1,2,1,4,0,0,0,-3
84034592214,18,9,1,0,-1,0,-2,12
84034592844,21,7,4,-1,-1,0,-3,-37
84034592844,-4,-6,0,3,0,0,-1,11
84034615250,3,5,2,0,0,-1,-1,-6
84034615250,21,-2,-2,-4,0,-2,1,22
84034616866,-23,-19,-3,2,-1,-1,0,-20
84034616866,5,-19,3,1,0,-1,-1,-8
84034637695,12,-1,-5,0,-1,2,4,33
84034637695,10,-5,-4,-1,-2,-3,-1,1
84034639328,3,-4,0,-1,-1,0,-1,-1
84034639328,-4,7,0,-6,2,1,0,1
84034651319,-20,-4,-3,0,-3,-2,-2,-12
84034651319,-16,-11,-1,-1,0,1,-2,0
84034660402,-1,-2,-3,-2,-1,-2,1,-2
84034660402,-4,-2,-5,-6,-1,-3,-3,3
84034675194,4,-4,0,5,-1,0,-2,-9
84034675194,-7,-2,-2,1,0,0,0,4
84034676797,2,-23,-5,-13,-3,0,-3,42
84034676797,-19,2,-1,4,1,-1,-4,5
84034697706,-1,-6,-1,2,1,-1,-3,-7
84034697706,-5,3,0,-20,-6,-1,-2,8
84034699287,-14,-2,-4,6,-1,-2,-3,-21
84034699287,8,-2,-2,-6,-2,-2,1,31
84034711362,5,6,1,3,-1,0,-1,-1
84034711362,-12,-3,0,-4,-2,0,0,12
84034720314,0,-2,-4,-4,-3,-2,-1,-20
84034720314,21,2,-2,0,-2,-1,-1,-7
84034735186,13,8,-1,0,2,-1,0,-7
84034735186,-16,-3,0,-4,1,0,-1,-11
84034736776,23,7,1,-3,-1,-1,-1,-6
84034736776,-6,-4,-2,8,0,-1,0,-2
84034757743,12,4,0,-8,-2,-2,-5,-39
84034757743,4,-21,-1,6,0,-1,0,12
84034759365,-6,0,-1,2,-2,-1,1,-2
84034759365,1,10,1,-1,0,1,1,-11
84034771336,-1,-11,1,0,0,-2,-2,-4
84034771336,-7,-10,-3,1,-2,-4,-2,-7
84034780334,-5,2,-1,0,2,-2,-2,-12
84034780334,-2,1,1,0,-2,0,-1,-3
84034795167,-1,-7,-3,-4,-4,0,0,30
84034795167,18,10,0,2,-1,0,3,6
84034796771,-4,-1,2,-3,0,-1,-1,-7
84034796771,-1,2,0,2,0,0,1,15
84034825230,8,3,0,-2,-2,-2,-3,8
84034825230,-12,3,2,2,-1,-2,-5,-18
84034826806,-5,2,-2,0,-1,-1,0,-16
84034826806,-2,4,1,0,-1,-1,1,-5
84034840172,8,5,-3,-2,0,0,1,12
84034840172,11,3,4,2,0,0,0,2
84034841782,4,17,-3,-3,-2,0,-2,0
84034841782,2,-3,2,1,0,0,-2,-5
84034855173,-13,1,-2,0,0,0,-1,1
84034855173,-1,5,-4,-1,-2,-2,-2,-11
84034856786,-26,-22,-4,0,-3,-2,-1,2
84034856786,-11,-3,-2,-4,-2,-2,-2,-6
84034877724,14,-11,-2,-2,-1,1,1,-5
84034877724,-1,-2,-3,-1,0,-1,-2,4
84034879303,5,-4,-2,1,0,0,1,3
84034879303,-6,-5,-2,1,0,0,-2,-4
84034891341,-24,-10,-1,-3,-2,-3,-3,-10
84034891341,3,0,-1,-1,-2,-1,1,0
84034900337,2,3,0,0,-2,0,-2,6
84034900337,-26,6,-1,-2,-4,-2,-5,-24
84034915200,-4,-18,-7,-3,-2,-4,-5,-29
84034915200,15,8,1,0,-1,1,2,27
84034916776,-1,-9,-1,-3,-3,-2,-3,-8
84034916776,-1,0,-5,-2,-3,-2,-1,-7
84034937759,-5,-3,-4,0,-1,-2,-1,1
84034937759,-11,-6,-3,-3,-1,-1,-3,-13
84034939358,-4,-5,0,-1,-1,-2,-2,-6
84034939358,12,-10,-2,-1,1,-1,0,11
84034951321,-1,7,-1,-2,-3,-1,1,9
84034951321,-3,-1,-2,-1,-2,-1,0,-5
84034960376,-4,13,1,-1,-1,-1,-1,6
84034960376,-10,-5,0,-2,0,-1,-3,-13
84034975192,5,8,-1,-1,-2,0,-2,5
84034975192,-6,-3,-2,0,0,-1,-1,-5
84034976811,-1,-1,-3,-2,-2,-2,-4,-8
84034976811,4,7,1,-1,-2,-2,-2,0
84034997764,1,-7,2,1,0,-2,0,12
84034997764,-10,11,1,0,-1,0,-4,-14
84034999327,10,-3,0,-1,-2,0,0,9
84034999327,2,11,-1,1,-1,-1,-1,0
84035011324,5,10,0,-3,-3,-3,-1,9
84035011324,-2,-28,-3,-1,-1,-2,-2,-2
84035020260,10,-5,-9,-1,-1,-1,0,0
84035020260,-2,-9,-3,-2,0,-2,-1,9
84035035219,-25,8,-5,-3,0,-1,-2,-11
84035035219,-10,8,4,-1,-2,-2,-4,-7
84035037001,-19,-8,10,1,-1,-1,0,-5
84035037001,4,-4,-8,-3,-3,-1,0,-6
84035057784,11,5,6,0,1,0,1,4
84035057784,6,6,-2,2,0,-1,0,-1
84035059344,11,-14,2,-1,-1,-2,0,10
84035059344,-2,-29,-5,-3,-3,-2,-1,3
84035080391,-5,7,5,4,0,-1,0,-10
84035080391,-10,3,-5,-3,-3,-1,0,0
84035081901,2,3,-2,-2,0,0,-1,-1
84035081901,22,5,5,-1,0,-1,-1,-1
84035094488,-11,-26,-10,0,-2,0,-1,0
84035094488,-4,2,2,0,1,0,-1,-10
84035101354,7,12,-5,2,1,-1,-1,-14
84035101354,-3,-21,-1,-2,-1,-1,2,3
84035117806,18,13,3,-1,-1,-3,-3,19
84035117806,-2,4,-2,-2,-2,0,2,-16
84035119298,-5,0,-2,-1,-2,1,-1,3
84035119298,0,8,5,0,1,-1,-2,5
84035140302,-1,-10,-3,-1,0,-1,-2,-4
84035140302,2,-1,-4,-3,0,-1,0,-2
84035141851,8,-1,1,0,-1,-1,-1,9
84035141851,-13,2,-2,1,-2,-1,-4,-8
84035155396,-9,4,-1,-3,-1,2,-1,-4
84035155396,-22,-19,-5,-2,-2,-1,-2,1
84035156902,-20,15,0,-1,-1,-1,-2,-14
84035156902,-31,-4,-1,0,-1,0,0,11
84035177727,5,24,6,0,0,0,-1,-2
84035177727,11,-5,0,1,-1,0,-2,5
84035179324,-6,-5,-6,-4,-1,-1,4,30
84035179324,2,-2,0,0,0,-1,-1,-10
84035200115,0,-4,-2,-1,-1,-2,-1,4
84035200115,3,5,2,0,-1,-1,-2,7
84035201799,10,-4,0,-2,-2,-2,-2,-15
84035201799,11,14,-3,-2,-2,1,1,-2
84035214525,-20,3,-2,-3,-2,-1,1,4
84035214525,11,7,0,-1,0,-2,-1,-8
84035228783,-6,-11,-2,-1,0,-2,-2,-5
84035228783,5,0,2,1,1,1,0,-1
84035237923,0,-4,-1,-3,-3,-2,-2,-7
84035237923,-8,-4,-1,-3,-1,-4,-2,2
84035239439,1,8,-2,-1,-2,-2,-2,-8
84035239439,11,10,0,-2,0,-3,-2,-3
84035260463,3,-5,-6,-2,-3,0,0,3
84035260463,-2,-5,-1,-1,-2,-3,-2,20
84035261893,-10,28,7,2,-1,0,0,-14
84035261893,3,-14,-2,-1,0,-1,-1,-6
84035274420,8,-11,-1,1,-2,-2,2,8
84035274420,10,-6,-3,-1,-1,0,0,-2
84035282809,-12,4,2,-1,0,0,-2,-7
84035282809,-10,-6,-4,-3,0,-2,-2,1
84035297689,9,-4,-2,-2,1,-2,-1,30
84035297689,6,9,1,0,-2,0,-1,0
84035299391,1,-14,-1,-1,0,-2,-3,0
84035299391,2,1,0,-1,-1,1,2,4
84035320386,1,-25,-4,-2,-3,-1,-1,-10
84035320386,8,-5,-4,-4,-4,-2,2,9
84035321799,8,-8,-3,-3,1,-2,-1,1
84035321799,-9,-4,-2,-1,-1,-1,-2,-11
84035334552,-4,10,4,1,-1,0,-2,-16
84035334552,1,0,-3,-1,0,-1,0,-3
84035341574,-2,-8,-2,0,-2,-1,-1,-12
84035341574,-1,15,1,1,-1,0,2,12
84035357749,19,-5,-3,-1,0,-1,-2,4
84035357749,-3,9,-3,-1,-2,-1,-2,-20
84035359292,-14,-6,-1,-1,0,-2,0,29
84035359292,-2,2,2,2,0,-2,-1,-4
84035380397,-5,-11,2,0,-1,-1,0,1
84035380397,-12,-9,4,1,2,-1,2,-10
84035381848,8,8,-8,-2,-1,1,0,-6
84035381848,-10,-4,-2,-2,-2,0,-3,-2
84035394564,-6,4,-4,-3,-1,-1,-2,-1
84035394564,-1,-1,0,-2,-1,0,-2,-4
84035401456,1,3,0,-1,-2,0,0,-3
84035401456,-14,-12,-4,-2,-3,-3,-6,-10
84035417755,-11,-19,-3,-1,0,1,1,-10
84035417755,-10,-39,1,-3,-3,-2,-2,3
84035419321,0,-7,-3,-1,-1,-1,-3,-2
84035419321,8,7,-7,-4,-2,-1,-3,1
84035440385,-10,-1,0,-1,-1,-1,-3,-8
84035440385,0,14,-2,1,-2,-1,0,-4
84035441811,-8,-2,4,0,0,-3,-2,-10
84035441811,6,-12,3,1,0,-1,2,-2
84035454769,6,16,2,-2,0,-1,0,0
84035454769,6,3,2,2,2,0,2,4
84035461478,-7,-10,-7,-3,-4,0,-2,-4
84035461478,20,-4,0,1,0,1,1,4
84035477746,-3,16,3,3,0,-1,-2,-7
84035477746,-4,3,-1,0,0,0,-3,0
84035479308,-3,14,1,-2,-1,0,-2,-28
84035479308,16,-20,1,0,-2,-1,3,53
84035500147,-1,22,-5,-3,-2,0,-1,-9
84035500147,4,9,-4,-1,-2,-1,-2,5
84035504149,8,12,3,-1,-1,-1,0,-1
84035504149,-10,9,-1,-4,-1,-1,-2,-14
84035514481,11,1,-1,-2,0,-2,-1,2
84035514481,-10,-6,1,1,-1,0,0,4
84035521331,-8,-16,-4,-1,-1,-2,-1,-8
84035521331,-2,18,0,1,0,0,-3,-10
84035537797,-7,-17,-5,-1,-2,-3,1,7
84035537797,19,9,0,-4,-1,-2,1,1
84035539359,4,-6,4,0,0,-1,-1,6
84035539359,6,4,0,-2,-1,-1,0,4
84035560410,-8,-1,-1,0,1,0,1,-6
84035560410,-6,-7,-5,0,-1,-2,-3,2
84035561813,-1,3,-3,-3,-1,-1,0,3
84035561813,-6,12,0,-3,-2,-2,-2,-14
84035574136,8,-4,0,-1,-1,0,0,4
84035574136,-8,-12,1,0,0,-1,-1,2
84035582886,26,8,-4,-2,-2,-2,-1,2
84035582886,-9,5,-4,-2,-3,1,0,4
84035597900,9,-3,4,0,-2,-3,-2,-6
84035597900,-3,-23,2,-3,-1,0,1,-8
84035599407,-8,27,-6,-3,-3,0,-1,-8
84035599407,1,-9,0,-1,-2,-3,-1,5
84035620252,3,-1,0,0,-2,-1,-2,-5
84035620252,-2,10,-3,1,1,1,-3,0
84035621844,-8,-9,-3,-1,-1,-2,-2,-4
84035621844,0,0,2,-1,0,0,-1,-12
84035634087,-4,-2,-2,-4,0,-1,-1,3
84035634087,-13,7,-3,-1,-3,-1,-1,-5
84035642895,0,-8,3,1,-1,-2,0,2
84035642895,-4,10,2,4,0,0,0,-2
84035657854,0,-9,-3,-3,-1,2,-1,-1
84035657854,-3,4,0,-2,-4,0,-1,-1
84035659338,2,-9,-1,-2,0,-1,0,8
84035659338,2,-3,1,-3,-2,-2,-1,4
84035680293,-1,5,2,-1,-2,0,0,-14
84035680293,1,0,-5,-1,-1,-3,0,8
84035681877,5,-9,2,2,-1,-3,-1,10
84035681877,-7,2,-4,-3,-2,-3,-1,-3
84035694037,-5,-4,-1,2,1,-1,-4,-7
84035694037,8,1,-4,-5,-4,-1,-3,-3
84035702840,2,19,1,1,1,-1,0,-20
84035702840,-1,-20,-3,-1,0,2,1,22
84035717753,14,16,3,-1,-2,-1,2,5
84035717753,-3,-22,-2,0,1,-1,-1,0
84035719330,-8,0,0,1,1,0,-1,-3
84035719330,4,4,-2,-1,-3,-3,-2,-13
84035740313,0,-9,-2,-5,-3,0,1,16
84035740313,2,5,-3,-2,-2,-1,-1,13
84035741832,4,-11,0,-3,-2,0,0,-10
84035741832,-4,2,1,-1,-1,-1,-2,-2
84035754067,-10,-5,0,0,1,-2,-2,-3
84035754067,5,-2,-6,-4,-3,-3,-2,1
84035762836,-5,-12,-3,-3,-3,-2,-2,8
84035762836,-15,-7,-4,0,-1,-3,-2,-11
84035777847,-4,7,-2,-3,-3,-1,-1,-10
84035777847,0,14,2,-1,1,0,0,-2
84035779354,-6,-6,-2,1,0,0,-1,-6
84035779354,6,-3,-3,-5,-2,1,3,28
84035800312,-9,2,-2,1,0,-2,-3,-4
84035800312,10,4,1,-2,-1,-2,-1,-7
84035801829,0,8,1,0,-2,0,-1,0
84035801829,5,-3,-2,0,1,0,-4,-16
84035813896,13,7,0,-2,0,1,5,27
84035813896,-4,-22,-2,-2,-2,-1,-1,-1
84035822825,-2,-4,0,1,-1,-3,-1,6
84035822825,-6,2,-2,1,0,-1,-1,-9
84035837733,-7,-6,-4,-2,-1,-2,-2,1
84035837733,6,2,1,0,-2,-1,-2,-8
84035839298,3,0,5,0,-2,0,1,5
84035839298,-8,0,-3,-2,-1,-1,-1,-17
