timestamp,emg1,emg2,emg3,emg4,emg5,emg6,emg7,emg8
59465748969,0,-3,-1,0,-1,-1,-2,-2
59465748969,-2,-1,-2,0,-3,0,-1,1
59465750804,-1,-3,-2,-1,0,-2,-3,1
59465750804,-1,-1,-1,-1,-1,0,-1,-1
59465763989,-3,-1,-3,-3,-1,-2,0,-2
59465763989,-1,-3,-2,-2,0,-2,-1,0
59465765589,-1,1,0,-2,-1,-1,-1,0
59465765589,-1,-1,0,-2,0,0,0,0
59465786448,-1,0,1,0,-1,-1,0,-1
59465786448,1,-1,0,-2,-3,-1,-1,-3
59465788033,-1,-1,-1,-2,0,-1,-1,0
59465788033,0,-1,-2,-2,-2,-2,-1,-3
59465808992,-1,-2,-1,-1,-2,-1,0,1
59465808992,0,-1,-3,-1,1,1,-1,0
59465810606,-1,-2,-1,-2,-3,0,-2,-1
59465810606,-2,0,-1,0,-2,0,-2,-2
59465823966,-2,-2,-3,-2,-1,-2,0,0
59465823966,-1,0,-1,-1,-1,-2,0,-3
59465825615,1,-2,0,-2,-1,-1,1,-1
59465825615,-1,0,-3,-3,-2,0,-3,-1
59465846434,-1,0,-3,-1,-1,-1,-4,-2
59465846434,-1,0,-2,0,0,-1,-1,-3
59465848050,0,0,0,1,0,-1,-2,2
59465848050,-1,-2,0,1,-2,-1,-1,-2
59465868977,-1,-1,-2,-1,0,-1,0,-1
59465868977,-1,0,0,-3,-2,-2,-1,0
59465870625,-2,-2,-1,0,0,1,-2,-2
59465870625,-1,-3,0,-1,1,-2,-1,-1
59465883505,-1,-2,0,-1,0,0,-2,2
59465883505,-2,-2,0,-2,-1,-2,-1,1
59465890355,-1,-1,-2,-1,0,-1,0,-1
59465890355,-1,-1,1,-1,-2,-1,-2,-2
59465906559,-1,-2,-1,2,-2,-2,0,-1
59465906559,0,0,1,-1,-1,-1,0,-3
59465908107,0,-1,-2,-2,-3,-3,-1,0
59465908107,1,-1,-1,-1,0,-3,-1,1
59465929033,0,-1,-2,-2,0,0,-2,0
59465929033,0,-1,-1,0,-1,-1,-2,-2
59465930677,-2,-2,-1,-1,-2,0,0,-4
59465930677,-1,-1,-2,-2,-2,-3,0,0
59465943464,0,0,0,-1,-3,-1,-1,-3
59465943464,0,-3,-1,1,-1,-1,-1,1
59465950364,-2,0,0,-1,0,-2,-2,-3
59465950364,0,-2,-1,-1,0,-2,-1,-3
59465966477,-1,-3,-1,-1,0,0,-2,0
59465966477,0,-2,-1,-1,-1,-1,-1,0
59465967986,-2,1,1,0,-1,0,-1,-1
59465967986,-1,-2,0,0,0,-1,0,0
59465989057,-2,-1,-3,-2,-1,0,1,-3
59465989057,0,-1,-2,0,-3,0,1,-2
59465990630,0,-3,0,-2,-2,-2,0,1
59465990630,-2,1,-2,0,-2,1,-2,-2
59466003395,1,-1,1,-2,0,-1,-2,-2
59466003395,-3,0,0,-2,-1,0,0,0
59466010109,-2,-1,-1,1,1,0,1,-1
59466010109,-2,-3,-1,0,-3,-1,-2,-1
59466026445,0,0,-2,-2,-1,-2,0,-1
59466026445,0,0,-3,-1,-2,-1,-3,-2
59466028061,0,-1,-1,-2,0,-1,-2,0
59466028061,-1,-2,0,0,-1,-1,1,-1
59466049007,-1,0,0,0,0,-2,1,-2
59466049007,-2,0,-1,-1,0,0,0,0
59466050600,-2,-1,0,-1,-1,-2,-2,-1
59466050600,-2,-1,-3,1,-2,0,-2,-2
59466063384,-1,-2,-1,-1,0,-1,-1,-1
59466063384,-1,-2,-2,1,0,0,0,-2
59466070109,0,-2,0,0,-1,1,-1,-2
59466070109,-3,-1,0,0,-1,-1,-1,1
59466086460,-1,0,-1,-3,-2,-5,-2,0
59466086460,-1,-1,-1,-1,1,-2,-1,-2
59466088057,0,0,-3,-1,-2,-1,-1,0
59466088057,-2,1,-2,-1,0,1,0,-3
59466109007,-2,-2,-3,-2,-3,0,-2,-1
59466109007,-3,-2,-1,0,1,0,-2,-1
59466110588,-1,-1,-2,-2,-1,-3,0,-1
59466110588,0,1,-2,-1,-2,-3,0,1
59466123511,0,0,-1,0,-1,0,-1,-3
59466123511,-3,0,-1,-3,-3,-3,-2,-2
59466130389,-1,-2,-2,1,-3,-2,-1,-1
59466130389,0,-1,-1,-2,-1,-2,-2,-2
59466146631,1,-1,-2,-2,-1,-2,1,1
59466146631,-1,-1,-1,0,2,-1,1,0
59466148020,-1,-1,0,0,1,-1,-2,-1
59466148020,0,-1,-3,-1,-2,-2,0,-1
59466169191,-2,0,0,-1,-2,-1,0,-1
59466169191,0,-3,-2,-1,-1,-2,-3,1
59466170636,-1,0,-2,-3,0,-1,1,-1
59466170636,-1,-3,-1,-1,-1,-1,-1,-1
59466183425,-1,-3,1,-1,0,-1,-1,-1
59466183425,0,-1,-1,0,-1,-1,-1,0
59466190408,-3,-1,-1,-3,-1,1,-1,-1
59466190408,0,-2,1,-2,-1,-2,-2,0
59466206521,2,-2,-4,1,-2,-2,0,0
59466206521,0,-2,0,-2,-1,-1,0,-2
59466208041,-1,-2,-3,0,-1,-1,-1,0
59466208041,1,-1,-1,0,0,-1,-1,-2
59466229109,-2,1,0,0,1,1,-2,0
59466229109,-2,0,-1,-1,-3,-2,0,0
59466230689,-2,0,-2,-1,-1,-1,0,0
59466230689,-2,1,0,-2,0,0,-2,-1
59466242877,-2,-3,0,-3,-1,-1,-2,-2
59466242877,0,0,-2,-3,-2,1,-1,1
59466251655,0,-3,0,-1,-1,-2,-2,-2
59466251655,-2,0,-4,-1,-2,0,-1,-3
59466266689,-1,-1,0,-1,-3,0,0,-1
59466266689,-1,-1,0,0,-1,0,-1,-1
59466268165,-1,0,-1,1,-2,0,-1,-2
59466268165,-2,-2,0,-1,0,-2,0,0
59466289045,0,-1,-2,-2,0,0,-1,-1
59466289045,1,0,-1,-3,0,-2,-3,-1
59466290664,-3,-1,-1,-2,1,-1,-1,-1
59466290664,0,-3,-2,-2,-1,-1,1,0
59466302852,-2,-1,-2,1,1,1,-2,-2
59466302852,0,-1,-2,1,-1,-2,-1,-1
59466312415,-1,-1,-1,-1,-1,0,0,-1
59466312415,-1,0,1,-1,-2,0,-1,0
59466326555,0,-1,0,-1,-3,-2,-2,-2
59466326555,-2,-1,0,-1,-2,1,-1,-1
59466328150,0,-2,0,1,-2,-1,-2,-1
59466328150,0,-1,-1,-2,1,-1,0,-2
59466349252,-3,-1,0,-2,-1,-2,-1,1
59466349252,-1,0,0,0,1,-2,-1,-2
59466350720,0,-1,-2,-3,-2,-1,-1,0
59466350720,-1,-2,-2,-1,-2,-1,0,0
59466362812,-2,-1,-2,-2,-2,-2,-3,0
59466362812,-2,-3,0,-2,-1,0,-2,-1
59466371667,-2,0,-1,-3,-1,-1,-1,-1
59466371667,0,0,2,-2,-2,0,-2,-1
59466386722,1,0,-2,-1,1,-2,-1,0
59466386722,-1,-2,-1,0,-1,-2,-2,-1
59466388146,1,-2,-2,0,-1,-3,-2,-2
59466388146,-1,-1,-1,1,-2,-1,-1,-1
59466409196,-2,-2,0,-3,-2,-1,-1,1
59466409196,0,0,-3,-2,1,-2,-2,1
59466410588,-1,-2,1,1,0,0,0,-2
59466410588,-1,0,-1,0,-1,-1,-2,-3
59466422854,-2,-1,-2,0,-3,0,0,-2
59466422854,-2,0,-2,-1,-1,0,-2,-1
59466431732,-2,-1,-1,-1,-1,-2,-2,-2
59466431732,-2,-1,0,-3,-1,-1,-2,1
59466446624,0,-1,-1,1,1,-1,0,-3
59466446624,-1,-1,0,0,-1,0,-2,-1
59466448070,-2,0,-1,-2,0,0,1,-1
59466448070,-1,-2,-2,1,0,-2,-1,-1
59466469193,-3,0,0,-2,0,-2,-1,-1
59466469193,0,0,-2,0,-2,-1,-1,-1
59466470634,-2,-1,-2,-2,-3,-1,-2,2
59466470634,0,-2,0,-1,-1,-2,-1,-2
59466491694,-2,-2,-2,-1,0,0,0,0
59466491694,-2,-1,-1,0,-2,0,1,-3
59466493090,0,-1,-2,-1,-2,-1,2,-1
59466493090,-1,-2,-3,0,-2,-2,0,0
59466506479,-1,-3,0,-1,-2,-2,-1,-1
59466506479,-2,-2,2,-2,0,-1,-1,-1
59466508054,0,0,-1,-3,-1,-1,-2,1
59466508054,-2,1,-3,-2,0,0,-2,0
59466529141,-1,-1,-2,-1,-2,-1,0,-1
59466529141,0,-1,0,0,-1,0,-2,-1
59466530561,-2,0,-2,1,0,-1,-2,-1
59466530561,0,0,0,-2,-2,-2,-1,-1
59466542841,0,0,-4,-2,0,0,-1,0
59466542841,1,-2,-2,0,-2,-3,0,0
59466551725,-1,-1,-1,-2,-1,-1,-1,-2
59466551725,-2,-2,-1,0,0,-1,-1,-1
59466566712,-3,-1,-1,0,-1,-1,-1,-3
59466566712,-1,-2,0,-2,2,-1,0,-1
59466568057,-1,-1,0,0,0,-2,-1,-2
59466568057,0,-1,-2,-2,-1,-1,0,-2
59466589294,-2,-2,-1,-2,0,-1,0,-1
59466589294,0,0,0,-3,-3,0,-2,-2
59466590670,0,-4,0,-2,-1,-1,0,-4
59466590670,0,-2,-2,-1,-1,0,-3,0
59466602706,-1,0,1,1,-1,-1,-2,-2
59466602706,-4,-2,-1,-2,-3,-1,1,-1
59466611706,-1,1,1,1,0,-1,1,0
59466611706,-2,-2,-2,-1,-1,-1,-1,-3
59466626594,1,0,-2,-2,-1,-2,-2,-1
59466626594,-2,0,-2,0,-1,-3,-2,0
59466628109,-1,0,0,0,1,0,-2,-1
59466628109,-2,-3,-1,0,0,-1,-1,1
59466649221,0,-1,-3,-1,-2,-3,-1,-1
59466649221,-2,0,-2,-2,-1,-1,-1,-2
59466650645,0,-1,-2,-1,-2,-2,-1,-1
59466650645,1,0,0,0,0,0,0,-3
59466671664,-1,-1,0,-1,1,0,-2,1
59466671664,-1,-2,-3,-1,0,0,1,0
59466673095,-2,0,1,-1,-2,0,-3,-2
59466673095,-1,2,-1,-2,-2,0,0,-3
59466685928,-1,-1,0,-2,0,1,-2,-1
59466685928,0,2,-2,0,-1,-2,0,-1
59466692921,-2,-3,-1,0,-1,-2,1,1
59466692921,0,-1,0,-1,-1,-1,-2,0
59466709068,-1,0,-1,-3,-1,-1,-2,0
59466709068,1,-1,0,-2,-3,-1,-2,0
59466710737,-3,-3,-2,1,-1,0,-1,-1
59466710737,0,-2,-1,-2,-2,-3,-1,0
59466731741,-1,-1,0,0,0,-2,0,-1
59466731741,-1,-1,-2,0,0,-1,-2,-2
59466733119,-2,1,-3,-1,-1,-2,-1,0
59466733119,-3,-3,-1,0,0,-2,-1,-1
59466746699,-1,0,1,-1,-2,-1,-2,-3
59466746699,-1,-2,0,-2,-2,0,0,-3
59466748094,2,0,-1,-2,-3,0,-1,-2
59466748094,0,1,0,-2,-1,-2,-2,-1
59466769192,0,-1,-1,-1,-2,-1,0,1
59466769192,-1,0,1,-2,1,-1,-2,0
59466770706,0,-1,-2,-2,-1,-2,-1,1
59466770706,-1,0,-2,-1,-3,1,-2,-1
59466791666,-2,-3,-1,-3,-1,-1,-2,-1
59466791666,-1,-2,1,-2,-1,1,-2,-1
59466793119,-1,-3,-3,-4,1,0,-1,-2
59466793119,-2,0,-3,-1,-1,0,-2,-1
59466806722,0,-1,0,0,-3,-3,0,-2
59466806722,0,-2,-1,-1,-1,-1,0,-3
59466808099,-1,0,-1,-1,-2,-1,-2,-3
59466808099,-1,-2,-3,-3,-2,-1,1,-2
59466829140,0,-1,-4,0,-1,-1,-1,-2
59466829140,-1,-1,1,-1,0,-1,0,0
59466830652,-1,0,0,0,-2,-2,-1,-1
59466830652,-3,-1,0,0,1,-1,-1,-2
59466851580,-3,-2,0,1,-2,-2,2,0
59466851580,-1,0,0,-2,1,0,-2,2
59466853111,-2,-2,-1,0,2,-1,-2,-2
59466853111,0,-1,-2,-2,-2,-1,-2,-2
59466865963,1,0,-2,-2,0,1,-1,-2
59466865963,0,0,-3,0,-2,-3,-1,1
59466872839,-1,0,1,0,-3,-1,-1,-1
59466872839,-1,-1,-1,-1,-2,-2,-2,0
59466889214,-3,-3,-1,0,0,-2,-1,-1
59466889214,-2,-1,-2,1,-2,-1,-1,-1
59466890709,-1,-1,-1,-1,-2,0,-2,1
59466890709,-1,0,-2,0,-1,-2,0,-2
59466911693,0,-1,1,-1,-2,-2,-3,-1
59466911693,-1,-1,-2,0,0,-1,-1,-2
59466913112,-2,-3,-1,-3,-1,-1,-1,-2
59466913112,0,-1,-1,-2,-1,0,-1,1
59466925975,1,-1,-1,-1,0,-1,-1,-2
59466925975,-1,-1,-1,0,-1,-2,-1,0
59466932840,-1,-2,0,-1,-1,-2,-2,0
59466932840,-1,-1,-1,-2,-2,-2,-2,-2
59466949258,-1,-1,-1,-1,-1,0,-2,0
59466949258,0,1,0,-3,-4,0,-1,0
59466950620,-1,-2,-1,-1,0,-2,-1,-1
59466950620,-2,-1,-1,0,0,-2,-2,-2
59466971627,-2,-2,-2,-2,-2,-1,-1,0
59466971627,-1,-1,-2,-2,-1,-2,-1,-2
59466973105,-1,0,-2,-2,-2,-1,-2,0
59466973105,-3,0,0,-1,-1,-1,1,-1
59466985411,0,0,-2,-1,-1,-1,-1,-1
59466985411,-2,-2,0,-1,-1,-2,0,1
59466993652,0,0,-1,-1,-1,0,-1,0
59466993652,0,0,-1,-2,-1,0,0,0
59467008262,-2,-1,-1,-1,-2,0,0,0
59467008262,-3,-2,-1,-1,-3,0,-1,-1
59467009038,0,-2,-1,0,0,-1,0,1
59467009038,-1,-1,0,-1,0,0,-1,-2
59467030950,-3,-1,0,-2,0,-1,-1,0
59467030950,0,-2,-1,-1,1,-2,-1,-3
59467031597,-2,-2,-1,-1,-3,0,1,0
59467031597,1,-3,-2,-2,-1,-1,1,-1
59467045438,-1,0,-1,2,-1,-2,-2,-1
59467045438,-1,0,0,1,0,-2,-1,-2
59467053463,-2,0,-1,0,0,-2,-2,-2
59467053463,-1,-1,-2,0,-3,-1,-3,0
59467068297,-2,0,-2,1,-1,-1,-2,-2
59467068297,2,0,-2,0,-1,0,-2,0
59467069079,0,1,-1,-1,0,-1,-1,-2
59467069079,0,0,-1,-1,-2,-1,-1,0
59467090761,-1,-1,-2,-4,0,0,-1,-3
59467090761,-2,0,0,0,-1,1,-1,0
59467091541,-2,-1,0,-2,-3,-1,-2,-2
59467091541,-2,-1,0,-2,0,-2,0,-1
59467105114,0,-1,0,-1,-1,-1,-2,1
59467105114,0,-1,-2,-2,0,-3,-2,-2
59467113371,0,0,-3,0,-3,0,-1,0
59467113371,-1,-2,0,-1,0,-2,1,-1
59467136969,-1,0,0,-2,0,-1,-3,-1
59467136969,0,-1,1,-3,-2,0,-3,-1
59467137740,0,0,0,-1,-1,0,-3,0
59467137740,-1,-1,-2,-2,-1,-1,-3,-1
59467150796,1,1,-1,1,-1,-1,0,-1
59467150796,-2,0,0,-2,-2,-1,-2,0
59467151595,-1,-3,-2,0,-1,-1,2,0
59467151595,-2,-1,-1,0,-1,0,-2,0
59467165134,-1,-1,1,-1,-1,0,-2,-1
59467165134,0,-1,0,-1,1,-1,-1,-2
59467173384,-1,-1,0,-1,0,-1,-1,-1
59467173384,0,-1,-1,-2,-1,-3,0,-1
59467188275,-1,0,-1,0,-1,-1,-1,-1
59467188275,-2,0,-1,0,-1,-2,-1,-1
59467195925,-1,0,0,-1,-2,-1,-4,1
59467195925,1,-1,-2,0,-1,-2,-1,-1
59467210751,-3,-3,0,-2,-1,-3,-3,-3
59467210751,0,-2,-1,1,-1,-1,-2,1
59467211541,-1,-1,-1,-1,-2,-1,1,-1
59467211541,-1,-1,0,-1,-1,0,-2,-1
59467225064,-2,0,-1,-1,-1,0,0,0
59467225064,-2,-2,-4,-2,-2,-2,0,-3
59467233645,0,1,0,-1,1,-2,-1,-1
59467233645,-1,-1,2,-1,-1,1,1,0
59467248414,0,0,0,-1,-3,0,-1,-1
59467248414,-1,-3,0,-2,-2,-3,-1,-1
59467249144,-1,-3,-2,-1,-2,-1,-1,1
59467249144,-3,0,-3,-2,2,-3,-1,-1
59467270996,-1,0,1,-3,-1,-2,-1,-2
59467270996,-1,-2,-1,-2,-2,0,-1,-3
59467271622,-1,-2,-3,-1,0,-2,0,-1
59467271622,-1,-2,-1,0,-1,-1,-2,-1
59467294061,-1,0,-2,0,-2,-1,-2,0
59467294061,-1,-1,-1,-1,1,-1,1,-1
59467294813,0,-2,-1,-1,1,-1,-1,-2
59467294813,-2,-1,0,-3,-1,-1,0,-4
59467308475,-1,-1,0,-1,0,-2,-1,0
59467308475,-2,-1,0,1,-2,-1,-1,-1
59467309154,-2,-1,-1,-2,-3,-1,-2,-1
59467309154,-1,-2,-1,0,-1,-2,0,-1
59467339251,0,-3,0,-1,1,-2,0,-1
59467339251,-1,-1,-1,0,-1,-2,-1,-1
59467339812,-1,0,1,0,1,-2,-2,-3
59467339812,-1,-2,0,0,-3,-1,-1,0
59467345428,-1,-1,-1,-3,-1,0,0,-1
59467345428,-2,-2,1,-1,0,-1,-3,-4
59467353591,0,-1,-1,-2,-1,-1,-3,0
59467353591,-1,-1,-1,0,-2,-1,-1,-2
59467368319,-1,-1,-1,0,0,-1,-1,-2
59467368319,0,-3,-1,0,-2,0,-1,-1
59467369189,0,-1,-2,0,0,1,-1,-1
59467369189,-1,0,-1,-1,-1,-2,-2,1
59467390966,0,-1,-2,0,-2,-1,-1,-2
59467390966,-1,-1,-2,-1,2,-1,-3,-1
59467391590,-1,-1,-2,-1,1,0,-1,0
59467391590,1,-1,0,1,-1,0,-1,-3
59467414849,-1,-2,-3,-1,0,0,-1,-1
59467414849,0,-1,0,-8,-5,-1,-2,-1
59467415481,0,-2,-1,2,-2,-1,1,-1
59467415481,-1,-2,-2,0,1,-1,-2,-1
59467428503,-3,0,-2,2,-3,-2,-1,0
59467428503,-1,0,-3,5,-3,-1,-1,0
59467429145,-2,1,0,-3,-2,-1,-1,-2
59467429145,0,0,0,-6,-1,0,-2,-1
59467450893,-1,-2,0,5,-1,0,-3,-2
59467450893,-1,0,-2,-18,-2,-1,1,-1
59467451634,-1,0,-1,3,1,-1,1,-2
59467451634,0,0,-1,-3,-2,-3,-2,0
59467465395,-2,-4,-3,0,-1,-1,-2,-1
59467465395,1,3,1,0,3,-1,1,1
59467473589,0,-3,-4,-29,-6,-2,-1,-1
59467473589,-1,-2,-1,-1,0,-1,0,-2
59467488512,1,0,1,4,-1,-2,-3,-1
59467488512,0,-1,0,-3,-2,0,-1,0
59467489098,-1,0,-2,5,0,0,-1,1
59467489098,-2,-2,-3,-8,-2,-1,-1,0
59467511038,-1,1,0,-2,-1,-2,1,-2
59467511038,-2,0,0,9,0,-1,-2,-2
59467511574,-2,-1,1,-6,-1,-1,-1,0
59467511574,-2,-1,-3,-1,0,1,-2,-2
59467525371,3,-1,1,0,2,-1,-1,1
59467525371,-1,-2,-2,2,-2,-2,-1,-2
59467540945,-1,1,-1,3,-1,-1,-3,-2
59467540945,-2,-1,-1,9,1,0,-1,-3
59467548492,-1,-2,0,3,2,-2,1,0
59467548492,-1,-1,-1,-19,-8,-1,-1,1
59467549139,-2,0,0,18,2,-2,-2,-1
59467549139,0,-2,-3,-8,-1,-1,-4,1
59467570874,-1,-3,-2,-6,-4,-3,-1,-1
59467570874,-2,-2,-1,12,-2,-1,-3,-2
59467571616,0,-1,0,4,2,0,2,0
59467571616,3,-1,3,1,0,0,3,1
59467585155,-1,-1,-4,-16,-6,-3,-2,-1
59467585155,-2,-2,-1,27,3,-1,-1,-1
59467593589,-1,0,1,-16,-4,-2,-1,-1
59467593589,-1,-1,-1,-3,-3,-2,-2,-1
59467608472,-5,-3,-2,-8,0,1,0,0
59467608472,1,0,1,6,4,-2,1,-1
59467609130,-4,-4,-1,-3,-4,-2,-1,-2
59467609130,2,-8,-1,-10,5,4,0,0
59467631044,0,0,-1,17,-5,-1,-2,-1
59467631044,-2,-2,-5,-1,0,-1,-2,-2
59467631646,-5,-7,-2,10,2,-3,1,0
59467631646,-3,0,0,9,-1,-1,0,-2
59467653504,-8,2,0,-1,-3,-3,-5,-2
59467653504,-5,-2,-1,-21,-3,3,-1,-29
59467654115,6,1,-5,1,-8,-6,2,44
59467654115,-3,2,1,10,5,-2,0,-4
59467668295,-7,0,5,0,4,8,2,0
59467668295,4,-1,-1,-7,-4,-7,-2,-12
59467669113,-4,-2,-5,-17,5,6,-2,0
59467669113,-2,2,5,48,3,-4,0,-3
59467690872,4,-2,-4,-77,-33,-6,4,7
59467690872,1,2,0,4,14,4,2,7
59467691660,-7,-15,-2,-17,-11,0,-4,-19
59467691660,-6,1,-3,7,0,-5,-12,2
59467714011,12,1,2,31,8,-18,2,16
59467714011,-2,1,-3,3,-3,9,4,23
59467714780,6,2,-1,-7,0,-1,-5,-38
59467714780,-1,-1,-3,-2,-10,-11,-1,1
59467728551,-4,-3,-2,8,1,-4,1,17
59467728551,6,1,0,-7,-1,5,5,3
59467729117,-1,2,-1,34,16,12,1,3
59467729117,-4,-3,-5,-24,-3,0,2,-10
59467751022,-6,-3,-3,-27,-10,-6,-10,-13
59467751022,-2,-7,-8,12,-2,2,1,-5
59467751615,-4,2,1,-4,0,-24,-3,16
59467751615,4,3,5,13,9,7,-7,-7
59467774045,3,2,3,-6,-7,3,-3,0
59467774045,-14,0,3,-2,-3,-1,-4,-10
59467774830,13,2,7,0,-5,-15,-6,3
59467774830,0,2,3,11,10,3,0,7
59467788377,2,2,4,-10,-13,6,-9,-27
59467788377,-15,-4,-2,20,-7,9,3,2
59467789106,-3,-17,-7,-29,16,11,8,46
59467789106,7,5,3,14,-15,-24,-1,12
59467811007,-7,-2,-6,-7,21,24,3,-29
59467811007,5,-6,-6,-12,-6,-6,-11,8
59467811650,-12,2,-3,7,-12,-35,1,-25
59467811650,0,-7,-7,-4,1,19,6,-1
59467834072,-8,-3,-1,24,3,-21,-3,-11
59467834072,-5,2,2,-15,0,3,-20,-13
59467834836,3,4,-1,10,14,23,10,-4
59467834836,1,0,1,-19,-4,7,-3,-43
59467848538,10,-2,-1,-11,15,-1,-1,22
59467848538,0,-4,-1,20,-24,-8,1,3
59467849113,-2,1,2,23,10,-16,-15,-23
59467849113,-1,-1,-4,-31,-12,17,1,-1
59467871010,-3,0,-1,-9,9,12,4,-5
59467871010,1,2,4,-11,9,-23,-3,-5
59467871666,4,2,-1,12,-9,0,-1,10
59467871666,-12,-3,-4,17,0,7,0,-15
59467894303,-3,0,3,17,-2,-12,-4,13
59467894303,7,-4,-6,-9,-8,1,-14,23
59467894792,-8,2,-5,-7,-5,50,21,-31
59467894792,-4,4,3,20,-10,-58,-14,-3
59467908433,0,-4,-6,-15,4,-7,-3,-3
59467908433,14,1,2,24,-6,-21,-2,0
59467909165,2,0,1,-60,-4,29,-1,0
59467909165,0,-5,-4,26,6,0,2,51
59467931064,-3,5,9,5,0,3,4,-14
59467931064,3,1,3,25,18,20,12,6
59467931629,-11,-1,-1,-9,-21,4,-9,-5
59467931629,9,0,3,-31,9,-29,-5,-3
59467970508,-3,-1,-3,31,9,-5,-4,-2
59467970508,-7,-3,-2,-39,-2,-21,4,-7
59467971142,1,-2,0,13,-19,28,1,2
59467971142,-3,-3,-5,-39,-1,23,0,-8
59467972774,-14,-4,-3,17,3,-20,-9,4
59467972774,-4,0,-6,-58,-20,10,13,-21
59467976078,5,0,4,28,32,0,2,9
59467976078,4,-2,0,22,-4,5,9,4
59467990986,11,-1,-3,-16,-4,1,-8,5
59467990986,-3,-1,-2,-11,7,-17,-2,-1
59467991605,1,2,3,23,-9,-39,-12,1
59467991605,-4,-5,-5,-46,3,25,8,-1
59468014205,-2,-1,-1,16,-3,3,3,-12
59468014205,-8,-13,0,40,17,34,-5,0
59468015665,-2,-2,-5,-11,-3,-4,-3,-4
59468015665,-4,1,-4,-18,-15,-11,1,-6
59468028379,1,-6,-4,-21,25,31,-11,8
59468028379,2,4,3,35,-3,16,17,1
59468029092,1,2,0,4,9,-8,-1,-1
59468029092,-5,-4,-6,-6,-10,-18,-17,-6
59468050948,3,2,-3,5,-25,-15,4,-2
59468050948,-5,-4,-4,-12,8,-13,-10,-1
59468051637,-1,-3,0,-1,-11,-23,-1,-13
59468051637,1,0,2,46,22,17,9,16
59468073914,6,0,-5,-1,-40,3,-1,-1
59468073914,-1,2,-1,-11,7,-13,-10,5
59468074742,-6,-3,-1,-4,-2,11,2,-6
59468074742,2,-2,0,-11,-12,-17,-4,-4
59468088343,-1,0,2,39,39,16,8,4
59468088343,4,-1,-3,-61,-22,-17,-8,-3
59468089073,-2,-1,-1,5,1,2,-4,-5
59468089073,-11,-15,-3,-29,8,-5,-4,-1
59468110937,-1,-1,-4,13,-10,-4,2,-6
59468110937,2,4,3,-12,17,5,2,-2
59468111612,-1,-2,-1,34,-20,-7,-2,10
59468111612,-1,4,-3,-46,-8,13,1,-7
59468134091,-4,-3,1,30,8,-14,-6,-6
59468134091,-5,-1,0,-25,-17,-15,0,-3
59468134821,0,-2,-5,6,14,17,1,2
59468134821,6,5,5,-14,-5,0,0,-1
59468147835,-3,-3,-6,-11,-9,-3,-1,2
59468147835,-1,-2,-4,-7,-5,-1,-1,-3
59468156060,5,3,1,-16,0,-14,-5,-12
59468156060,-3,-2,-3,9,-12,0,-2,-7
59468170979,5,9,-2,-19,15,3,2,2
59468170979,4,-4,3,50,-13,4,4,3
59468171757,-1,0,-3,-28,-2,-6,-4,7
59468171757,-3,-1,1,-32,0,1,-1,-9
59468195637,2,3,-2,-9,-19,-1,0,1
59468195637,-4,-5,-1,18,11,-3,-2,4
59468196254,-4,-3,-1,-42,-21,-10,-8,-3
59468196254,2,6,5,43,6,0,3,2
59468207612,-5,-7,-6,-63,-15,-1,-4,-6
59468207612,1,8,-4,11,7,8,-4,-2
59468215746,0,-2,3,-13,1,-2,2,-1
59468215746,-4,-1,-6,54,8,-2,-8,-1
59468230903,-2,-3,4,22,4,0,-1,-7
59468230903,2,0,-1,9,4,6,-3,11
59468231535,5,4,6,-5,13,3,1,-1
59468231535,3,3,-6,-27,-11,-1,-3,5
59468262747,-1,-1,4,21,2,1,0,-4
59468262747,-2,3,9,-39,3,4,3,6
59468263573,-1,1,-2,-16,-3,-6,-3,-2
59468263573,0,-2,-16,31,9,2,-2,1
59468276496,0,1,13,3,4,-1,-2,-3
59468276496,0,-3,-4,-22,-8,0,-3,16
59468277194,0,3,0,18,13,3,-4,3
59468277194,8,13,-5,-37,-15,0,-7,-4
59468290762,2,-1,8,53,4,0,-1,4
59468290762,-5,0,0,-22,-7,-2,-5,-11
59468291556,5,3,-3,3,-3,-2,-8,3
59468291556,2,2,9,-8,1,1,5,5
59468313966,-1,2,4,31,9,5,-3,2
59468313966,3,3,8,-21,0,1,-5,-4
59468314838,-1,1,3,9,-6,-6,-6,-6
59468314838,-3,-3,8,21,6,0,-6,-2
59468327581,5,5,6,-39,-5,3,4,4
59468327581,-5,-6,-9,40,-8,-5,-8,-8
59468335824,-1,0,0,14,14,4,-3,-1
59468335824,-4,-3,1,-26,-8,-2,-6,-2
59468350775,-2,-3,-3,5,8,-2,-2,0
59468350775,0,4,3,-22,-3,-1,-3,-4
59468351585,0,-3,2,43,6,-1,0,-2
59468351585,1,-1,8,-26,-8,-1,-1,2
59468375541,-1,-4,-2,-16,-9,-3,0,-1
59468375541,-1,-1,-1,25,12,1,0,-5
59468376300,-1,-3,2,-10,-15,-3,-3,0
59468376300,-2,-3,2,-2,5,-2,0,-1
59468387654,-2,-1,-16,13,-5,-3,0,0
59468387654,8,3,7,8,1,-2,-1,-2
59468395924,-6,-8,-9,-3,-6,-4,0,1
59468395924,-9,-8,7,15,-2,-1,1,-1
59468410957,10,4,-1,-21,-2,-1,-1,2
59468410957,-1,-1,-9,14,1,-4,-1,-6
59468411608,-2,1,0,-19,-5,-1,-1,-7
59468411608,-2,-4,-6,-33,-2,-4,2,-2
59468434023,-11,-4,-2,-5,-5,-2,-1,-4
59468434023,6,-7,6,-1,4,3,2,6
59468434787,-5,0,-4,1,-4,-4,2,-1
59468434787,-3,-4,-8,7,-5,0,-1,-5
59468456657,-3,-2,-4,-7,-4,-5,-2,-3
59468456657,-3,4,-16,19,-2,-3,-1,-4
59468457323,-3,-9,1,14,5,6,4,1
59468457323,2,3,-5,9,1,-1,0,0
59468470864,-2,0,6,0,-1,0,0,1
59468470864,-7,-5,-6,-13,-8,-4,-2,-4
59468471566,6,7,-6,15,-3,-7,-7,-1
59468471566,-2,0,-3,8,7,4,2,1
59468494899,1,2,-2,2,-7,-3,-3,1
59468494899,-2,0,2,-16,0,-5,-5,-3
59468495454,-1,-1,-8,-36,-12,-4,-1,-1
59468495454,-5,0,0,57,12,5,2,-5
59468507710,1,-14,-4,-24,-2,1,0,7
59468507710,1,0,13,27,4,2,1,1
59468515886,1,-1,1,-17,-1,-1,-3,-1
59468515886,-2,1,-15,16,-4,-5,-9,-3
59468531050,16,4,17,29,7,1,0,25
59468531050,-11,-6,11,3,0,0,1,-12
59468531646,23,9,-8,-4,-3,0,-3,13
59468531646,6,3,14,9,3,-5,-6,-2
59468554052,-12,-14,-18,-40,-6,1,0,-3
59468554052,7,13,-4,-8,-7,-4,-13,-5
59468554805,-10,9,-4,39,8,1,-4,15
59468554805,2,-17,46,-8,3,13,14,-18
59468576691,-2,17,3,10,-5,-13,-9,31
59468576691,-46,0,-36,13,1,-6,-22,-59
59468577295,0,-10,-26,-69,-15,-2,2,51
59468577295,17,8,5,26,5,4,9,7
59468591025,29,-5,47,-63,-3,1,13,-15
59468591025,-47,0,47,0,-9,-18,-15,-26
59468591551,-26,-7,-90,-11,-6,-6,-8,-7
59468591551,73,-13,59,90,11,-5,20,33
59468614072,-50,6,-74,-35,2,-1,6,-93
59468614072,-12,-40,-9,-5,-32,-17,6,-33
59468614828,-48,-14,-5,-7,-3,-7,10,-5
59468614828,29,24,-48,17,5,-6,-7,-28
59468636719,-71,-15,-3,-23,-32,-12,-34,-23
59468636719,103,4,-66,46,19,11,-10,-22
59468637291,-48,-10,-7,15,18,4,21,48
59468637291,27,7,-67,37,-18,1,-10,88
59468650981,19,-7,17,-7,15,26,3,-2
59468650981,10,-6,-24,-96,-20,-26,11,85
59468651598,50,6,20,88,4,21,-13,-66
59468651598,-59,-16,19,-68,-2,-14,-3,-4
59468675510,41,8,-23,72,2,13,11,71
59468675510,-3,20,19,3,14,-8,-2,0
59468676334,21,-21,45,-66,4,16,12,12
59468676334,-54,4,-45,-51,-24,-34,-27,-30
59468696703,-40,-3,61,87,36,56,6,3
59468696703,-3,-14,-50,-1,20,13,3,31
59468697281,-18,18,77,43,2,-12,-2,-26
59468697281,-7,-5,-16,-12,-26,37,2,-70
59468710746,4,-8,-99,-60,-26,-68,-23,20
59468710746,5,-5,77,68,22,13,7,-2
59468711580,25,7,-12,-19,-7,-21,-7,-8
59468711580,-6,-1,-42,-15,4,-17,-7,-13
59468733938,-5,-6,26,4,-11,7,8,-15
59468733938,-9,4,18,55,-7,17,12,15
59468734709,9,0,-14,-72,-21,-8,-8,-22
59468734709,-9,-9,43,0,15,15,1,13
59468756653,17,-2,-8,16,-6,-15,-7,-10
59468756653,-2,5,-58,-58,0,-3,1,10
59468757302,1,-9,-21,-46,-12,-3,-3,7
59468757302,12,11,-31,3,7,-1,-3,17
59468770743,-17,-2,0,-15,6,-3,4,-10
59468770743,6,4,-23,-20,-2,4,2,20
59468771550,-5,-8,11,70,9,4,-3,-11
59468771550,4,0,-12,1,-1,-6,2,29
59468793905,0,4,-7,-76,-5,-4,3,1
59468793905,-8,-6,-2,13,-4,5,5,-1
59468794773,12,7,-2,44,5,-2,-3,-3
59468794773,6,0,26,-8,2,-8,-1,35
59468816470,19,3,-7,2,2,0,-1,-2
59468816470,3,-5,-1,40,-1,1,-1,-7
59468817297,4,4,5,-7,1,-1,2,-6
59468817297,-11,-8,-11,-23,-2,1,-3,-12
59468830824,6,1,-4,5,-4,-5,-3,-14
59468830824,-6,0,6,-31,-5,1,0,22
59468831597,-1,-6,-19,3,-1,-4,-4,-2
59468831597,26,-1,21,9,3,3,0,-31
59468853990,24,3,-3,-66,-21,-7,-2,37
59468853990,-5,4,16,14,4,-5,-2,-14
59468854789,-6,2,-8,-13,-1,0,0,-12
59468854789,-16,-6,-8,-14,2,1,0,-10
59468876520,4,1,10,8,3,3,3,10
59468876520,1,2,0,-39,-4,-6,1,5
59468877274,-3,0,-4,-4,5,9,-2,18
59468877274,7,-1,-4,21,0,-5,4,-8
59468890903,10,5,4,23,5,-7,-3,3
59468890903,5,2,7,-12,-7,0,-2,-17
59468891565,1,-2,5,43,4,1,2,-2
59468891565,-14,-2,7,-26,1,2,-2,-7
59468913905,11,5,9,45,8,4,8,8
59468913905,27,-3,-31,-7,-10,-4,-7,-3
59468914748,-35,-5,3,20,1,-6,0,0
59468914748,-5,0,-1,12,-3,1,-8,-11
59468936465,-3,-5,5,16,-1,-6,0,-3
59468936465,-8,0,-5,-3,-1,1,2,-4
59468937258,25,4,-4,9,2,-3,-2,-6
59468937258,-11,-3,3,-31,-10,-3,-3,6
59468950850,-10,-4,-9,18,10,0,-2,-14
59468950850,-7,-1,10,-24,-13,-2,-6,-47
59468951644,4,-3,2,16,1,0,0,5
59468951644,-7,-1,10,-9,0,-3,1,-1
59468974000,10,-1,-6,13,-3,-4,-3,0
59468974000,-10,-4,9,5,5,2,0,2
59468974748,2,-5,-6,-42,-9,-2,-1,-2
59468974748,-6,-3,-7,16,-6,-2,-3,-5
59468996544,8,-3,1,-2,1,1,1,-11
59468996544,11,5,11,0,5,2,1,7
59468997322,-9,-1,-3,23,-2,-1,0,-6
59468997322,-2,-1,0,-30,-6,-3,-1,14
59469010713,-32,-6,-6,7,-1,1,-4,-10
59469010713,-14,1,7,23,3,0,2,-10
59469011508,9,-1,1,-9,3,0,-2,3
59469011508,-14,-4,-10,-43,-9,0,0,-6
59469034044,23,2,5,29,1,3,3,3
59469034044,-7,-1,-1,-10,-2,-4,-3,10
59469034823,-1,-1,-4,-24,-5,-5,-5,-1
59469034823,-9,-4,2,17,1,3,3,-5
59469056491,-1,0,-2,-2,1,-5,0,6
59469056491,2,-4,-1,2,-1,-5,2,15
59469057245,17,0,2,-15,1,2,-1,-8
59469057245,1,-2,-1,31,0,-3,-5,-4
59469078995,-11,-6,-4,-14,-5,0,-2,-3
59469078995,3,0,1,23,-1,0,-3,-1
59469079784,1,1,1,-1,0,-4,3,5
59469079784,3,0,2,-9,4,0,-1,0
59469093929,2,-1,-1,-3,2,8,3,1
59469093929,-6,-2,2,20,0,-4,-1,3
59469094697,0,0,2,-24,-4,-2,-2,-5
59469094697,1,-1,-3,45,-3,-6,-2,5
59469116447,-3,-4,1,2,4,-5,-8,-3
59469116447,-2,-1,-4,-33,-5,4,1,3
59469117228,3,2,-1,30,-1,3,1,1
59469117228,-2,0,4,-21,2,2,4,-1
59469138963,4,3,1,0,-12,-12,-9,-4
59469138963,0,-4,-3,4,1,-6,-4,2
59469139708,2,3,1,13,6,5,3,6
59469139708,0,-1,2,4,1,-5,4,-1
59469152572,-4,0,0,-7,0,23,1,-3
59469152572,-4,-2,-3,-8,-6,-12,-1,-3
59469161545,-15,-6,-2,14,-5,-9,-5,-8
59469161545,11,4,2,-10,0,-1,-2,3
59469176438,-5,-2,-7,-25,-9,-11,-4,-1
59469176438,5,3,3,16,9,13,1,4
59469178045,-9,-2,0,-35,-3,1,0,0
59469178045,3,-3,-5,2,-5,0,-2,0
59469190169,3,4,4,-6,3,-1,3,1
59469190169,-4,-1,2,2,-3,0,-2,1
59469199006,1,-3,-6,-6,-11,-7,-4,-3
59469199006,-2,-2,1,23,12,6,-2,-1
59469212653,-1,-3,-2,-12,-5,-13,-4,-3
59469212653,-3,-1,-2,10,-4,1,3,-1
59469221569,2,-2,-4,-29,8,4,-2,-4
59469221569,0,-1,0,-21,-10,-1,-1,1
59469236784,-7,-3,1,43,8,4,-1,1
59469236784,4,2,0,-23,-4,0,-1,0
59469238094,-4,-3,3,-6,-5,-9,-2,0
59469238094,-4,-2,-7,7,6,0,-2,0
59469250240,-16,-3,3,15,-3,-2,3,-1
59469250240,21,2,-2,-18,1,1,-1,0
59469259074,1,-2,-9,-35,0,4,-3,-3
59469259074,-2,-2,3,11,-1,-4,-1,-1
59469281611,-3,-1,0,12,-5,-5,-1,-1
59469281611,-8,-3,0,0,-3,-2,-4,-6
59469283106,-5,-1,-1,13,-1,2,2,-1
59469283106,1,-1,-1,-15,-2,0,-2,0
59469296434,3,-1,-5,-39,-1,0,-1,-2
59469296434,-3,-2,2,27,3,4,1,2
59469297988,4,-1,-4,-13,-1,-1,0,1
59469297988,-5,-1,-5,0,-9,-7,-2,0
59469310139,3,0,1,-19,7,0,3,-1
59469310139,-5,-3,-6,53,1,-1,-3,1
59469319159,0,1,5,17,-1,-2,1,0
59469319159,2,0,-1,-10,-2,-1,1,0
59469333479,1,-1,1,-12,-5,-2,-3,-2
59469333479,-5,-4,-4,-8,1,-1,-2,-1
59469340122,1,-1,-8,15,-6,-4,-5,-2
59469340122,-11,1,2,-7,8,1,-2,-3
59469356537,7,3,2,-1,-12,-2,-1,1
59469356537,3,-1,-4,-17,-2,1,2,2
59469358092,3,0,2,29,3,-2,-4,-1
59469358092,-5,1,-34,-17,-3,1,0,-3
59469370338,-1,-6,76,21,5,-1,1,2
59469370338,-6,-2,-2,-20,-3,-1,0,1
59469379069,5,-2,-1,5,-4,-1,-5,-3
59469379069,1,0,-6,-7,-3,0,-1,-1
59469393273,-2,4,-35,-3,1,0,-2,-4
59469393273,-10,-3,16,-13,-7,1,1,-1
59469400125,5,-4,-1,-9,2,-1,0,-1
59469400125,0,1,-3,2,-5,-1,-2,1
59469416487,3,1,-25,4,1,-1,-5,-4
59469416487,-9,2,-6,-13,-4,-3,-3,-3
59469418038,-1,-5,-2,-11,1,1,3,0
59469418038,5,0,-10,14,4,-1,-1,-1
59469430170,-4,-3,14,-46,-18,-1,1,1
59469430170,5,4,-6,20,11,3,2,-1
59469439149,-16,-1,-57,4,-6,-2,-3,-2
59469439149,8,-2,7,-5,-1,-3,-3,-2
59469453462,-3,-3,-7,8,9,0,0,0
59469453462,-3,-4,1,-10,-9,-3,-2,0
59469467647,-7,-2,-3,-11,-2,-2,-4,-1
59469467647,-11,-4,15,-8,-1,0,0,-1
59469483967,18,6,-13,27,7,2,2,2
59469483967,-2,-1,-5,-9,-3,-1,-1,-3
59469485633,-1,0,13,7,0,-1,0,-3
59469485633,5,2,4,15,-2,-1,1,1
59469490091,0,-4,1,9,-4,-1,0,-2
59469490091,1,0,-6,-6,2,-1,-2,-1
59469506537,3,2,17,-10,0,1,3,0
59469506537,0,0,7,6,-7,-5,-4,-5
59469512608,-9,-4,-18,-4,3,1,0,-1
59469512608,1,-3,4,8,0,3,2,0
59469521601,5,2,0,10,-1,-5,0,-2
59469521601,-6,-4,-6,-38,-5,-1,1,-2
59469536760,-8,-5,-9,4,-11,-5,1,-2
59469536760,-3,-3,-3,21,3,-5,-4,-2
59469538109,0,3,9,1,-1,3,2,4
59469538109,2,0,7,0,-2,-1,-3,2
59469559036,0,1,2,2,1,-1,-5,-3
59469559036,3,0,2,-38,-7,-2,0,1
59469560719,1,-1,2,30,0,-3,-8,-6
59469560719,4,1,12,7,4,3,-2,2
59469573245,0,2,0,-9,4,2,-2,0
59469573245,0,-1,4,-5,-9,-4,-6,-2
59469580135,0,-1,2,-4,6,0,0,-1
59469580135,-1,-1,-2,-11,-2,0,0,2
59469596441,-3,0,6,10,4,0,-1,1
59469596441,-2,-3,-7,-9,-6,-3,-5,-1
59469598110,1,1,1,28,1,-1,-1,1
59469598110,-2,-3,-2,-44,-16,0,-2,-3
59469619155,-4,-2,-7,6,3,-3,2,-1
59469619155,0,1,-3,-16,3,1,0,0
59469620688,-3,-3,5,-23,-3,4,-1,-1
59469620688,-2,-3,-4,37,0,-4,-1,1
59469632690,-1,0,-1,-7,-1,-13,-5,-3
59469632690,-2,-3,-2,1,-4,-5,-1,-2
59469641591,8,7,5,-5,3,11,2,3
59469641591,-7,-6,2,21,1,0,-2,-2
59469656497,-2,0,-1,-22,-6,-1,-3,-3
59469656497,3,-1,-1,14,4,-6,-3,-2
59469658081,0,-1,-2,-21,-7,-8,0,-2
59469658081,1,1,5,21,8,2,0,1
59469678967,-19,-2,-6,3,5,17,0,-2
59469678967,-1,2,1,-3,1,-16,-1,0
59469685172,-6,-3,-4,2,-2,-1,-2,-6
59469685172,4,-1,-6,-8,-2,-2,-2,6
59469692589,-1,-5,-4,-3,-8,-4,4,0
59469692589,-2,-1,-1,5,2,9,3,2
59469707691,-2,-1,0,-8,-5,-6,-7,-4
59469707691,-1,0,0,0,5,-6,1,-1
59469716676,4,1,0,0,1,-7,-4,-3
59469716676,1,-1,-1,12,-5,3,-1,0
59469718099,-4,-2,0,-2,-4,4,-3,3
59469718099,-2,-2,-4,-5,-1,2,1,-7
59469739040,2,-3,1,0,-1,-4,-5,1
59469739040,-3,-1,0,4,5,-9,3,1
59469740612,4,1,0,10,0,13,3,1
59469740612,2,2,1,-6,0,2,0,-1
59469752619,-12,-17,-1,0,-4,-3,-6,-5
59469752619,-3,-1,1,1,-13,-5,3,-2
59469761572,-4,1,-1,-9,4,-12,-7,-4
59469761572,5,1,2,9,0,14,2,6
59469776457,-10,2,-3,5,13,13,3,-2
59469776457,-3,-3,0,-5,1,-13,-8,-1
59469778009,-2,-5,-2,-1,-6,-3,4,0
59469778009,-2,-1,-1,-4,3,-4,-1,-1
59469799046,-1,0,1,1,-8,-4,-5,-1
59469799046,0,-1,0,-2,0,6,-3,-2
59469800590,-2,2,-2,0,-3,-13,-1,-1
59469800590,-12,-15,-4,-5,1,1,-3,-3
59469812587,4,2,-4,-3,-5,0,4,4
59469812587,0,0,-1,0,1,0,0,-2
59469821632,3,2,2,0,-3,4,-5,3
59469821632,0,3,1,2,1,-7,-1,-3
59469836483,6,2,1,-3,-1,9,1,-1
59469836483,0,-2,3,2,1,-4,-2,1
59469838142,2,-1,0,0,0,3,-1,2
59469838142,-2,1,2,-4,-4,-9,-7,-5
59469859025,6,3,-1,-2,-1,2,0,2
59469859025,2,4,3,3,5,12,2,-1
59469860543,-5,-7,-6,-3,-8,-13,-1,-2
59469860543,-2,0,-3,-2,3,4,1,-1
59469872630,3,-1,-1,1,-2,-9,-2,1
59469872630,-2,-2,-3,-4,-3,2,0,-3
59469881596,-6,-4,-6,-1,-1,-7,2,-2
59469881596,-8,-4,-9,-3,-3,1,4,-1
59469897923,-3,-3,-12,1,-2,-11,5,-5
59469897923,-2,-3,-8,-2,-1,3,1,1
59469899584,5,6,-5,-4,2,-6,1,-2
59469899584,-7,-5,-5,-1,-9,-5,-4,-4
59469919192,-5,-3,-1,1,-3,0,4,0
59469919192,-2,-2,-5,0,1,5,5,-1
59469920687,1,-2,-3,-3,-3,2,0,-2
59469920687,0,0,-5,-4,-3,-14,-1,-2
59469932604,0,-3,-4,0,1,2,1,0
59469932604,-1,-4,-4,-1,-1,0,0,-1
59469941569,4,-6,0,3,2,6,-6,0
59469941569,-4,7,4,2,3,2,-3,1
59469956504,0,-1,0,-4,-5,-1,-6,-3
59469956504,0,-1,0,3,1,4,-4,-1
59469958124,9,3,8,-3,7,5,-1,2
59469958124,4,-2,3,5,0,-2,1,2
59469978959,6,3,-1,-12,-4,-3,-8,-2
59469978959,-3,0,0,0,-5,0,-5,0
59469980500,-13,-17,-1,3,-2,3,2,-1
59469980500,2,1,3,0,0,-2,-1,1
59469992582,1,2,3,5,3,-4,0,0
59469992582,0,-5,-5,-4,0,1,-1,-1
59470001602,-4,0,-4,1,-2,11,-1,-3
59470001602,3,0,-2,-1,1,-12,-7,-1
59470016410,1,-1,5,7,-1,-8,3,4
59470016410,1,0,-2,-3,-3,6,1,0
59470018098,1,4,5,0,-1,-6,-1,0
59470018098,0,1,-4,-5,-5,-3,-4,-3
59470038958,-3,-2,-5,-9,-4,2,-2,-2
59470038958,1,1,-1,3,5,-1,2,0
59470040559,-1,-1,0,-2,-1,3,0,0
59470040559,-4,-3,0,-2,-3,2,-2,-3
59470052612,2,-1,3,-4,-1,-5,-5,-1
59470052612,-2,1,0,4,-6,-9,-5,-1
59470061566,-3,-3,-2,-7,0,0,0,0
59470061566,3,2,0,0,1,-2,2,0
59470076426,-2,-1,1,0,2,8,-1,0
59470076426,1,-1,4,-2,-2,4,3,0
59470078028,-2,-1,-2,4,1,-4,-5,-1
59470078028,-6,-7,-6,-3,-6,21,9,-4
59470098033,1,0,-3,-2,-10,-45,-3,-4
59470098033,0,0,3,-3,9,17,-8,-2
59470114760,-3,0,-2,2,-3,1,4,1
59470114760,-1,-2,1,-4,-2,-12,-5,0
59470115560,1,-1,-4,2,3,23,-1,-1
59470115560,-2,-1,-5,-1,-5,4,1,-3
59470121551,-1,-1,-1,-4,-9,-27,-6,-2
59470121551,0,-3,-2,-3,6,16,4,0
59470136462,-1,0,2,2,-2,-17,-2,-1
59470136462,1,-1,4,-2,0,-6,-4,-1
59470138036,0,0,-1,-1,2,12,3,-1
59470138036,1,-1,-3,-1,-6,-6,-4,-2
59470166521,-4,-2,-3,-2,2,11,1,-1
59470166521,1,0,0,-2,-1,-7,0,0
59470168125,-2,-2,0,0,-1,2,-1,-2
59470168125,2,1,-1,-1,-1,-12,-3,-2
59470172584,-1,0,0,-4,0,8,-1,-1
59470172584,-2,0,-2,-1,-3,-8,-2,-1
59470181609,0,0,-3,-1,-2,-1,-1,0
59470181609,1,0,-2,-2,1,1,-2,1
59470197035,-1,-1,0,2,-1,9,-3,-2
59470197035,-2,-3,-4,-1,-1,-15,-3,-1
59470198511,-2,-1,1,-4,-3,-4,1,-2
59470198511,-3,-1,-2,-1,-1,3,0,-1
59470226571,-2,-1,-2,1,0,9,2,-2
59470226571,-3,-3,0,-1,-1,-2,1,-2
59470228171,2,2,1,-3,-1,-9,-2,0
59470228171,-1,0,-1,1,-1,1,-2,1
59470232679,-2,-3,-3,-2,-2,1,1,0
59470232679,0,-3,-1,-2,-1,8,-1,-3
59470241531,-1,0,-2,-2,-1,-15,-4,-3
59470241531,2,0,0,-2,-1,0,-1,-2
59470255960,-1,-3,0,-2,0,1,-1,-1
59470255960,0,1,-2,-3,-2,-5,-1,1
59470262653,-3,-3,-2,1,-1,5,0,-1
59470262653,0,-1,1,-2,-2,-5,1,-3
59470278924,-1,-1,-2,-2,-3,-3,-4,-1
59470278924,-1,-1,0,0,0,-1,-1,-3
59470280565,-2,-2,0,-1,-1,3,2,0
59470280565,-1,-1,0,1,-1,-1,-3,0
59470292668,-2,-1,-1,-1,-1,-1,-2,-2
59470292668,-1,-3,-2,-1,-3,-8,-1,0
59470301614,1,0,-3,0,2,9,2,2
59470301614,0,-1,2,-1,-1,-3,-2,0
59470315902,-1,-1,0,-1,0,-2,2,-2
59470315902,-3,1,-3,-1,-4,-3,-2,1
59470322691,0,-2,1,-1,-2,-1,-4,-3
59470322691,0,0,-2,-2,-1,-1,-1,1
59470338884,1,0,-2,-1,-3,-2,-2,1
59470338884,0,0,-2,-3,-1,-2,1,-1
59470340503,-2,-3,-2,-1,-1,-2,1,-4
59470340503,0,-3,-1,-2,-1,-1,-1,-2
59470352621,-1,-1,-2,0,-1,-3,-3,-3
59470352621,-2,-1,0,-1,-2,0,0,-1
59470361527,-2,-1,-5,-1,-2,-1,-1,-2
59470361527,-2,-2,-1,0,0,-2,-2,-3
59470375772,-3,-1,-2,0,-2,-1,0,1
59470375772,0,-2,-1,0,1,1,0,-1
59470382654,-2,-1,-2,-1,-2,0,-1,0
59470382654,-4,-2,1,0,-4,-1,-1,-2
59470399353,1,-1,-2,-2,-1,-1,-1,0
59470399353,-4,-1,1,-2,-2,0,-2,0
59470405070,-3,-1,0,-1,-1,-2,-1,0
59470405070,-1,-2,-5,0,-2,-2,-1,1
59470412667,-6,-2,0,0,-2,-1,0,-2
59470412667,4,0,-2,-2,-2,-2,-3,-1
59470421524,0,-1,0,-2,-2,0,-1,1
59470421524,1,1,-2,0,1,1,0,0
59470435755,-3,-3,-2,0,0,-2,0,0
59470435755,-2,-1,-2,-1,0,-1,-2,-1
59470442680,-1,-2,-1,1,0,-1,-1,0
59470442680,-1,0,-2,-2,-2,-1,-2,-1
59470459078,0,0,1,-1,0,-1,-2,-1
59470459078,-1,-1,0,-1,1,0,0,1
59470460547,0,-1,0,0,0,-1,-1,-2
59470460547,0,0,-1,-2,-1,-1,-3,-1
59470481437,-1,-2,-2,0,-2,0,0,-1
59470481437,0,0,-1,-2,-3,-1,-1,-3
59470483029,3,6,-1,0,-1,-3,0,-1
59470483029,-6,-13,-2,0,-2,-1,-2,-1
59470495834,-2,-1,-3,-3,-1,-2,-3,-1
59470495834,-2,0,-2,0,-2,0,-2,-2
59470519619,-2,0,1,-2,0,1,0,-1
59470519619,1,2,-1,0,-1,0,-1,1
59470520409,-5,5,2,0,1,0,-1,0
59470520409,-9,-7,-1,-1,-3,-2,-3,-3
59470522040,1,-1,1,-1,0,1,-1,-1
59470522040,0,2,-1,-2,0,-1,0,-1
59470541357,-1,-3,0,-2,-1,-2,-1,1
59470541357,1,1,0,-2,-1,0,-1,2
59470542993,-3,-3,0,1,-1,-2,-1,-1
59470542993,-2,2,-3,-1,-1,-2,-2,-1
59470555076,2,0,-2,0,0,0,-1,-3
59470555076,1,-1,-2,-1,0,-2,0,1
59470564128,1,0,-2,-3,-1,-2,-4,-2
59470564128,-1,1,0,-2,-1,1,-3,-2
59470578914,-1,-1,0,-1,-1,-2,0,1
59470578914,0,1,-1,-1,0,0,-1,-1
59470580518,-4,-4,-1,-2,0,0,0,-1
59470580518,-1,0,0,0,0,-2,1,-2
59470601508,2,-1,0,-1,-1,0,-2,-2
59470601508,0,-2,-2,-2,-3,0,1,-1
59470603082,0,-1,-1,-1,-2,-1,-1,-2
59470603082,0,2,0,-1,-1,1,-1,-1
59470615171,-1,-2,-3,0,-2,0,-2,0
59470615171,-1,-2,0,0,-2,-2,0,-2
59470624073,-2,-3,-3,-1,-1,-2,-1,0
59470624073,-1,-3,-1,-1,1,-3,0,-2
59470638934,0,-1,-2,0,-2,-2,-2,-1
59470638934,0,0,-1,-1,1,0,-2,-2
59470640559,-4,-3,-3,-2,-2,-1,1,2
59470640559,-2,-1,0,-2,-1,-3,0,-2
59470661464,1,0,-2,-4,0,-2,0,-2
59470661464,0,-1,0,0,-2,-1,-1,-4
59470663058,-2,-1,-2,-2,0,-1,-2,-3
59470663058,-1,-3,0,-1,-3,0,0,0
59470675079,1,-1,-1,1,1,0,0,0
59470675079,0,0,-2,0,-2,-2,-1,1
59470684081,0,-1,-1,0,-1,-2,-1,0
59470684081,-2,-2,-2,0,-1,-2,0,0
59470698939,1,-1,-3,-2,-1,-2,-2,-3
59470698939,-10,-2,-2,-1,1,-1,-1,-2
59470700536,-3,-2,-1,-2,-4,-1,-1,1
59470700536,-2,-1,-2,-2,-2,-1,0,0
59470721577,3,6,1,0,-2,-1,2,0
59470721577,-6,-12,-3,-3,-1,-3,0,-2
59470723047,0,0,-1,-2,-2,-2,0,-1
59470723047,1,0,-2,-1,0,0,-2,-3
59470735060,-4,0,-1,-1,-1,-1,-3,-2
59470735060,0,1,-2,0,-1,1,0,2
59470744093,0,-1,-1,0,-1,1,-2,-1
59470744093,0,-4,0,0,-2,-2,-1,-1
59470758991,-3,-4,-1,-2,-1,-2,-1,-1
59470758991,3,1,0,2,-2,-1,-1,0
59470760585,0,-2,-1,-1,0,-1,-3,-1
59470760585,1,0,-3,-1,-3,-2,-1,1
59470781700,-1,-2,-1,-2,0,0,0,0
59470781700,1,2,0,-2,0,0,-2,0
59470783045,0,-2,-3,-3,0,0,-1,-2
59470783045,-1,0,-2,-1,-1,-1,-1,-1
59470795137,-4,-2,0,-1,-1,-2,-2,-1
59470795137,0,0,-1,0,-1,0,1,-1
59470804018,0,-1,0,1,0,-1,0,-1
59470804018,-1,0,-2,-1,1,1,-1,-3
59470819159,-3,-4,-1,-1,-4,1,1,0
59470819159,0,1,0,-1,-2,-1,-3,0
59470820590,-2,-1,-1,0,-1,-1,-1,-4
59470820590,-3,-1,-1,0,-1,-1,-4,0
59470841400,4,0,-6,-3,1,-2,-1,0
59470841400,9,3,8,2,2,1,1,2
59470843008,-3,-7,-7,-5,0,-2,-2,0
59470843008,-5,0,6,0,1,-2,-1,-4
59470855309,2,3,4,2,1,-2,-1,-4
59470855309,-5,-5,-3,-3,-3,-2,1,-3
59470864137,-1,3,-1,0,0,-1,-1,1
59470864137,1,0,-1,-1,-2,-1,-2,1
59470879218,-6,-5,-1,-3,-2,0,-3,-3
59470879218,0,3,-3,0,-2,-1,-1,-3
59470880643,-1,-3,0,1,-2,-1,-2,-1
59470880643,0,-1,-6,-3,-1,-1,-2,-2
59470901476,-2,-2,1,0,-2,-1,0,-1
59470901476,-3,0,-2,-2,-1,-2,-2,-1
59470902975,-2,1,0,-3,-2,0,-1,1
59470902975,0,-4,-2,-1,0,-1,-2,-2
59470915127,0,-1,-1,0,-2,0,-4,-1
59470915127,0,-2,-2,-2,0,0,-1,-2
59470924076,-1,-1,0,-1,-2,-2,-1,1
59470924076,-2,2,0,1,-1,-2,1,1
59470938873,-2,-1,-3,-1,0,0,0,-2
59470938873,-3,-2,-2,-1,0,-2,0,-2
59470940511,1,1,1,2,1,-1,-2,-2
59470940511,0,-2,0,1,-4,-1,-1,-1
59470961377,0,-2,-1,-2,0,0,0,-2
59470961377,-3,-4,-3,-5,-2,-1,-2,1
59470963005,-1,0,-2,-1,0,-1,1,-2
59470963005,2,2,0,1,1,-1,0,0
59470975108,-10,-19,1,1,0,0,-2,-2
59470975108,2,1,1,-2,0,-3,-1,0
59470984091,-1,0,0,0,-2,0,-2,-2
59470984091,-2,-3,-2,-2,-1,0,-1,-1
59470999024,1,4,-3,-2,-2,-2,-1,-1
59470999024,0,-3,1,-1,-3,-2,-3,-4
59471000500,1,-2,-3,-2,0,-1,-2,-3
59471000500,0,1,0,-3,-2,1,-1,-1
59471021391,0,0,-3,-1,0,0,2,-1
59471021391,-10,0,-2,0,-2,-1,-2,-1
59471023056,-1,2,-2,-1,-2,-3,-1,-2
59471023056,-2,-3,-2,-3,-1,-1,-1,0
59471035237,2,4,0,-2,0,-1,0,0
59471035237,0,-3,-2,-1,-2,-2,-2,-1
59471044177,-1,-3,-2,-4,1,0,0,-1
59471044177,0,0,-2,0,1,-1,-1,0
59471059221,-3,-1,-1,-2,-3,-4,0,0
59471059221,0,1,-2,2,0,0,-2,-1
59471060684,0,-2,0,-1,-4,0,-2,-1
59471060684,-1,-2,-1,-1,-1,0,-1,-2
59471081462,0,1,2,0,-1,-2,-1,0
59471081462,0,-1,-1,1,0,0,0,0
59471083022,-2,-2,1,1,0,0,0,-2
59471083022,-4,-2,-1,-2,0,-1,-1,-1
59471095207,1,1,-1,-1,1,-1,-2,2
59471095207,2,10,-3,-4,-1,-1,-3,-2
59471104127,-7,-7,-10,-4,0,-1,0,-2
59471104127,-1,0,0,-1,-2,0,1,-1
59471118990,-1,1,-1,-2,-3,0,-2,-1
59471118990,1,0,1,-2,-1,0,0,-3
59471120610,3,2,-1,-1,0,-2,-2,1
59471120610,-1,-2,-2,0,-2,-1,-1,-1
59471141705,-3,-3,-1,-2,-2,-1,-1,-2
59471141705,-1,-4,-3,-1,0,-1,-2,1
59471143115,-1,-1,1,0,-1,0,-2,-2
59471143115,-1,-2,-1,1,0,-1,0,-1
59471155385,-1,-1,0,-1,-2,-1,-1,2
59471155385,-1,-4,-1,-1,-1,0,-1,-2
59471164205,0,2,0,-1,-1,0,-1,0
59471164205,1,2,-2,0,0,-1,-2,-2
59471179163,-3,-2,0,-2,0,1,-1,-3
59471179163,0,-2,-1,-1,1,-3,0,1
59471180593,-1,-1,0,-2,-2,-2,-2,-1
59471180593,-1,-3,-1,-2,-2,-1,0,-3
59471201526,-1,1,-2,-2,-1,-2,-1,0
59471201526,-1,-3,0,0,-1,-1,0,-2
59471203065,-1,-1,0,1,-1,1,-1,-1
59471203065,-1,1,0,-1,1,-1,-2,-1
59471223921,0,-1,-3,0,-2,-1,-1,-2
59471223921,0,0,1,0,-1,0,-1,0
59471225589,-1,0,-2,1,-3,-1,-1,0
59471225589,-2,-2,0,0,-2,-3,-1,-1
59471239050,-3,-1,0,0,0,0,-1,-3
59471239050,-1,-3,-4,0,-2,-2,0,-2
59471240576,0,0,1,0,1,-1,-1,-1
59471240576,0,-2,-1,-2,-3,2,-2,0
59471261458,1,-1,0,0,-2,-1,0,0
59471261458,-2,-1,0,-3,-2,0,-3,-3
59471263124,-1,-1,0,0,-1,-5,-1,-1
59471263124,0,0,-1,0,1,-2,-1,-1
59471275141,0,0,-4,0,-2,-1,-2,1
59471275141,0,-1,-1,-1,-1,-2,1,0
59471284126,-1,-1,0,-3,-1,0,-1,-2
59471284126,0,-2,-1,1,-2,-3,0,0
59471299217,-1,0,1,-1,1,0,-3,0
59471299217,-2,-1,-2,-2,0,0,-2,1
59471300587,-1,0,-1,-3,-1,0,-3,-1
59471300587,0,-1,-3,0,-3,-1,-3,0
59471321527,-3,-2,-2,0,1,0,-1,0
59471321527,-2,0,0,-1,-3,0,-2,-1
59471323112,0,-3,1,0,0,-1,1,-2
59471323112,-1,-2,-3,-3,-1,0,-1,-2
59471335266,0,0,-1,0,-1,0,0,0
59471335266,0,-2,-2,-1,0,-2,-1,-3
59471344062,-1,-2,-1,0,-1,-1,0,-1
59471344062,-1,-1,0,-3,-1,-1,0,0
59471359190,0,-2,0,-2,-1,-1,-3,-1
59471359190,0,-1,0,-1,-2,2,-1,1
59471360602,-1,0,-1,0,-3,-1,-2,-1
59471360602,-1,0,-2,0,0,-2,0,-1
59471381274,-1,-3,-3,-1,0,-1,-1,-2
59471381274,-1,-1,-1,0,-1,-1,-1,-1
59471387613,-1,1,-1,-1,-1,-3,-2,0
59471387613,-1,0,-1,0,-1,-3,0,-2
59471404099,-4,-1,0,-2,-2,-1,0,-1
59471404099,-1,-3,-3,0,0,0,0,-1
59471405615,-1,-1,-3,-1,0,-2,-1,0
59471405615,-1,0,1,-3,-3,0,0,-1
59471419187,-1,0,-2,1,-4,-1,-1,-1
59471419187,0,-2,-1,-3,-1,-2,0,-2
59471420600,0,1,0,-1,0,-1,-2,-1
59471420600,-1,-3,0,-1,-1,0,-1,-3
59471441436,0,0,-1,-1,0,2,0,0
59471441436,-1,-1,-1,1,-2,0,-1,1
59471443011,-1,-2,-2,0,-2,-1,-2,-2
59471443011,-2,0,1,1,-2,-2,-2,-3
59471464248,-1,0,-1,-2,-1,-2,-1,-3
59471464248,-1,-1,-2,-1,-1,-1,-1,0
59471465630,-3,-2,-1,-3,-1,0,0,0
59471465630,0,0,-1,-1,-1,0,0,0
59471479253,0,-3,-2,1,0,-1,0,-2
59471479253,-1,0,-1,0,-1,-2,1,-2
59471480623,0,-1,0,0,1,-1,-2,-1
59471480623,-2,-3,1,-1,0,0,0,-1
59471501500,-1,-1,-2,-6,-1,-2,-1,-1
59471501500,-1,0,0,0,0,-3,-1,0
59471503068,-1,-3,1,-2,0,0,-1,0
59471503068,-1,-2,-3,-3,-3,0,-1,1
59471524243,0,-1,-1,0,0,-1,-2,-3
59471524243,-1,-1,1,-2,-1,-2,-3,-2
59471525611,-1,0,-2,0,-1,-1,0,0
59471525611,0,-1,-3,1,-1,0,0,0
59471539196,0,0,0,1,1,-1,-2,0
59471539196,-1,-1,-3,-2,-2,-1,-1,0
59471540621,0,0,2,-1,-3,-1,-3,-1
59471540621,0,-1,-2,0,0,-1,-2,-1
59471561432,-2,0,-1,-1,-3,-2,0,-2
59471561432,1,-3,0,0,-1,1,-2,0
59471563071,-1,0,-2,-2,-1,-3,0,-3
59471563071,-2,0,0,-2,1,1,0,0
59471584011,-1,-1,-2,3,-1,0,0,-2
59471584011,-1,-2,0,0,-2,-2,-1,-1
59471585643,-2,-3,-4,-2,-3,0,-1,-2
59471585643,-1,-1,0,-1,-2,-2,-2,-1
59471598566,0,-2,-2,2,0,-1,-1,-3
59471598566,0,-1,-2,-1,0,-1,1,-2
59471605138,-1,0,-2,-3,0,1,-1,0
59471605138,-2,0,-1,-3,-1,-2,-2,-3
59471621445,-1,-1,-1,-4,0,-2,-1,0
59471621445,-1,0,-1,0,0,-2,-1,0
59471623014,-3,-1,-2,2,-2,-2,1,-2
59471623014,-1,0,-2,-1,-3,-3,1,0
59471644216,-2,-1,1,0,-1,-2,-2,0
59471644216,0,-2,-1,0,-3,1,-2,-1
59471645598,1,-2,-1,-2,0,-2,-1,0
59471645598,-1,-2,-4,-2,0,-1,0,-2
59471658522,1,-1,0,0,-1,-1,-4,-1
59471658522,-1,0,-2,-2,-2,-1,0,-1
59471665132,1,1,1,0,-1,-1,-3,-1
59471665132,-2,-1,-3,0,-2,0,0,-1
59471681688,-2,-2,1,-1,-3,-3,0,1
59471681688,-2,1,1,-2,-2,-3,-2,-3
59471683096,1,0,-1,0,-1,-1,-2,-1
59471683096,-1,-1,0,-3,2,0,-3,1
59471703952,-1,-2,-1,0,-2,-1,0,-2
59471703952,-1,-1,0,-1,-3,-2,-2,-3
59471705622,-2,0,-2,-1,-1,-1,0,-2
59471705622,0,-2,0,-1,-2,0,0,0
59471718602,0,0,-1,-1,-2,-1,-2,0
59471718602,0,0,0,-2,-1,-1,-2,-1
59471725316,0,-1,0,-1,-2,1,0,-1
59471725316,-1,-2,-2,-1,-2,-1,-3,-4
59471741511,0,-3,-4,-2,-1,0,-1,-1
59471741511,-1,0,-2,-1,0,-1,0,0
59471743071,-1,-1,0,-2,-2,-1,-1,1
59471743071,0,-1,0,0,1,-2,-1,0
59471763913,-1,-1,0,0,0,-1,-2,-2
59471763913,-2,0,-3,-1,1,1,0,-2
59471765488,-2,-3,-1,-1,-2,-1,0,-1
59471765488,0,-2,-1,-2,0,-2,-1,0
59471778249,-1,-2,-2,-1,-1,0,-1,-3
59471778249,-1,-2,-1,-3,0,0,1,1
59471785154,-1,-2,-1,0,-1,0,0,0
59471785154,-1,0,1,-1,-1,-1,0,-3
59471801465,-1,-1,-1,-1,-1,-2,-2,-1
59471801465,0,-2,-2,0,-1,-3,-1,-2
59471803096,0,0,-1,-3,-1,-1,0,-2
59471803096,1,-1,-1,0,-2,-1,-2,0
59471824205,-2,1,-1,-1,0,-1,0,0
59471824205,-2,0,-3,-1,-2,-1,-1,-1
59471825597,-3,-1,1,-2,-1,-2,-1,-2
59471825597,-1,-1,-1,-1,-2,-2,-2,-1
59471846483,-1,0,0,-3,-1,-1,0,-1
59471846483,0,-2,-3,-1,-1,-1,0,0
59471848103,1,0,-1,0,1,0,0,0
59471848103,-2,2,-2,0,-1,0,0,-1
59471861520,-1,0,0,-2,-1,0,-2,-1
59471861520,0,-3,-2,0,0,0,-2,-1
59471863051,-1,-2,-3,1,-2,-3,-2,0
59471863051,-2,-3,-1,0,-1,-1,0,0
59471884022,-1,0,0,-2,-1,-1,0,0
59471884022,0,0,0,0,0,1,-1,1
59471885594,-1,0,-2,0,-2,-3,-2,-1
59471885594,0,-1,-1,0,-1,-1,-3,-1
59471906772,0,-1,0,0,0,-2,1,0
59471906772,-2,-2,-1,-2,-1,-1,-1,-1
59471908175,-1,-2,-1,-2,-1,-1,-1,-1
59471908175,0,0,-1,-2,-1,1,-2,-3
59471921536,-1,-2,-3,1,-2,-1,-1,-2
59471921536,-1,0,1,-1,0,-1,-1,0
59471923082,-2,-2,-1,1,-2,0,0,-3
59471923082,-1,-2,-2,0,-3,-3,-2,-1
59471943950,-3,-2,-1,-1,-3,0,-3,-1
59471943950,-3,-3,-2,-1,-1,-1,-1,-2
59471945476,-1,-1,-2,-2,0,0,0,0
59471945476,-1,-1,0,-1,1,-1,0,-3
59471957545,0,-2,-1,-2,-3,-1,-1,-1
59471957545,-1,0,0,2,0,-2,1,-2
59471966672,0,-3,-1,-1,0,-1,-1,0
59471966672,-2,-1,-2,-1,0,-1,-1,0
59471981544,-2,-1,0,-4,-1,-2,-1,-1
59471981544,0,-1,0,-2,-1,-1,0,-4
59471983160,-1,-3,2,0,-2,-1,-2,-2
59471983160,0,0,-3,-2,0,-2,-1,0
59472004037,-1,1,0,0,3,-1,-1,-1
59472004037,-1,0,0,1,-1,-1,-1,1
59472005537,-1,-1,-1,-1,-1,0,-2,-2
59472005537,-2,-3,0,2,-1,-1,-1,0
59472017482,-2,-1,0,-1,-1,-1,-1,-3
59472017482,0,-1,-1,-2,-2,1,-2,-2
59472026663,1,0,-2,0,0,-4,-1,-2
59472026663,-1,-1,1,-3,1,0,2,0
59472056466,1,0,0,-2,-2,0,0,0
59472056466,-1,-2,-1,0,0,-2,-1,-1
59472058037,-3,-1,1,-3,0,-1,-2,0
59472058037,-2,0,0,-2,-3,0,-1,-3
59472063904,-4,-1,-1,1,-1,0,-2,-1
59472063904,-1,-1,-2,-3,-2,0,-1,0
59472065532,0,-1,-2,-4,-1,0,-2,-1
59472065532,1,-1,-1,0,-2,-2,-2,-2
59472077576,-1,-2,-1,0,-1,0,0,1
59472077576,-2,0,-4,0,1,-2,-3,-1
59472086566,-1,-1,0,-2,-1,-1,-1,-1
59472086566,-2,-1,0,-2,1,0,-1,0
59472101500,0,-1,1,-1,0,-1,1,-1
59472101500,0,-1,0,-1,-3,-2,-1,-1
59472103039,-1,-1,-1,-1,-1,-1,1,-2
59472103039,-2,-1,-1,-3,-1,-1,-3,0
59472123889,0,-1,-1,-3,-1,-1,-1,0
59472123889,-1,-2,1,0,-1,-2,-3,-1
59472125495,-1,-1,-1,0,-2,1,0,-2
59472125495,-2,-1,-1,0,0,-1,1,-1
59472137630,-2,-1,-3,-1,1,-1,-1,0
59472137630,2,0,-1,-2,-1,-2,-2,1
59472146580,-2,-1,-2,-2,-1,-3,-1,-2
59472146580,0,-1,-3,0,0,-2,-3,-3
59472161668,-2,-1,-1,-1,-2,-2,-1,-2
59472161668,-2,0,-1,-1,0,-1,0,1
59472163016,1,0,0,-1,-1,-2,-2,0
59472163016,0,-1,-1,0,-2,-2,0,-1
59472183956,0,-1,-1,0,-1,1,-2,-3
59472183956,-2,-2,0,-1,-2,0,-1,-2
59472185584,-3,0,-2,-2,-2,0,-2,-1
59472185584,-1,0,0,-2,-1,0,-3,0
59472197684,-1,0,-1,-2,0,-2,-1,0
59472197684,0,-2,-1,0,0,-2,0,-1
59472206733,-3,1,0,1,0,1,1,-2
59472206733,0,-2,-1,-1,-2,1,-3,0
59472221616,-1,-1,-3,-1,0,-2,0,0
59472221616,-1,-1,0,0,-3,0,-1,-2
59472223063,-1,-3,-1,-1,-1,-1,-1,0
59472223063,-1,0,-2,-1,-3,-2,1,0
59472244620,-3,-2,-1,-2,-3,-2,-2,0
59472244620,-3,-1,-1,0,-2,-2,-1,-1
59472246295,-1,-2,-2,-1,0,-3,-2,0
59472246295,-2,-3,-1,-2,-2,0,-2,-1
59472257526,0,-2,-1,0,1,-2,1,-1
59472257526,-2,0,-2,-1,0,-1,-2,-3
59472266610,-2,0,0,-1,0,1,-1,-2
59472266610,-1,0,1,-1,-1,-1,1,-1
59472281503,0,1,-1,-2,-1,0,-2,-1
59472281503,-1,-2,-1,-2,-2,1,0,0
59472283097,-1,-1,-1,0,-2,-4,-1,-1
59472283097,-1,-3,-3,-2,-1,0,-1,0
59472304293,0,-1,-1,-1,-1,-1,1,0
59472304293,-1,-2,0,-1,-1,0,0,-3
59472305577,-1,0,-1,-2,-2,-2,0,-1
59472305577,-3,-1,-2,0,1,-2,-2,-3
59472317543,-1,0,-1,-1,-1,-1,0,1
59472317543,1,-2,-1,-2,1,-2,-1,1
59472334086,-1,-1,-2,-1,0,-1,-2,-1
59472334086,1,-1,-1,0,0,0,-3,-1
59472342276,-1,0,1,0,-1,-1,-2,-1
59472342276,-2,1,-1,-1,-2,-1,0,-1
59472343049,1,-3,0,-2,-1,-2,1,1
59472343049,0,-1,-2,1,-1,-1,-1,-1
59472363909,-1,-2,-1,-2,0,1,-3,-3
59472363909,0,0,-2,1,-1,-1,-1,0
59472366438,-1,-1,-2,-3,-2,1,-1,-2
59472366438,-2,2,1,-2,1,-1,-2,-3
59472386389,-2,-1,-1,-2,1,-1,0,1
59472386389,-2,-3,-2,-1,-1,-1,-1,-2
59472388014,-1,-1,-1,0,0,0,-1,-2
59472388014,-1,-1,-3,-1,-1,-1,0,0
59472401431,-2,-1,-1,0,-2,-1,-2,-2
59472401431,1,-2,-1,-1,-1,1,-3,-1
59472403049,-1,-1,0,-2,-2,-2,-3,-1
59472403049,0,-1,1,0,0,-3,0,-1
59472424216,0,-2,1,-1,-3,-2,-1,-1
59472424216,-1,0,-1,-2,-1,0,0,-3
59472425590,-2,1,0,-1,-1,0,-1,-2
59472425590,-2,-2,-2,-2,-1,0,-2,-1
59472446650,-2,1,-2,0,-2,-1,0,1
59472446650,-1,-1,0,-1,2,-1,0,-1
59472448106,-1,-1,-3,2,-2,-2,0,0
59472448106,-1,-2,-1,0,-2,-5,-2,-2
59472461652,-1,-1,-3,-2,-1,-2,-1,1
59472461652,-3,0,0,-1,-2,-1,-1,-2
59472463058,-1,-1,-3,0,0,-1,-2,0
59472463058,-3,0,-2,0,0,-1,0,2
59472483997,1,-1,0,-2,-2,-1,-2,-4
59472483997,-1,-4,-2,-1,0,0,-2,-2
59472485610,0,0,0,0,1,-2,-1,0
59472485610,-1,-1,0,-2,-2,-2,0,-3
59472506471,-1,-1,-3,-2,-2,-1,-1,-2
59472506471,0,-2,0,-2,-3,0,-1,2
59472508161,-2,-2,0,-1,0,-1,0,-2
59472508161,1,-2,-3,0,-1,0,1,-1
59472521020,1,-2,0,1,-2,-1,-2,-2
59472521020,-2,0,-1,1,-2,-1,-1,-1
59472527864,-1,-1,0,0,-2,0,-1,-1
59472527864,1,1,-3,-2,-1,-1,0,-1
59472543987,-4,-1,-1,-3,1,-1,1,-3
59472543987,-1,0,-1,-1,-1,0,0,-1
59472545582,0,0,-1,-1,1,-1,-1,-2
59472545582,-2,-2,-1,-1,-2,-1,-3,-1
59472566723,-1,-2,1,1,-2,0,-1,0
59472566723,-2,-1,-1,-1,-4,-3,-3,-1
59472568080,-2,-1,0,-3,-2,-1,0,2
59472568080,0,0,1,-1,-1,-2,0,1
59472581020,-1,-2,-2,0,-1,1,-1,-1
59472581020,-1,-2,1,-1,2,-1,-2,-1
59472587577,1,0,0,-1,-1,0,0,-1
59472587577,-3,-2,-2,-4,-1,-2,0,-2
59472603956,-1,0,-2,0,0,-2,2,0
59472603956,-1,-1,-1,0,1,1,-1,0
59472605591,0,0,1,0,-1,1,-1,-1
59472605591,0,-2,-1,0,-2,-1,-1,-1
