timestamp,emg1,emg2,emg3,emg4,emg5,emg6,emg7,emg8
117295413059,-2,0,-1,0,-1,-2,-1,1
117295413059,-2,0,-1,-1,-3,-2,-1,0
117295418676,0,0,-1,0,-2,-1,0,-2
117295418676,-1,-1,0,0,0,-1,-1,-3
117295419426,0,1,1,-3,-2,0,1,-2
117295419426,-1,-3,-1,-1,0,-2,-1,2
117295421044,0,0,-2,-2,-2,0,0,-1
117295421044,-1,-4,-3,-2,-2,-2,-1,1
117295431675,-1,0,0,-2,0,-1,-2,1
117295431675,0,-1,-1,-1,0,-1,0,-3
117295443064,-1,-1,-1,0,-1,-1,-1,-2
117295443064,-2,1,0,-1,0,-1,-2,0
117295446615,-1,-2,-1,0,-2,-1,-2,-3
117295446615,-1,0,-1,0,0,-1,-1,-3
117295461631,1,2,-3,-1,-1,-2,-2,-2
117295461631,3,0,0,-2,0,-1,0,1
117295471590,-1,-2,-1,-2,-2,-1,-1,-1
117295471590,-1,1,1,-1,-2,0,-1,-1
117295478174,-1,-1,0,-1,-1,-2,-2,0
117295478174,-2,0,0,0,-1,1,-1,-3
117295491711,0,-2,-1,0,-2,0,-2,0
117295491711,0,0,-2,-1,1,1,1,1
117295502116,-3,-2,0,2,-1,0,0,-1
117295502116,-3,-3,-3,-9,-3,-1,-3,-2
117295539077,-1,-1,-1,1,-1,0,-2,-2
117295539077,-1,-4,-2,-1,-1,-1,-2,-1
117295539875,-2,-1,-1,-1,-2,-2,-2,-1
117295539875,2,-2,-3,-2,-1,-1,0,-1
117295540667,1,3,-1,-1,-1,-2,0,8
117295540667,-7,-5,-1,0,-3,0,0,-3
117295543961,1,-1,0,0,0,-2,-2,-2
117295543961,0,-1,-1,-3,-1,-2,-1,-1
117295551417,0,-3,-1,-1,1,-1,-2,-5
117295551417,1,0,-2,-1,-1,-1,0,0
117295560407,-2,-1,0,1,0,-1,-1,0
117295560407,-5,1,-2,0,-1,0,0,-3
117295566477,-3,-1,-1,-2,-2,-2,0,-3
117295566477,1,1,0,2,0,-3,-1,-1
117295581436,-2,-3,-4,-4,-2,-1,-1,-2
117295581436,0,1,1,6,-1,-3,-2,-1
117295588898,-1,0,0,34,3,1,0,-1
117295588898,-1,-3,-6,-61,-13,-3,-1,-2
117295597956,-1,0,-3,-5,-1,-2,0,1
117295597956,-3,-1,1,2,-1,0,-2,-2
117295611484,0,-3,-2,5,2,-1,0,-1
117295611484,0,0,2,5,1,4,1,-1
117295620482,-2,-1,-2,-8,-4,1,0,-2
117295620482,-3,-2,-2,-9,-2,-1,-3,-2
117295626467,-1,-3,0,5,-3,-2,-2,-3
117295626467,0,1,-1,8,4,-12,-5,-1
117295641468,-1,-3,-1,0,-8,1,0,0
117295641468,1,-1,1,-11,-3,2,1,2
117295648919,-1,-2,-7,-90,-9,-2,0,-1
117295648919,0,-1,4,52,14,7,2,0
117295657944,-3,-3,-7,-54,-11,-4,-6,-2
117295657944,0,-2,-3,2,-2,-4,-1,-2
117295671444,-2,-2,1,4,-3,-3,-3,-1
117295671444,-1,0,-1,8,0,-6,-3,0
117295680447,1,0,3,14,7,3,-1,-1
117295680447,0,-2,0,14,1,0,-2,-2
117295686429,1,0,-1,-4,0,0,3,-1
117295686429,-1,0,0,-7,-5,-8,-5,4
117295701418,2,2,2,20,3,9,1,-3
117295701418,1,1,0,-11,-3,-10,-2,1
117295708977,-2,-2,-2,16,2,3,0,1
117295708977,-1,-1,-3,-3,-3,5,-2,-3
117295717977,-2,-3,-2,5,0,-12,-3,-1
117295717977,-3,2,-1,-6,5,7,2,-1
117295731451,2,-2,-1,3,-4,-6,-5,1
117295731451,-4,-5,-4,-6,-7,3,-5,-2
117295740440,-2,2,3,0,2,1,5,-2
117295740440,6,4,0,5,3,6,-2,-6
117295754883,5,-7,1,6,2,3,10,12
117295754883,-10,-4,-1,-7,-6,-7,-14,-3
117295761453,0,-2,-2,6,-2,-12,0,-33
117295761453,-2,-5,-5,-1,-6,-12,-19,48
117295768977,6,6,1,-1,0,12,18,-7
117295768977,14,10,1,2,4,-2,5,37
117295784193,28,33,2,2,-1,-8,7,26
117295784193,-17,-19,2,2,-1,9,12,-24
117295791713,2,-7,-3,-2,3,46,-9,-12
117295791713,-9,-3,-2,-4,-4,-50,-23,-95
117295800535,7,1,1,3,4,7,-4,90
117295800535,-1,7,1,-4,-14,-34,-10,-11
117295806547,-10,-1,-1,4,6,21,-1,-14
117295806547,2,2,3,3,8,8,19,3
117295821510,-26,-14,-6,-4,-13,35,-25,-54
117295821510,0,1,0,-2,1,-52,16,-1
117295829200,-7,0,4,3,-2,4,-5,-20
117295829200,-9,0,-3,3,-2,0,5,-17
117295844057,16,-7,0,-1,6,5,1,38
117295844057,1,-5,-1,-5,-9,1,-16,-3
117295851529,-7,1,-8,-12,-17,-45,-17,19
117295851529,8,8,4,-8,-1,36,20,17
117295860554,-12,-1,-1,7,18,-6,3,-27
117295860554,8,16,-3,5,7,24,24,62
117295866541,4,0,6,1,-2,0,-9,-46
117295866541,1,-7,-5,0,-9,-30,4,26
117295881633,-26,-17,-4,1,6,14,-7,-3
117295881633,-9,2,-7,-14,-10,-29,16,-10
117295889102,19,23,9,-3,0,34,-5,-1
117295889102,-46,-18,-4,1,-2,-25,-19,14
117295903996,6,5,8,7,5,-15,-3,-37
117295903996,0,-7,-5,-5,1,19,-15,11
117295911511,-13,-11,-1,11,-4,-5,0,-8
117295911511,8,1,-16,-20,-10,-1,26,18
117295920470,2,3,7,2,-6,-35,-7,-5
117295920470,-17,-7,-9,2,5,42,-21,-32
117295926592,8,-13,-10,-10,-13,-40,12,4
117295926592,16,-3,5,11,27,38,-15,-11
117295941693,-10,-2,-5,3,-6,-11,5,-29
117295941693,9,-3,4,6,10,31,-19,-39
117295957309,1,-5,-8,5,4,-18,27,50
117295957309,2,1,2,-7,-15,2,-10,-5
117295964168,-1,-9,-11,-16,-20,-35,-15,5
117295964168,-2,0,3,-16,-8,12,6,-2
117295971565,4,-13,-4,9,16,1,-27,-31
117295971565,11,6,1,0,3,-4,38,40
117295980433,-22,-1,1,3,15,24,11,46
117295980433,-4,5,-5,-10,-19,-42,-25,-17
117295986581,-7,17,8,3,0,0,2,-8
117295986581,11,-11,-23,-6,2,22,-18,1
117296001542,-8,-8,0,0,-13,18,-16,-76
117296001542,19,4,2,18,-8,-57,32,68
117296009055,-2,5,-4,-6,21,53,28,3
117296009055,19,5,6,3,-9,-14,-18,7
117296032471,-2,5,-3,14,15,47,-4,-63
117296032471,3,-8,-1,-34,11,2,16,5
117296032941,5,-1,4,4,-22,-68,-9,42
117296032941,-14,0,6,1,-6,3,-37,-36
117296040478,10,-8,-6,-4,9,-4,19,29
117296040478,3,4,7,45,-1,33,12,-4
117296054724,-8,-8,-12,-38,-7,-20,-26,-18
117296054724,-6,0,2,-10,0,-13,2,-6
117296061634,5,4,7,-5,-12,-30,5,26
117296061634,-12,-7,-1,15,14,52,3,-61
117296069031,-4,2,-16,8,-19,-17,-18,30
117296069031,-4,-2,-4,26,27,23,33,-7
117296083992,-6,-4,-1,11,-13,-33,-2,-46
117296083992,16,0,-1,-57,7,4,1,76
117296091471,-10,-7,5,16,-6,-7,-16,-23
117296091471,-1,4,5,-36,-13,28,10,-24
117296100488,0,-2,-10,-10,-10,3,-12,7
117296100488,12,-9,1,11,7,-29,-5,-9
117296114872,-2,1,-2,-45,-4,3,7,3
117296114872,-3,0,3,4,-5,4,-10,-18
117296121507,5,3,3,-10,-3,2,10,36
117296121507,-15,0,5,39,-6,9,-32,-28
117296128948,2,-3,-2,-30,12,-5,2,-4
117296128948,10,-6,-5,19,-2,-10,-11,-3
117296144263,-11,-1,-1,-21,-2,10,-8,-33
117296144263,8,9,-5,34,8,0,8,15
117296151503,-10,0,1,-3,5,15,-2,-2
117296151503,29,1,-4,-16,-22,-3,6,65
117296160565,-4,2,-2,0,-3,-25,-27,-27
117296160565,1,-7,-8,-9,3,12,14,-35
117296174915,2,5,-9,37,6,19,2,20
117296174915,-18,1,-16,-39,3,-17,4,-21
117296181661,-1,-3,-12,8,5,12,14,20
117296181661,-9,-2,-3,-16,-10,-6,3,-12
117296188995,-40,-17,16,7,-11,-35,-82,-113
117296188995,-4,4,23,8,7,-13,10,9
117296203982,22,8,13,9,5,14,17,11
117296203982,21,5,6,-17,-10,2,3,27
117296211699,-8,-10,-7,7,-4,-2,-3,-16
117296211699,-30,-14,-2,19,13,4,-13,-20
117296220452,16,-3,-13,-9,-13,-18,-4,33
117296220452,-11,-2,2,1,0,-3,-21,-71
117296235315,4,10,6,5,6,3,41,21
117296235315,21,2,7,6,6,11,24,38
117296241590,-19,9,12,-6,-7,-22,-15,25
117296241590,-12,-11,16,-2,-14,-9,-23,-61
117296248994,35,14,22,10,19,12,24,33
117296248994,-21,-4,19,0,-4,1,-11,-41
117296264231,3,1,12,-2,0,8,-31,-63
117296264231,-28,-4,16,-2,0,0,-2,5
117296271584,-29,-1,21,-5,-14,-22,-5,-54
117296271584,-10,10,33,6,-1,6,3,48
117296280469,5,4,26,3,10,20,39,35
117296280469,17,3,11,-3,0,-7,-12,-47
117296294872,-23,-11,14,-3,-7,12,28,24
117296294872,-8,-14,-17,-7,-11,-20,-43,-38
117296301499,14,-3,-1,-1,-1,-7,-24,23
117296301499,81,-4,-12,-2,1,1,19,16
117296309098,-84,-16,-22,10,8,12,-19,-1
117296309098,6,-3,-31,-6,-10,-8,-9,-32
117296324290,10,-1,-8,3,0,-2,8,7
117296324290,-35,-11,2,6,1,2,23,7
117296331800,104,3,2,-11,-1,11,30,85
117296331800,74,-1,-2,-2,-2,-9,24,-13
117296340441,-78,-6,-31,5,3,0,-24,-123
117296340441,-51,-10,-42,-12,-4,-2,0,12
117296362948,-11,0,-27,3,-7,-18,-19,-33
117296362948,-16,-8,-25,-7,-9,-1,3,-59
117296364580,93,-26,-26,-11,-6,11,65,72
117296364580,-1,8,-11,8,16,-20,-5,2
117296368986,-5,-6,-24,-2,0,15,53,4
117296368986,-74,-21,-16,-5,-9,-23,-86,-58
117296385520,35,4,-11,-8,-16,0,-31,-54
117296385520,-84,-17,-1,-2,-1,-7,-17,-14
117296391519,-5,-39,-9,-4,4,5,18,4
117296391519,56,13,2,4,0,8,35,40
117296400471,-19,-11,-4,4,8,6,-60,-38
117296400471,27,-2,0,-6,-7,-12,-62,-64
117296414744,-8,5,-9,0,0,-4,2,43
117296414744,2,20,0,0,4,-2,7,-47
117296421519,-14,-9,-9,-5,-5,-4,-10,-5
117296421519,127,-14,-16,-12,-11,-11,-59,75
117296428954,42,-20,-6,-3,-10,-14,-55,-58
117296428954,-45,9,0,1,-2,6,18,31
117296443943,-39,23,-19,-3,5,6,74,97
117296443943,-76,-8,-3,3,-12,-11,-58,-17
117296460354,-46,24,-42,0,1,-8,-54,-47
117296460354,45,12,-59,11,13,11,30,35
117296461917,-71,-15,-20,-6,-4,-11,-32,-102
117296461917,-42,28,-5,2,2,15,9,56
117296482781,54,9,27,8,-7,-23,-53,-16
117296482781,26,-13,-3,6,12,19,32,13
117296484408,-75,-8,-50,-1,-2,2,-12,-88
117296484408,-7,0,-60,-7,5,7,22,34
117296488963,-35,-8,-36,-7,-6,-7,-46,-90
117296488963,46,26,-16,10,-1,-3,42,57
117296503908,48,6,26,6,6,2,39,39
117296503908,-81,0,19,12,1,-1,6,27
117296511415,59,-14,-30,-12,-3,2,-16,115
117296511415,-46,1,-2,-4,-3,2,24,-42
117296526440,-58,-5,-3,-1,-6,-10,-35,-44
117296526440,37,1,4,-4,-1,-5,-24,23
117296534653,-5,9,41,1,7,-14,21,-19
117296534653,9,7,70,-1,-6,-13,-53,43
117296572263,34,-12,46,-3,0,21,35,53
117296572263,10,-9,83,-9,5,13,-29,-128
117296580329,-7,24,81,-6,6,11,51,15
117296580329,-2,-20,92,-5,-4,-16,-50,23
117296581985,-33,2,79,10,-4,-5,-24,0
117296581985,27,10,31,-8,-9,-2,36,44
117296587080,10,1,19,10,-4,-9,45,14
117296587080,-14,-8,-24,-33,-5,0,-7,-39
117296587936,2,5,-17,22,17,17,5,2
117296587936,-12,3,-28,16,4,1,16,-52
117296594940,4,7,-23,-6,-5,3,-2,-10
117296594940,-30,-9,-29,-47,-8,3,-5,-13
117296609737,27,12,3,33,-5,-25,3,17
117296609737,7,6,-13,-6,-3,6,36,8
117296610481,-8,-5,-7,19,7,35,3,-10
117296610481,3,-5,-4,40,11,-8,12,17
117296623983,31,0,-13,-93,-20,0,10,22
117296623983,1,-1,-9,25,0,-16,-6,-69
117296631755,23,0,1,-18,-2,2,6,61
117296631755,-21,-3,-1,50,-5,-5,-11,-36
117296646741,16,3,1,-12,20,21,39,5
117296646741,-5,-7,-11,-14,-13,5,3,14
117296654418,-31,-4,-11,-77,-14,-7,48,-18
117296654418,-1,-8,-4,-3,0,7,-11,62
117296669650,-9,6,6,47,1,-14,-16,-1
117296669650,44,4,2,-8,9,-2,20,67
117296670430,1,-6,-4,20,2,12,-9,-45
117296670430,-17,-11,-7,0,-8,-12,-2,-52
117296684244,16,6,3,-14,-6,-11,1,6
117296684244,1,0,-4,-1,-5,-7,2,-17
117296691707,-11,3,-3,11,1,3,-13,-31
117296691707,10,4,-1,-5,4,3,7,-5
117296706533,35,3,-8,8,5,10,-4,66
117296706533,-13,4,1,-9,-2,-16,3,-39
117296714884,7,1,3,20,0,3,-1,23
117296714884,-17,0,1,-5,-2,4,-4,-9
117296729860,-1,-4,0,3,-1,3,9,-14
117296729860,-17,0,0,2,2,6,6,-41
117296730485,-33,1,-5,6,2,-3,-7,4
117296730485,-6,0,-2,-3,0,4,-1,-24
117296744179,0,-2,-5,-1,2,-2,-12,21
117296744179,-2,-5,-2,-4,1,6,27,13
117296751516,-6,4,-2,4,-3,-2,-5,-12
117296751516,-12,0,-3,-2,-5,-13,-16,-52
117296766505,29,5,-2,3,-5,-12,-7,-1
117296766505,-3,-1,0,-2,3,16,5,-28
117296774798,13,7,-1,7,-3,-24,1,0
117296774798,1,9,-1,-1,7,9,10,7
117296789820,-21,-2,-6,-8,-8,-3,-5,-21
117296789820,46,7,-1,1,0,-2,10,98
117296790483,1,-6,-4,-6,-5,2,-10,-19
117296790483,-9,-12,-9,-3,1,5,-4,7
117296803953,4,2,1,6,5,-11,11,-26
117296803953,4,-5,-3,-3,-1,21,11,43
117296811518,-11,5,4,5,1,-3,-6,-29
117296811518,28,2,2,-5,-4,5,-2,53
117296826708,-22,-5,-3,-1,-2,4,-11,-14
117296826708,5,0,0,2,0,-24,1,-25
117296834786,14,5,0,6,0,-5,7,13
117296834786,-20,-1,0,0,3,24,8,-25
117296849914,4,-5,-3,-4,-8,-23,-16,-13
117296849914,-9,6,-3,-1,0,4,-1,24
117296850404,-5,-1,2,-2,-11,-32,0,-19
117296850404,3,1,-1,-2,3,20,-13,-1
117296865517,-4,-7,-1,-6,1,20,8,4
117296865517,1,2,0,2,3,-9,4,-17
117296871423,-1,-3,1,19,8,7,-20,0
117296871423,-12,-8,-5,-9,-11,-20,4,-8
117296886546,-3,9,0,-1,-5,-9,-11,-7
117296886546,-14,-4,-1,-7,0,3,-4,-42
117296894886,9,-9,0,12,2,-1,26,32
117296894886,4,-1,-1,-21,3,24,-6,-17
117296909684,0,-3,-1,7,0,-10,11,7
117296909684,-19,-9,-6,-2,-12,-9,-11,-21
117296910475,2,-1,-3,20,7,16,-2,4
117296910475,7,5,1,-13,-3,-18,6,-2
117296924005,-2,-2,1,9,3,3,-2,-10
117296924005,-5,0,1,7,0,12,-1,-12
117296939879,-3,-5,-11,1,2,-9,-6,18
117296939879,-4,0,5,13,-2,-23,-11,-17
117296946758,0,-4,-7,16,5,12,4,10
117296946758,-1,-5,-8,5,0,-8,-1,3
117296954812,-5,-1,1,-48,-13,10,-13,-15
117296954812,-3,0,3,28,10,-5,-11,-14
117296969621,1,-3,-1,-22,-3,-3,12,12
117296969621,-7,-1,-2,0,-5,5,1,-4
117296970415,-6,0,-2,-14,-2,-1,-5,-7
117296970415,-2,-4,-12,3,-10,-28,-9,-5
117296984219,2,5,10,1,8,13,-10,-4
117296984219,-2,0,7,7,-10,-10,6,1
117296991576,-5,-11,-6,5,7,4,-3,-29
117296991576,2,-2,-2,-26,-6,0,9,-9
117297006537,1,-7,-9,-34,-8,-6,-5,4
117297006537,-6,-1,-4,-1,3,5,-9,-17
117297014841,-4,-2,1,7,-7,1,-4,1
117297014841,-4,4,-1,11,2,-6,0,6
117297028989,-6,-5,-3,36,1,-2,-7,-7
117297028989,-3,-4,-6,-52,-13,-5,-3,-6
117297037228,-1,-2,-8,16,5,0,-2,-1
117297037228,4,2,13,-8,3,10,6,9
117297044179,-1,-3,-9,-5,-9,-12,-4,-7
117297044179,0,-4,-9,5,-2,-3,3,7
117297051502,-1,0,5,4,-7,15,1,1
117297051502,3,-5,-11,-25,-5,-23,10,18
117297066737,-1,4,14,6,20,16,1,1
117297066737,1,1,5,-4,-1,-1,3,5
117297074852,-3,1,2,6,4,-6,-2,-7
117297074852,-5,-3,-4,-21,-8,3,-12,-11
117297089193,-1,2,1,6,-5,-11,-6,-4
117297089193,2,-4,-9,5,10,15,15,-4
117297097336,-19,1,2,-1,0,1,3,2
117297097336,1,2,-4,14,-1,4,2,12
117297104006,-1,1,-3,-8,-8,-17,-3,-4
117297104006,5,2,5,4,3,-2,-8,13
117297111599,3,-1,-5,-14,-3,6,15,17
117297111599,1,-4,2,12,0,7,-5,-6
117297126655,-1,2,-1,-11,-3,0,3,5
117297126655,-6,-1,8,4,-2,-6,-6,-10
117297134829,3,-1,-2,-8,-3,-7,5,0
117297134829,0,1,-1,5,3,5,2,0
117297149181,3,1,0,-4,-1,1,-2,-12
117297149181,5,2,3,3,5,2,-2,11
117297157308,0,-4,0,-4,-6,-9,-6,-9
117297157308,-5,5,4,5,-5,11,-2,-9
117297172287,2,-2,7,-5,6,3,-1,10
117297172287,-2,-2,-6,4,-9,-29,-7,-2
117297173004,1,2,-4,-5,11,29,3,0
117297173004,1,-4,-1,5,-4,-7,-2,0
117297186577,-6,-5,-3,-4,-9,-1,-16,-13
117297186577,-4,-1,2,0,3,5,1,-11
117297194712,10,1,2,0,-7,-17,-2,-16
117297194712,-16,-2,-2,3,-1,-2,-6,-1
117297209185,9,-2,-6,-3,-4,-7,10,20
117297209185,-14,-1,2,2,5,12,-18,-23
117297217327,23,6,0,0,-5,-13,0,49
117297217327,-4,-6,-5,0,2,7,4,17
117297232370,-36,7,-1,-3,-6,-17,-5,-7
117297232370,32,-14,1,1,3,1,12,-3
117297232953,-11,-6,1,1,10,26,3,-8
117297232953,28,3,11,7,1,-5,14,90
117297246706,7,-4,-9,-4,-4,5,-7,-18
117297246706,-31,0,3,-1,-2,-6,-14,-77
117297254855,11,-2,0,-5,-6,-15,9,12
117297254855,-11,-8,-5,-5,-4,7,-32,-43
117297268969,10,-6,-2,-2,-2,-28,2,10
117297268969,1,8,-1,3,6,12,21,17
117297277341,-28,-22,-7,-7,-11,-27,-33,-60
117297277341,4,-1,-3,3,0,-6,-2,-51
117297292367,20,-13,-8,-3,1,33,28,66
117297292367,22,2,-5,5,7,12,15,82
117297292965,-1,14,2,4,-7,-36,2,13
117297292965,-49,5,-2,-2,-15,-4,-35,-62
117297306525,17,-5,1,7,20,48,50,79
117297306525,-41,2,-1,-3,-12,-31,-37,-101
117297314751,47,-33,-3,2,11,19,36,42
117297314751,-17,0,2,-5,-4,1,19,-7
117297329253,21,4,-8,-5,-9,-18,-4,-1
117297329253,26,1,4,-5,5,27,31,11
117297337293,36,15,0,4,-10,-8,8,28
117297337293,0,4,-25,-5,13,-4,-4,-4
117297352266,-11,3,1,5,3,16,-3,-20
117297352266,-13,-5,-21,-9,-3,-9,-13,4
117297352955,-51,13,0,-5,-6,5,-29,-78
117297352955,71,1,13,0,-5,-20,20,101
117297366695,44,18,12,2,4,1,13,-57
117297366695,-25,-5,0,-12,-12,-16,-27,-28
117297374811,-42,1,10,-4,-2,5,-29,-74
117297374811,-36,-7,12,1,-3,-7,-72,-27
117297389058,51,4,20,-8,-15,-41,35,50
117297389058,-30,4,11,5,-6,-21,45,11
117297397424,31,31,-11,5,15,37,-6,6
117297397424,15,-2,-38,-3,16,37,7,-61
117297412329,-79,-3,-2,0,-20,5,-90,-47
117297412329,35,-8,23,9,18,-18,46,77
117297412958,36,-10,49,-6,-15,-9,-15,113
117297412958,3,-6,54,-8,-6,5,27,-46
117297426672,-20,-24,51,3,-1,-10,-57,-63
117297426672,-30,-25,39,1,-2,10,-9,-5
117297434688,-68,-23,49,-5,-4,-14,-78,-6
117297434688,4,-12,90,4,13,20,30,48
117297449175,-25,-11,63,-2,2,-39,-8,3
117297449175,13,7,43,-2,-15,-27,-34,-8
117297457312,-29,1,-11,9,13,15,-10,-51
117297457312,-32,-4,-56,-3,-16,-8,-2,-43
117297472157,-26,-7,-67,-16,-21,-19,-55,-35
117297472157,11,37,-11,1,8,-16,8,-4
117297472956,-6,-7,-19,1,-16,-18,50,-48
117297472956,-49,9,-41,5,6,2,-49,-34
117297495520,54,13,-98,8,21,21,54,4
117297495520,-33,0,-128,-14,-21,26,-38,-23
117297496179,-6,-2,-75,-4,2,-31,10,8
117297496179,44,-11,-28,-2,-11,12,19,9
117297508998,-7,3,-25,-1,-3,-6,2,-2
117297508998,-13,-9,-67,-2,9,29,-18,-4
117297517137,8,0,-62,-8,-23,-6,54,12
117297517137,30,-22,-39,-2,2,-30,-26,-30
117297532268,0,5,24,-1,1,-2,23,1
117297532268,-2,-3,57,5,12,42,63,5
117297532894,2,-1,49,-7,-10,15,-10,-11
117297532894,-7,4,53,7,24,-11,-20,-21
117297546698,-29,-2,44,-8,-19,-27,-49,-3
117297546698,33,-3,28,2,3,14,2,6
117297554733,28,17,39,-3,3,14,1,-8
117297554733,-13,6,28,3,4,17,19,16
117297569062,16,-2,10,0,1,5,16,-1
117297569062,13,0,11,-5,-13,-23,-23,9
117297577147,-10,-6,-1,3,15,11,-15,-4
117297577147,-1,-3,-9,-9,-15,4,13,18
117297592228,-5,2,-13,5,8,1,15,-25
117297592228,22,-6,-9,-7,-3,-5,-18,-43
117297592947,-18,3,-9,-1,1,1,32,3
117297592947,0,4,-25,-6,-2,5,29,38
117297606480,-28,-16,-16,2,0,-8,12,-3
117297606480,-1,-1,-9,4,1,14,-10,5
117297614616,-1,-4,-18,0,1,-17,-14,8
117297614616,-3,-3,-23,5,0,26,23,5
117297628958,-9,3,-15,-5,-1,18,8,12
117297628958,-1,0,-9,-1,-2,-25,4,9
117297637224,3,-6,-12,-5,0,8,-7,-14
117297637224,5,-4,-3,-1,-13,-26,0,7
117297652126,4,0,9,-2,1,-3,-16,-10
117297652126,-7,-1,7,1,13,21,-2,-4
117297652883,8,-3,-8,-1,2,0,-11,-1
117297652883,22,4,-3,1,-3,-15,8,-10
117297666519,8,-3,-8,-5,-4,26,-6,0
117297666519,4,0,-5,-7,-11,-17,10,7
117297674723,1,4,-3,1,7,5,-6,-25
117297674723,5,4,3,3,0,-6,1,8
117297698037,-3,6,-1,4,10,15,8,-2
117297698037,-12,-1,1,-4,-8,6,-5,-3
117297698645,10,-6,-1,-1,-3,-16,0,-7
117297698645,-10,-6,-6,-3,-4,-4,3,2
117297712161,3,3,-5,0,0,-1,7,-16
117297712161,-2,-13,-12,-2,-4,-9,-8,-11
117297712991,6,6,-1,3,-3,6,7,40
117297712991,-14,-9,-9,0,7,8,-10,1
117297726497,-13,-23,-20,-3,-5,-9,-7,27
117297726497,25,-7,-7,-3,-4,-11,-4,8
117297734609,-59,3,-3,0,4,20,3,0
117297734609,49,9,-1,1,-11,-38,2,63
117297749202,-36,-10,-13,-5,-3,18,10,-23
117297749202,26,7,-18,4,3,-22,-23,-7
117297757189,-13,-4,-34,-2,3,7,0,5
117297757189,-41,3,54,-1,1,-2,-15,-63
117297772241,-2,-2,110,-2,-2,-24,2,7
117297772241,-18,7,63,1,-7,-7,-9,-19
117297772908,11,-1,86,-2,-2,-18,-1,16
117297772908,-15,-11,-80,-3,1,17,-11,-19
117297786431,8,1,-93,-1,1,-4,-1,2
117297786431,-8,0,-109,-3,0,5,4,-9
117297794606,8,1,-128,-1,-3,-8,0,-3
117297794606,-4,-2,-121,-4,-6,-13,-11,-3
117297808947,17,4,-125,-1,4,23,12,23
117297808947,3,4,-89,1,1,-23,-4,8
117297817886,-10,0,-13,2,0,-1,-5,-8
117297817886,19,2,-28,0,-3,-1,0,23
117297831503,-4,3,-60,1,-3,-13,-14,-19
117297831503,-7,-7,-14,2,-1,23,14,4
117297840448,18,-4,-93,1,4,-7,-4,-3
117297840448,-6,-3,-45,-3,-3,4,7,-5
117297846728,-17,1,0,-3,-9,1,-11,-42
117297846728,-5,5,95,2,9,-10,-8,-44
117297855481,2,-2,127,0,3,15,5,20
117297855481,9,-2,127,0,3,-4,0,3
117297868945,-4,1,75,0,-2,1,4,-16
117297868945,-6,-1,32,-7,-9,-5,-6,8
117297877988,-1,-3,14,-5,-3,-9,-14,-25
117297877988,-7,3,36,4,2,5,2,-2
117297891458,7,-1,81,-2,-1,-2,4,15
117297891458,0,-2,108,2,2,7,3,19
117297900534,3,-1,73,0,-2,1,1,-23
117297900534,5,3,75,-1,-4,-13,-6,59
117297906474,13,-5,68,-3,-4,-3,-7,-2
117297906474,6,-1,20,-2,-1,-11,11,14
117297915436,7,-2,8,2,6,23,3,-23
117297915436,-8,1,20,-1,-2,-1,4,-6
117297929137,4,2,16,2,8,20,2,3
117297929137,-7,-2,-12,-2,-3,-24,-9,14
117297938085,3,-3,-5,-2,-5,1,-3,-2
117297938085,-4,-2,1,-3,-2,-5,-2,-18
117297951436,-6,0,-11,-1,1,-5,-7,0
117297951436,-11,-6,-19,-5,-4,11,1,-6
117297960473,3,-1,-7,-2,-7,-14,-4,-1
117297960473,-13,-1,-14,-2,2,7,-3,-55
117297966728,-1,-1,-5,5,4,3,8,16
117297966728,-6,0,-4,0,-1,7,0,-8
117297975516,1,-1,-10,-3,-3,-9,-1,10
117297975516,-4,-4,-16,-1,-6,0,-2,-6
117297989190,-1,0,-10,-3,-7,-15,-2,-3
117297989190,-1,-1,-7,4,3,-6,-8,2
117297997983,-1,-1,-6,7,5,1,4,-3
117297997983,-1,0,-9,-5,0,8,4,3
117298011656,-13,-1,-7,-6,1,1,0,-55
117298011656,14,-1,-14,-2,-4,11,2,39
117298020444,-4,0,-12,-1,-8,-13,-8,-1
117298020444,-3,-1,-3,1,-2,-7,-3,4
117298026560,0,-1,-3,10,2,-1,-1,-18
117298026560,-3,-1,-9,1,6,1,-9,-6
117298035502,3,-3,-7,0,0,1,2,6
117298035502,2,1,-3,1,0,-2,-2,0
117298049224,0,0,-12,-4,-3,1,1,11
117298049224,-4,-1,-10,-6,-8,-2,-2,-10
117298058011,0,-2,-7,3,-1,-6,-3,6
117298058011,-2,0,-5,-5,2,6,3,2
117298071465,1,-1,-4,7,0,-1,2,13
117298071465,-1,-1,-4,2,2,4,4,-1
117298080492,-1,-1,-2,-1,-2,-2,-2,-6
117298080492,-3,-3,-4,2,-1,-6,-5,-5
117298086447,2,1,-6,-13,-5,-7,-4,6
117298086447,-1,0,-4,-3,-4,0,1,-3
117298102939,1,-1,-6,-7,-1,2,3,0
117298102939,-2,-1,-5,14,4,1,-1,-1
117298109158,1,-2,-3,11,4,0,1,12
117298109158,-3,1,-3,8,-2,3,-3,-6
117298118024,0,-3,-6,-9,-4,-3,-2,-2
117298118024,-3,0,-2,6,1,-3,0,2
117298131754,-1,-2,-4,-2,-2,-1,-2,2
117298131754,-2,-1,-5,-2,0,1,0,-7
117298140478,0,-3,-4,-5,-2,-5,-3,4
117298140478,1,-1,-4,-9,-4,3,0,-1
117298155472,1,-2,-2,5,1,-8,-4,4
117298155472,-1,-1,-1,-10,-1,3,-1,-4
117298156978,0,-2,-2,11,-2,-4,-1,-12
117298156978,-1,0,-3,-28,-4,4,1,12
117298169046,0,0,-2,-2,2,1,0,1
117298169046,-2,-1,-2,-5,1,0,0,0
117298177962,-1,-1,-2,-7,-2,2,-1,-1
117298177962,-2,-3,-2,11,-2,-6,-2,-5
117298191675,-2,-2,-3,-18,-6,0,0,-2
117298191675,-1,-2,-2,-2,2,0,-2,-1
117298200562,-1,-2,0,3,-2,0,0,-1
117298200562,-1,0,-6,-16,-6,-5,-3,-5
117298215417,0,-1,-2,-11,-4,0,-1,3
117298215417,-1,-2,-4,1,-2,0,-2,-1
117298216981,-1,-1,-3,3,1,-1,-1,0
117298216981,-2,-1,1,2,0,-3,0,-1
117298229135,-1,0,-2,2,0,-2,-1,-2
117298229135,-1,-1,-2,-1,-1,0,0,-2
117298237923,-1,0,0,0,-2,-1,0,-1
117298237923,0,-1,-1,10,-1,-1,-1,0
117298251473,-3,-1,-2,-2,-2,-1,-3,-2
117298251473,-3,-3,-2,7,0,-2,0,-1
117298260477,-3,-1,-1,5,1,-2,-1,0
117298260477,-2,0,0,-1,-1,-1,-1,-2
117298275266,0,0,-1,3,-1,-3,2,0
117298275266,0,-2,0,-3,-3,-2,0,-1
117298276898,-2,0,0,3,4,1,-1,0
117298276898,0,-2,1,15,-4,-3,-2,-3
117298288958,-2,-3,0,-23,-4,1,-1,-1
117298288958,-1,-1,-2,5,0,0,-2,0
117298297942,-2,0,-2,-12,-2,-1,-2,-1
117298297942,-1,-1,-1,1,2,-2,-2,0
117298311488,0,-1,-1,20,3,0,0,0
117298311488,-2,-2,0,3,-3,-2,-1,-2
117298320441,0,0,0,-5,-1,-3,-1,-1
117298320441,-1,0,0,1,-1,-1,0,-1
117298335342,-2,-1,0,-12,-3,-1,-1,-2
117298335342,-1,0,-1,0,0,0,-3,-1
117298336912,-1,-1,-1,1,0,-1,-1,-1
117298336912,-7,-5,-4,-7,-2,-3,0,-1
117298348967,10,6,0,0,-3,-1,-1,-5
117298348967,3,1,-2,-1,0,0,0,6
117298357967,4,4,-1,-4,-2,-1,-2,-10
117298357967,-2,-11,-3,-6,-1,-1,1,10
117298371551,2,-3,-2,2,0,-1,0,3
117298371551,-1,-1,1,-3,-2,-3,0,-2
117298380472,4,2,0,-3,-2,-2,-1,-1
117298380472,4,8,1,-4,0,-1,-1,-3
117298395454,-3,-5,-3,4,1,-2,-2,1
117298395454,-1,-1,-1,-3,0,-1,1,-2
117298396882,-3,-3,-1,-6,-1,-2,0,2
117298396882,-3,-1,-1,0,1,-1,-4,-7
117298409208,-3,-2,0,2,-2,-1,0,3
117298409208,-26,8,-5,-9,-6,-5,-6,-15
117298417931,0,-8,-1,4,-2,-1,0,1
117298417931,-2,10,4,-2,0,0,1,-1
117298431680,20,16,2,1,-1,-1,0,-3
117298431680,-6,-3,1,-2,-1,1,-1,-1
117298440491,4,3,-2,0,-2,0,0,2
117298440491,-2,-7,-2,1,0,0,-1,0
117298455477,9,33,0,-2,-2,-2,-1,-2
117298455477,-9,-27,-2,1,-1,1,-1,2
117298456968,4,-4,-3,-1,0,0,-2,0
117298456968,-23,-19,-5,-8,-2,-2,-1,-4
117298468961,-1,-1,-2,2,0,-1,-1,-1
117298468961,5,6,-2,-1,-2,-3,0,1
117298478029,-11,-7,-2,2,-2,0,-1,1
117298478029,16,-1,-4,-3,-1,-1,-2,-3
117298491645,-19,-10,6,-7,-1,-2,-1,-2
117298491645,11,19,7,10,1,0,-1,1
117298500506,-1,-32,-16,-7,-2,0,-1,0
117298500506,10,13,6,4,0,1,0,-1
117298515523,-8,-13,-6,-3,-2,-1,-1,-1
117298515523,21,7,4,3,-1,-1,-2,0
117298517037,8,15,2,-1,-1,-2,-1,-1
117298517037,-26,-6,-5,-1,0,-2,-2,-8
117298529245,-3,-11,-1,1,-1,-1,0,10
117298529245,-7,-6,-4,-7,-2,1,0,-2
117298537959,-3,5,0,-2,0,-1,-2,-1
117298537959,8,0,-4,-2,-2,0,-3,0
117298551559,-6,-4,2,3,-1,-2,-1,-4
117298551559,-2,1,-6,-6,-2,-2,-1,-1
117298560474,-4,-2,2,-2,-2,-2,-2,1
117298560474,5,4,0,2,0,0,0,0
117298575310,-4,-5,-3,-2,-2,-1,-2,-2
117298575310,4,0,-3,-2,-1,0,0,0
117298576979,-4,-1,2,0,-1,0,0,-4
117298576979,0,0,-1,-2,-2,-3,-2,0
117298589173,5,-8,-3,1,-1,-2,-1,-4
117298589173,-4,-3,-1,-4,0,0,2,0
117298597961,-4,4,2,-1,-2,-2,0,-1
117298597961,0,-2,0,-2,-1,0,-2,0
117298611680,-5,-8,-4,-1,-3,-1,-3,-2
117298611680,3,-8,-3,-1,0,-1,-2,0
117298620473,-1,7,2,0,0,0,0,0
117298620473,1,2,0,-1,-1,-1,1,-1
117298635403,-3,-3,-2,0,0,0,1,-4
117298635403,5,-6,-3,-1,0,-1,-1,0
117298636929,17,6,2,2,0,1,1,-1
117298636929,2,-3,-2,-4,-3,-3,-2,-1
117298649154,-6,2,-1,1,-1,-1,-2,-2
117298649154,-7,2,1,-2,-1,-1,-2,-1
117298657940,-5,-3,-1,-1,-1,-1,-2,-1
117298657940,-3,-4,0,1,-1,0,-2,-3
117298671493,1,-1,-3,0,1,-2,-1,-2
117298671493,-1,0,-1,-2,-2,-2,-1,-1
117298680538,-6,-1,-2,-3,-2,-2,-1,-3
117298680538,0,-13,0,-1,-1,-1,1,1
117298695370,-6,0,-4,-3,0,-1,0,0
117298695370,-12,-8,-3,-1,-1,0,-1,-1
117298696917,3,5,0,-2,-1,-1,-2,0
117298696917,1,6,0,-3,-1,1,-1,-1
117298718056,12,2,2,-1,-2,-1,0,0
117298718056,13,11,0,-1,-1,-2,0,1
117298719441,-10,-7,-4,-1,-3,-3,-3,-1
117298719441,3,-6,-3,0,0,0,0,-3
117298731567,-3,-3,-1,0,-1,1,0,-1
117298731567,-3,-10,-2,0,-2,0,1,-3
117298740476,-4,-9,-1,0,-1,-1,-2,-1
117298740476,0,7,-1,-4,-2,-1,-1,0
117298755617,-4,2,-2,-1,-1,-1,-3,7
117298755617,0,0,-2,0,0,-2,-2,0
117298756888,-1,5,-3,-2,0,-1,-2,1
117298756888,-7,-5,-1,0,-1,-3,0,-1
117298769022,-4,-4,-2,-1,1,1,0,-3
117298769022,0,0,-1,-3,-2,-1,0,-2
117298777997,-1,-1,0,0,-2,0,0,0
117298777997,1,3,-2,0,0,-1,0,-2
117298791491,-2,-1,-2,-2,-2,-2,-2,-2
117298791491,-3,-3,-1,-1,-1,-1,-2,-1
117298800449,-3,-5,-2,-1,-1,-1,-1,-5
117298800449,0,0,-1,-2,-1,-1,-1,0
117298815604,-3,1,0,-2,-1,-3,-1,-2
117298815604,-2,-3,-1,-1,-1,-2,0,-2
117298817061,-6,-10,-2,-2,-1,0,-1,-2
117298817061,-7,-3,-3,-2,-1,-2,0,1
117298829022,0,0,1,1,0,1,1,-2
117298829022,3,3,0,-2,-1,-1,-2,-1
117298838036,-3,0,-1,0,-1,0,-3,-1
117298838036,-7,-6,-4,-1,-3,0,-3,-2
117298851527,3,2,-4,-2,-3,0,-1,-1
117298851527,3,1,-1,-1,-1,-1,-1,-2
117298860515,8,5,1,1,0,-2,0,0
117298860515,0,-1,2,-2,-1,-1,-1,-4
117298874875,-5,2,-3,-1,-1,-2,-2,1
117298874875,1,-7,-1,-1,-2,-1,0,-1
117298881646,2,2,-1,-2,0,0,-1,0
117298881646,-3,-1,0,0,-2,-1,-2,-3
117298888990,0,-1,0,-3,0,0,-1,-1
117298888990,-4,0,-3,0,-2,0,-3,-1
117298897978,-2,-2,-2,-1,-1,-1,-2,-3
117298897978,0,1,-3,1,-1,-3,-1,2
117298911680,-4,-7,-2,1,-1,1,-3,-1
117298911680,-2,-2,-1,-2,-2,-1,-1,1
117298920443,-5,-3,-2,-2,1,-2,-1,0
117298920443,13,1,-1,-1,0,-1,-1,1
117298934706,-1,-5,-1,0,-1,-2,0,-2
117298934706,-3,-2,-1,-1,-1,-1,-1,-2
117298941445,-2,-1,-3,0,-2,-2,-1,-2
117298941445,6,5,-1,1,0,0,-1,0
117298949164,-14,-17,-1,-1,0,-2,-2,-2
117298949164,-3,0,-2,-1,-1,-2,-3,-1
117298957957,-1,-2,-2,-3,-2,-2,-1,1
117298957957,4,1,-1,-1,-2,-2,-1,2
117298971484,2,2,-1,0,-1,0,-2,-2
117298971484,6,3,1,0,-1,-2,-1,-9
117298980396,-17,-6,-1,-2,-2,-1,-2,4
117298980396,0,2,0,-1,0,-1,-2,-1
117298994659,0,3,1,1,-1,-1,0,-1
117298994659,1,-2,-2,-1,-1,-2,-2,-1
117299001404,0,-2,-1,0,-1,1,0,-4
117299001404,-5,-3,-1,-1,-1,-1,-1,-1
117299008990,2,2,-4,-1,-1,-1,-1,-2
117299008990,-4,-1,-1,0,-1,-1,-1,2
117299017899,0,0,0,-2,0,-1,-1,-3
117299017899,-1,-2,2,0,0,-1,-3,1
117299031457,-9,-7,-1,0,-4,0,-1,-1
117299031457,-4,-2,-3,1,-2,0,-2,0
117299040411,4,0,-2,1,-2,-1,-1,-1
117299040411,0,-4,-2,-1,0,-1,-2,-3
117299054599,2,-3,-3,-3,-2,-1,-2,-2
117299054599,-2,-2,0,-1,-1,0,0,2
117299061488,0,2,0,0,-2,0,0,-1
117299061488,-3,-2,-4,-3,0,-1,0,-2
117299076825,12,4,0,-1,0,-2,0,-2
117299076825,-7,-3,0,-2,0,-1,0,1
117299101108,1,0,0,-1,-2,0,-1,0
117299101108,-5,-1,-1,-2,-2,-1,-1,-8
117299101786,0,5,-1,-1,-1,-2,0,4
117299101786,0,0,-1,-1,0,0,-1,0
117299103389,0,-1,-2,0,0,0,0,0
117299103389,-2,1,-1,0,-2,-1,0,-2
117299114612,-3,0,-1,-2,-2,-1,-1,-2
117299114612,-1,0,0,-2,-3,-2,-1,-1
117299121589,0,-1,-2,-3,-1,-2,-2,-1
117299121589,-2,-1,-2,-2,-2,-1,-2,2
117299137940,1,2,-2,-1,0,0,-1,-2
117299137940,-2,0,-2,-1,-3,-1,1,0
117299139393,0,-2,-1,-3,1,-1,1,-2
117299139393,-2,-3,1,-1,-2,-1,0,-1
117299151502,-1,-1,0,0,-1,-2,-2,-2
117299151502,1,-2,-3,-4,-1,-2,-1,-3
117299160495,1,0,1,0,-2,0,-3,-2
117299160495,-1,0,-1,0,0,-1,-1,0
117299174615,-1,0,-2,-1,-1,-3,0,-1
117299174615,-13,-2,-2,0,-2,-1,-2,-3
117299181418,1,-4,-2,-3,-1,0,-1,1
117299181418,-2,-1,0,-2,-3,1,-1,0
117299197844,-6,-4,0,-2,-2,0,-3,-2
117299197844,5,2,0,-2,-1,0,0,0
117299199588,-3,-2,0,-1,0,-1,-1,-1
117299199588,-1,1,-2,-1,-1,-1,0,0
117299211408,0,-1,0,-2,0,0,0,-1
117299211408,-1,-4,-3,0,0,0,-3,-8
117299220479,-18,-5,-3,-3,-1,-1,-1,4
117299220479,5,22,1,1,0,-1,0,-1
117299234687,3,-17,-2,0,-1,-2,-1,0
117299234687,-11,-3,0,-2,1,0,0,-1
117299241404,1,0,0,-1,-1,-1,-1,-3
117299241404,-1,1,-2,0,-2,-1,0,1
117299257800,-1,8,-2,-2,-3,-2,0,-1
117299257800,4,-2,-1,0,-2,-1,-1,0
117299259390,3,-2,0,0,-1,-2,0,-4
117299259390,-4,-9,0,0,-1,-4,-3,0
117299271453,0,2,0,0,0,-1,-2,-2
117299271453,0,-5,0,-1,1,0,-1,0
117299280441,2,5,-1,-2,-1,-1,1,-1
117299280441,-3,-8,-2,-2,-1,0,-1,-2
117299294641,-3,0,-1,-2,0,1,-1,-2
117299294641,0,5,-1,-2,-1,-2,-2,-1
117299301361,2,0,-1,-1,-3,-3,-2,-1
117299301361,-2,-4,-2,0,-1,-1,-1,-1
117299318018,-1,-3,-1,0,-1,-1,-1,-1
117299318018,0,2,-1,1,-1,-1,0,1
117299319391,0,-2,-2,-1,0,-1,-1,-1
117299319391,1,3,0,0,-1,-1,0,-1
117299340282,-5,-2,-5,-4,-2,-4,-4,-6
117299340282,2,3,1,0,-2,-1,-1,6
117299341880,-1,-5,-3,0,-2,-2,-1,-1
117299341880,-5,1,-2,0,-2,0,0,0
117299354635,-1,2,0,0,-1,-1,0,1
117299354635,-2,-3,-1,-2,-1,-2,-2,-4
117299361438,1,1,-1,-1,-2,-2,-1,-2
117299361438,1,-6,-2,-1,0,-1,0,0
117299377730,-1,-1,-2,-1,1,0,-1,-1
117299377730,-1,1,-1,0,-1,-3,-2,-1
117299379326,-2,1,-1,-2,-1,-2,1,1
117299379326,-1,-7,-2,-3,-2,-3,-1,-2
117299391380,0,0,-1,1,0,0,1,0
117299391380,-1,-1,-1,0,1,-1,1,-1
117299400665,0,0,0,0,-2,-1,-2,-3
117299400665,-4,-2,0,-1,-2,-1,-1,-3
117299415091,1,-1,-1,-1,0,0,-1,1
117299415091,1,-2,0,1,0,0,-1,1
117299421484,1,1,-1,0,0,-2,-2,-3
117299421484,1,-1,-2,-2,0,-1,-2,1
117299437993,-4,-12,-2,-2,-1,-1,0,-3
117299437993,13,1,-1,-3,-3,0,-1,-8
117299439399,-12,-6,1,0,0,-1,0,7
117299439399,5,8,1,0,0,-1,-3,0
117299451482,0,1,0,0,0,0,-2,0
117299451482,3,-7,-2,-2,-1,-1,-2,-1
117299460427,0,-3,-2,0,-1,-1,-1,-3
117299460427,-3,-5,-3,-1,-2,0,0,-1
117299474730,-3,4,-1,0,0,-1,0,0
117299474730,-3,-3,-1,-2,-1,-1,0,0
117299481576,0,4,0,-2,-1,0,-2,-2
117299481576,-2,-5,0,-1,-2,-2,0,-2
117299497761,4,2,0,0,-1,-1,-2,-2
117299497761,-4,-2,-1,1,0,-1,0,1
117299499398,0,-3,-2,-5,1,-1,-1,-3
117299499398,-2,-2,1,-1,-2,-2,-1,-3
117299511584,-2,-1,-2,-3,-2,-3,-1,-1
117299511584,-4,0,-2,-2,0,-1,-2,-1
117299520484,1,5,-1,-2,0,-2,-1,-3
117299520484,0,0,0,0,0,0,0,-2
117299534581,-4,2,-1,1,-2,-2,-1,4
117299534581,-4,-2,-1,-1,-1,-2,0,0
117299541406,2,2,-1,-1,-4,-1,0,-1
117299541406,0,-3,-2,-2,-2,0,-2,1
117299558017,-15,-2,-1,-2,-1,-1,-2,-2
117299558017,-4,0,-1,-1,-1,0,0,-1
117299559439,-7,-16,-4,-1,-3,-1,-2,-2
117299559439,2,4,-1,-1,0,-3,-1,-3
117299571514,2,-3,0,0,-1,-1,-1,-2
117299571514,-11,-9,-1,-2,0,-3,-2,-2
117299580505,-1,-2,1,-2,0,0,-1,-1
117299580505,-3,-4,-3,-1,-1,-1,-2,0
117299594651,3,1,0,-1,-2,-1,-1,0
117299594651,1,-2,-1,0,-2,1,-1,0
117299601408,2,3,-1,0,-2,-2,-1,-1
117299601408,-1,-2,-1,-1,-1,-1,0,-1
117299617789,3,1,1,-3,0,0,-1,-1
117299617789,0,1,-1,1,-2,-3,0,-1
117299619380,-4,-10,-2,-1,1,0,-2,0
117299619380,0,0,-2,-1,-2,-2,0,-1
117299640251,0,-2,0,0,-2,0,-2,-2
117299640251,0,0,-1,-1,-2,-1,-2,-1
117299641855,-2,-2,-2,-1,-2,-2,-1,-1
117299641855,-1,-4,0,-1,-1,-1,-1,-5
117299654774,3,-1,-2,0,-1,-2,0,2
117299654774,-2,2,-1,-1,-3,0,-1,-3
117299661442,10,0,-2,-3,-2,-1,-2,0
117299661442,0,0,0,-1,1,0,0,-3
117299677878,-5,-1,-1,0,-2,0,1,0
117299677878,4,3,-2,-1,-1,0,-1,0
117299679375,0,0,-1,-1,0,0,-2,-1
117299679375,-2,-3,0,-1,0,0,-2,0
117299691440,0,-3,-1,-2,-2,-1,-1,-2
117299691440,-1,-2,-3,0,-1,-1,-1,0
117299700407,-7,-6,-2,0,0,-3,0,-1
117299700407,-2,0,-1,-1,-2,-1,-2,1
117299715198,-2,0,-1,-1,-2,-1,-1,0
117299715198,-3,-4,-1,-1,0,-1,-1,-4
117299721475,-3,0,0,-3,-1,-1,0,-1
117299721475,-3,-1,-1,0,-3,-1,-1,1
117299737759,0,-1,-2,-2,-1,0,-1,-3
117299737759,0,1,-1,0,-1,-1,-1,-6
117299739467,2,1,-2,0,-1,-1,0,7
117299739467,-13,-3,-3,-4,-1,-1,-3,1
117299751624,1,1,0,0,-2,0,-1,-3
117299751624,-1,-1,0,-1,-2,-1,-1,0
117299760410,-1,2,1,1,0,-1,0,-4
117299760410,1,-4,-1,-2,-2,-2,1,-1
117299774541,-1,-3,-3,-3,-1,1,-1,0
117299774541,-6,-3,-2,0,-1,-2,0,-1
117299781615,3,2,1,-3,-1,-1,-2,-4
117299781615,2,1,0,1,0,-2,-2,0
117299797838,-3,-2,-1,-1,1,-3,-1,-3
117299797838,2,0,0,-2,0,0,1,1
117299799411,-9,-14,-3,1,-3,-1,-2,-2
117299799411,-1,-1,0,-1,-3,-1,-2,-2
117299811384,-1,1,-1,-1,-1,-3,0,-1
117299811384,-2,-2,-2,-2,-2,-2,-1,0
117299820466,1,4,0,1,-1,-1,0,-2
117299820466,-2,-1,-1,-1,0,-1,0,0
117299834687,-2,-4,-1,1,-1,-2,-2,-7
117299834687,0,0,-1,-5,-2,-1,-1,3
117299841415,1,1,-1,-1,-1,0,0,-2
117299841415,5,0,-1,0,0,-1,0,-1
117299857250,-11,2,-1,-1,-2,0,-1,-2
117299857250,1,2,-1,0,0,-1,-2,-1
117299864201,-1,-1,0,0,-1,-2,-3,0
117299864201,0,-1,-1,-3,-2,-1,-1,-1
117299871400,5,0,-1,-1,-1,-1,0,1
117299871400,-3,-4,0,-1,-1,0,-1,-2
117299880395,-4,0,-2,-1,-1,-3,-1,-1
117299880395,6,6,-1,-1,-2,-1,-3,-2
117299894607,4,-1,2,1,-1,-2,0,2
117299894607,-1,-1,0,0,0,-1,-2,-1
117299901370,4,4,1,-1,0,-3,-1,-3
117299901370,-1,-3,-1,-2,-2,0,-1,0
117299917054,-1,-2,-2,-4,-1,0,-2,0
117299917054,-1,-3,-1,1,-2,-1,-1,-1
117299923872,-1,0,0,-1,-1,-1,-2,1
117299923872,-6,-4,-3,-1,-2,-1,-1,-2
117299931440,0,1,0,-1,0,-3,-3,4
117299931440,-2,-2,-1,1,-1,-1,-1,-2
117299940658,-3,0,-3,-2,-2,0,-1,-2
117299940658,-2,-4,0,1,-1,-1,-1,2
117299954720,0,-2,-3,-1,-1,0,-1,-4
117299954720,-1,-1,1,-2,-1,-1,-3,0
117299961410,0,-1,-2,-1,-1,-1,-2,0
117299961410,7,-6,-3,-2,1,-1,-1,-2
117299977414,-10,4,-1,-1,0,-1,-1,-3
117299977414,0,-2,-3,-1,0,-1,0,-2
117299984185,-1,-1,0,-1,-1,-1,-1,-1
117299984185,-1,-2,-1,1,-1,-1,-1,-1
117299991576,2,-2,0,-2,-1,-3,-1,-1
117299991576,-2,0,-2,-1,-2,-1,-1,-1
117300000482,-4,0,-3,0,-1,0,-2,-2
117300000482,-4,-1,-1,-2,-2,-2,0,-2
117300014715,1,-2,-3,-3,-1,0,-3,-8
117300014715,-1,-1,-1,-4,-2,-1,-1,1
117300021466,2,-2,2,-1,1,-2,-1,-1
117300021466,-3,0,-1,-2,-3,-1,-3,-1
117300052917,0,-1,0,-1,-1,-1,-1,-1
117300052917,2,5,-1,1,-1,-1,-1,-2
117300054422,-2,-1,-1,-1,-1,-2,-1,0
117300054422,-3,-1,0,-1,-1,-1,-2,-2
117300060402,-4,-5,-3,-2,-3,-1,-2,0
117300060402,-1,0,0,0,-2,-1,-1,-2
117300061930,1,-2,-1,-3,-2,1,-1,0
117300061930,0,0,-1,-2,1,-1,-3,-2
117300074641,-10,-6,-3,-2,-2,-3,-1,-1
117300074641,-3,-2,1,-1,-2,-1,-3,0
117300081667,0,-1,0,1,-1,0,0,-3
117300081667,-4,-4,0,-3,-2,-1,1,0
117300097349,2,-2,-2,-1,-1,0,0,0
117300097349,0,0,-3,-2,-2,-1,-1,-3
117300103915,-4,-2,-1,1,-1,1,0,0
117300103915,-2,-9,-1,-2,-1,-2,-3,-2
117300120259,5,2,1,0,0,-4,-1,-2
117300120259,-1,-2,-1,0,-2,-1,0,0
117300122006,2,0,-2,-1,0,-3,-1,-2
117300122006,-2,1,-1,-2,0,-2,1,-1
117300134737,-1,-2,-3,-1,-1,-1,-2,-3
117300134737,-3,1,-1,0,0,-3,-1,0
117300141437,1,1,0,-2,-2,1,-1,-1
117300141437,-2,3,-1,0,-1,0,-2,-2
117300157170,-1,1,-1,0,-2,-1,1,0
117300157170,1,-1,-2,-1,0,-1,-1,-2
117300164012,-4,-2,-2,0,-2,-1,-3,0
117300164012,-1,0,0,1,0,-1,-1,-2
117300180425,1,-2,0,-1,-1,-1,0,0
117300180425,-2,-2,-1,-1,0,-2,-1,0
117300181904,-1,-2,-3,-2,-1,-3,0,-2
117300181904,-3,0,-1,0,-2,-2,-1,0
117300194854,-2,0,-1,0,0,-1,-2,1
117300194854,4,0,0,-2,-2,1,0,-2
117300201423,-3,-1,-2,-2,-1,-1,-1,-6
117300201423,3,1,0,-2,0,0,0,8
117300217475,0,-1,2,1,-1,0,0,-1
117300217475,4,-3,-1,-1,-1,-1,0,-1
117300224217,-11,-2,0,-2,-2,-1,-3,-1
117300224217,-4,-5,-2,1,0,-1,-2,-4
117300240414,4,2,1,-1,0,0,-1,-1
117300240414,5,2,0,-4,-2,-1,-2,0
117300241922,4,5,1,0,-1,0,-1,1
117300241922,-2,-5,-1,1,-1,-1,0,-2
117300254635,-5,-3,-2,-1,-2,-1,0,1
117300254635,-2,2,-1,0,-1,-2,-2,-1
