timestamp,emg1,emg2,emg3,emg4,emg5,emg6,emg7,emg8
84107484256,-4,-3,-3,5,1,2,0,-1
84107484256,1,4,0,2,-1,0,0,4
84107491003,-3,-5,-3,-16,-6,0,-2,-10
84107491003,1,-19,-5,-3,-2,-2,-1,7
84107507340,0,3,3,5,1,-1,0,-4
84107507340,-3,2,1,6,1,-1,0,-1
84107508947,-4,-6,-5,-5,-1,-1,-1,-7
84107508947,-3,6,2,4,-1,-1,-1,-1
84107529835,0,-3,-4,-5,0,-2,-1,-6
84107529835,-4,-1,2,1,-2,0,-2,1
84107531493,-1,19,1,-1,-3,-3,-1,-3
84107531493,5,-17,-1,0,2,-1,-1,2
84107544221,-7,-2,-3,2,-2,-2,-2,1
84107544221,-3,1,1,0,0,0,0,-6
84107551013,-2,0,-3,2,0,-1,-2,-6
84107551013,-4,8,3,-2,0,-2,0,14
84107567109,6,1,-6,-3,-4,0,3,-4
84107567109,-5,-4,0,-11,-3,-1,-2,8
84107573464,-6,-9,0,6,-2,1,1,1
84107573464,1,3,2,5,-1,-2,-3,-9
84107589869,-1,1,6,5,4,-1,-1,-6
84107589869,0,21,-2,-7,-5,-2,-2,-1
84107591479,1,-6,-4,-3,-2,-1,-3,-8
84107591479,1,3,-1,-1,-1,0,2,3
84107603530,-1,1,0,-4,-2,-1,-2,-2
84107603530,-4,-4,-2,3,0,0,-1,0
84107612460,14,-11,0,3,1,-2,-1,-10
84107612460,2,10,1,-4,-1,-1,-1,8
84107627317,1,6,2,-1,1,-1,-3,6
84107627317,0,-6,-7,-6,-2,-1,3,2
84107628934,-4,-3,-1,2,-1,-2,-3,-9
84107628934,-3,-4,-4,-1,0,-3,1,3
84107657316,2,19,-2,0,-4,-2,-4,-3
84107657316,4,-8,0,6,0,2,0,9
84107658924,4,4,-2,-5,-2,-1,0,-13
84107658924,1,25,0,-1,2,0,-4,-3
84107663483,-1,-10,-4,-2,-5,0,0,3
84107663483,-6,-5,-2,-2,2,-1,-5,-6
84107672479,-7,-2,-1,2,-1,-1,1,1
84107672479,0,0,-1,-4,-3,0,-1,-6
84107687335,-11,-8,-3,-4,-1,-2,-2,-12
84107687335,2,-1,-1,2,-1,0,-4,-19
84107688960,-7,-6,-3,-1,0,0,3,16
84107688960,-1,-7,-1,-5,0,1,1,-6
84107709893,-2,-1,-1,4,-2,0,-1,3
84107709893,-17,-33,-6,3,-3,-5,-2,0
84107711498,-4,4,-1,-7,-1,-1,-2,1
84107711498,-4,-5,-3,-1,-4,-2,-2,3
84107723506,-4,-4,-2,7,1,3,2,-9
84107723506,2,11,2,1,-2,-1,0,2
84107732500,2,0,0,0,0,1,-1,5
84107732500,-4,-11,-3,-3,-8,-2,0,-7
84107747330,7,-2,1,-3,0,-2,-2,0
84107747330,2,4,0,-3,-1,0,-4,-5
84107748945,-6,-3,-2,-1,1,-1,-1,7
84107748945,0,0,0,1,-1,1,-4,-8
84107769802,0,1,-2,-3,0,-2,2,5
84107769802,-2,1,-2,8,2,-2,-2,-1
84107771457,0,3,-2,-11,-5,-1,-2,-2
84107771457,-2,-1,-2,2,2,0,-2,-4
84107783492,1,-3,0,-4,-2,-1,-2,-4
84107783492,1,21,0,-1,0,-1,2,7
84107792494,-1,-2,0,5,1,-1,-1,-3
84107792494,1,18,-1,-7,-8,-3,-2,-2
84107807393,0,-10,1,-1,-1,-1,-1,-4
84107807393,2,2,-5,-11,-1,-1,1,2
84107808990,-3,-1,2,7,-3,-2,-3,-4
84107808990,0,-1,-10,1,1,-2,-1,1
84107829837,-2,4,-2,-5,-1,-2,-1,-1
84107829837,0,-3,-3,2,-2,-2,1,-8
84107831394,0,-1,-2,-6,-3,0,-1,2
84107831394,-2,-12,2,8,2,-2,0,-2
84107852371,2,-4,-2,3,4,1,-1,3
84107852371,0,-7,2,-8,-5,-1,-2,-1
84107853980,2,-2,1,18,4,1,3,2
84107853980,-4,-5,-14,-16,-3,0,-1,-1
84107867329,3,0,9,-3,-1,-2,-2,3
84107867329,-1,3,12,-1,1,-1,0,4
84107868989,-3,-3,-30,-14,-4,-4,-4,-5
84107868989,-1,-4,12,19,1,-1,-3,-2
84107889835,-8,-4,0,-3,-4,-3,-1,-4
84107889835,1,-7,-11,-9,-2,-1,1,2
84107891516,1,3,15,-6,-1,1,-1,-1
84107891516,-1,-4,-1,-1,2,0,-1,-2
84107903512,0,0,-14,-7,-1,-2,0,4
84107903512,-5,-7,-1,12,-8,-7,-11,-9
84107912543,0,0,3,6,5,7,3,1
84107912543,-4,-4,3,-1,-6,-4,-4,-7
84107926738,2,0,-6,-26,-2,1,4,3
84107926738,13,-1,-7,-9,0,3,2,11
84107933511,-26,-5,-4,17,2,0,-3,-9
84107933511,-4,-4,-2,3,-2,0,-3,-3
84107949891,-2,0,-1,3,-2,-2,2,1
84107949891,-3,-2,-10,-12,4,-8,-5,-2
84107951491,4,-2,-5,-14,-8,-1,-2,0
84107951491,7,-1,8,8,0,-1,-1,2
84107963493,16,-1,12,25,1,0,-3,3
84107963493,-32,-3,3,5,-2,1,-5,-11
84107972514,8,-1,-1,-9,3,-1,1,1
84107972514,-17,3,-11,-17,-7,1,-1,-2
84107986714,11,2,3,21,9,2,4,9
84107986714,8,1,2,2,7,1,0,0
84107993459,15,-3,-15,-14,-16,-16,-3,-2
84107993459,-7,-2,4,2,12,21,6,2
84108017453,-5,1,0,-7,-4,-4,-8,-6
84108017453,3,0,1,0,0,-2,0,-2
84108019004,-7,-3,1,18,4,2,-2,-6
84108019004,15,2,2,12,-2,-8,-3,7
84108023610,-10,-3,-6,-9,6,0,5,-8
84108023610,-10,2,2,-14,-2,6,3,4
84108032491,30,4,10,14,-7,-8,-7,2
84108032491,-1,-4,-4,-13,5,1,6,3
84108046732,-28,-7,-5,0,-16,11,-11,-20
84108046732,0,-2,-5,2,-11,-24,-2,1
84108053540,-2,1,5,-8,6,-3,3,2
84108053540,5,-1,-2,-5,-3,-14,-6,2
84108069835,15,-1,-5,-7,6,9,-1,-2
84108069835,-3,5,3,4,-5,2,0,-1
84108071423,6,-20,5,-7,-3,2,-3,7
84108071423,-13,-4,-3,14,7,15,11,-8
84108092408,27,9,-2,-12,-3,-9,1,8
84108092408,-23,0,1,-2,2,8,-3,0
84108093984,-60,-4,-4,-2,-2,0,-1,-16
84108093984,21,3,0,2,-3,-13,-8,1
84108106723,-8,-11,-7,-10,-21,7,-5,-7
84108106723,-25,-3,-3,-2,-4,-41,8,6
84108113492,23,9,1,7,8,14,10,22
84108113492,-4,-1,0,-11,-8,-8,-8,-23
84108129823,28,1,-1,16,22,23,13,11
84108129823,22,0,-1,-12,-20,5,0,-12
84108131457,6,2,1,-8,-1,-5,20,21
84108131457,4,3,3,13,2,3,-19,-1
84108152400,-16,-7,-2,-2,0,-18,-14,3
84108152400,3,2,0,-2,10,14,-2,-6
84108153984,1,-11,-7,-12,-9,7,-6,-22
84108153984,7,-2,-1,17,3,-14,1,-6
84108166713,-18,-3,3,-8,-17,-2,-1,12
84108166713,21,7,1,-3,13,5,-13,-29
84108173485,22,3,1,2,-15,-6,-7,31
84108173485,-14,0,-3,-7,6,1,10,-11
84108189853,-8,2,-1,-2,0,-4,9,18
84108189853,6,-2,4,24,17,12,13,7
84108191480,26,4,-1,-21,-34,-3,-10,-2
84108191480,-46,-5,0,1,0,-10,0,-33
84108212383,-12,-16,1,-3,10,5,-18,-27
84108212383,14,0,4,2,-11,-4,5,16
84108213980,-34,-2,-3,3,17,-8,1,3
84108213980,-7,1,1,9,11,14,4,14
84108225974,-9,2,-2,-14,-20,-18,2,-7
84108225974,5,-5,-5,-8,-1,12,-15,-2
84108235017,-7,-3,0,11,13,-2,8,1
84108235017,8,-3,-6,-6,-11,0,0,11
84108249871,6,2,-11,-6,8,2,-5,-12
84108249871,11,0,-3,-4,-14,-27,13,60
84108251441,-13,8,-9,-9,-4,7,-11,-30
84108251441,11,-15,0,-1,8,5,19,27
84108272381,5,22,5,17,8,-7,-10,7
84108272381,30,0,-3,-5,-16,-11,-1,-4
84108273966,-46,1,7,0,8,4,2,-22
84108273966,29,-1,-8,-25,-18,37,0,-5
84108285975,1,-1,4,12,12,-32,9,6
84108285975,3,4,4,0,18,15,0,1
84108294962,15,-2,-1,23,-8,-5,-18,-10
84108294962,-1,1,-3,-2,-10,-18,-4,-1
84108309931,8,7,1,-21,-7,25,23,2
84108309931,-20,-9,3,30,17,-1,-14,-22
84108311505,2,-6,-9,-25,-9,-20,-15,-3
84108311505,1,-3,-8,-28,-18,9,9,-17
84108332373,-4,0,4,45,21,2,-4,-1
84108332373,14,-5,-8,-25,-20,-10,4,19
84108334024,0,0,1,1,17,10,7,0
84108334024,-30,-5,-4,8,2,-9,-13,-2
84108346143,-8,-10,-6,-11,-3,-8,-5,24
84108346143,-22,-6,-4,-15,-13,7,-1,-42
84108355009,11,0,0,16,-8,-4,3,4
84108355009,9,5,0,-6,10,-3,-4,11
84108377609,-11,-7,-2,-1,0,4,1,6
84108377609,0,-1,0,8,-6,-5,0,6
84108379010,4,5,-5,-34,-7,-7,-8,-16
84108379010,-11,-1,4,16,10,2,4,-18
84108392624,-2,-2,-1,20,2,5,-6,-20
84108392624,-11,-12,1,-3,-2,2,9,-7
84108394011,12,2,2,1,9,-4,-6,1
84108394011,-3,-2,-4,-14,0,-4,-3,1
84108406262,3,-20,-4,-20,-39,-7,6,8
84108406262,-9,1,-6,7,4,3,-11,-9
84108415059,-6,-3,3,10,11,0,5,3
84108415059,18,1,1,-6,4,0,-1,7
84108429895,3,9,2,7,0,-6,-1,2
84108429895,-17,-2,-3,-11,-8,2,-16,-15
84108431456,4,3,1,-2,1,6,7,3
84108431456,10,18,-2,-21,-13,-9,-6,1
84108452647,-33,-13,-1,4,3,-7,-10,-34
84108452647,15,11,5,17,27,7,8,17
84108454036,15,-2,-6,-43,-28,0,-5,12
84108454036,-70,-18,3,45,0,-11,-17,-17
84108466087,15,31,5,-8,0,3,0,-14
84108466087,-14,-38,-12,-2,1,-5,-3,-2
84108475072,16,3,-3,8,7,0,-5,6
84108475072,25,5,-1,-23,-9,-3,2,-20
84108490154,-10,-19,-4,16,13,4,6,37
84108490154,-4,6,3,-28,-7,2,5,8
84108491534,-19,-3,-1,33,8,2,7,-11
84108491534,-10,3,4,7,-7,-11,-4,27
84108512588,-4,-15,-11,-30,7,17,3,-10
84108512588,-5,11,2,22,-7,-24,-13,-30
84108513990,-12,7,12,-3,9,14,4,-11
84108513990,32,-7,0,13,6,12,21,55
84108526110,65,-14,-14,-22,-10,-7,2,32
84108526110,-4,-9,7,1,-1,9,-1,-18
84108535110,43,7,-14,-3,-12,-12,-7,53
84108535110,-2,-6,15,7,2,-1,-1,23
84108549924,18,9,-2,-5,-10,-6,-15,-84
84108549924,-17,-5,-7,-9,-13,-7,10,44
84108551516,40,-5,-4,7,10,42,4,6
84108551516,-25,-1,-4,-16,1,-47,-19,-68
84108572584,11,5,-5,-8,-14,-2,1,9
84108572584,43,4,-4,11,8,2,-6,-24
84108574020,-77,-11,-3,-4,2,-1,10,-18
84108574020,19,20,-7,-1,5,23,8,-5
84108586147,10,11,7,-2,-11,-14,-7,15
84108586147,-40,-3,-5,12,7,-3,-3,-29
84108595037,19,2,11,-4,-12,-30,-28,-5
84108595037,-9,-15,-17,-8,-10,25,22,18
84108610170,5,6,8,-4,13,6,5,19
84108610170,8,2,1,7,-5,24,4,6
84108611560,-32,-10,-8,-24,-10,-45,-15,-14
84108611560,2,3,8,33,13,-9,-7,-9
84108632593,-26,-10,-7,-9,-4,7,-6,-22
84108632593,66,30,7,-7,4,-1,15,49
84108633975,-112,-19,-9,-7,1,18,13,-71
84108633975,21,-1,-6,12,22,12,-35,-7
84108646287,-3,4,7,28,2,15,31,27
84108646287,-17,-5,-4,-28,-11,-19,-15,-8
84108655153,32,-1,-3,2,-15,-21,2,20
84108655153,8,-3,-9,-53,-16,-12,-9,-8
84108670036,34,11,11,64,-6,-11,-12,-4
84108670036,-54,-7,-9,-36,4,8,-1,26
84108671559,18,-15,5,6,-8,5,14,3
84108671559,-18,-6,-5,27,-2,13,3,-4
84108691849,8,-2,0,-18,-2,1,-7,14
84108691849,2,-2,-2,7,12,-1,6,-8
84108692564,13,6,2,-18,0,13,-1,22
84108692564,-2,0,5,-7,-5,1,2,-12
84108714410,-25,-5,-4,-3,9,-13,2,15
84108714410,5,-1,1,10,-10,-4,-10,-10
84108714987,-8,1,-2,7,8,8,-9,-17
84108714987,9,0,-4,-9,-9,-11,5,22
84108729415,-27,-5,-6,-25,-9,-11,-16,-27
84108729415,-10,-3,0,-8,-1,12,17,7
84108730023,21,4,-1,-12,-8,-2,9,77
84108730023,-36,0,5,70,17,-8,-14,-45
84108751779,-11,-4,-1,-19,-8,3,3,-1
84108751779,4,-3,-1,18,-3,-5,-8,-6
84108752468,29,5,-1,5,15,-1,-3,3
84108752468,-19,2,-5,-40,-24,-5,-3,-10
84108774390,-21,-5,-6,7,17,0,2,-6
84108774390,3,-4,-5,-7,-12,3,-1,-1
84108775053,4,10,3,11,8,0,0,-35
84108775053,10,-4,1,-15,-14,-7,-7,26
84108789425,12,4,2,3,4,0,-17,-5
84108789425,1,-2,1,-3,-2,-3,13,-2
84108790044,-9,19,-1,4,-7,0,-10,-26
84108790044,18,-7,4,17,17,4,11,69
84108811904,-3,2,1,-15,-5,0,0,11
84108811904,0,1,1,-5,-3,-1,-8,-22
84108812527,11,-2,1,25,9,-3,2,7
84108812527,11,0,3,-13,-6,1,5,-5
84108834317,-9,-8,-2,1,0,0,-1,-12
84108834317,19,7,-1,-3,2,-1,-3,6
84108835007,-4,-7,-3,8,13,1,-8,-52
84108835007,22,3,-2,-27,-11,-2,17,78
84108849267,-26,-8,-1,-5,-6,-3,-14,-63
84108849267,23,10,-3,1,-2,1,12,9
84108849970,-27,-5,-4,-23,-5,-2,-4,-33
84108849970,30,-10,5,41,14,1,1,-1
84108871792,-16,4,-3,-15,-7,0,3,-2
84108871792,-9,-7,0,11,8,-2,-5,-12
84108872529,3,5,-1,4,-6,-7,-4,-11
84108872529,6,-7,-3,-26,-13,7,0,-15
84108894356,-4,-8,-5,3,4,-5,-3,4
84108894356,10,2,0,9,3,-1,-14,-10
84108894982,5,-6,-1,10,6,3,16,33
84108894982,-17,-16,-7,-24,-12,-6,-17,-63
84108909397,3,-10,3,3,-8,1,23,101
84108909397,9,-16,-5,-5,2,-4,-3,-5
84108909976,-13,-15,-4,-9,-10,-4,-23,-39
84108909976,14,5,0,22,10,1,16,57
84108931755,32,0,-3,-14,-12,-6,-8,-33
84108931755,-69,-4,-1,-7,1,-1,0,-16
84108932458,14,-5,-3,-11,-16,4,4,26
84108932458,-12,9,-1,12,5,-10,-5,-18
84108954202,-3,-15,-10,8,1,-3,-13,-11
84108954202,4,4,2,-9,-5,-4,-5,-28
84108955014,2,-2,-2,0,-2,-1,-1,12
84108955014,-23,-3,-5,-19,-1,6,3,-18
84108969474,1,9,7,7,8,0,2,-22
84108969474,14,-1,0,28,6,5,2,46
84108969982,0,7,7,-6,-7,-5,5,11
84108969982,-22,-1,-9,-4,-1,5,-6,-18
84108991748,26,4,-8,-1,2,-7,4,-14
84108991748,-2,-4,-2,-2,-1,7,-12,-10
84108992520,-53,-1,-1,5,5,-26,12,22
84108992520,19,9,2,-22,-6,13,2,11
84109014141,-6,0,-7,10,2,5,-6,-13
84109014141,26,5,-8,-27,-10,-3,-14,10
84109014949,-3,-10,1,27,11,-6,-18,-4
84109014949,-5,2,5,-3,14,12,17,-20
84109029278,-18,1,0,-23,-18,11,12,-3
84109029278,8,-6,-5,2,-4,7,0,1
84109029968,3,-4,1,43,14,-17,-11,4
84109029968,7,8,1,-7,4,4,-4,7
84109051867,-10,-7,-1,-33,-1,-21,-23,-21
84109051867,-11,3,3,12,-1,-3,22,16
84109052493,6,-3,0,-28,-16,7,0,-10
84109052493,-17,0,-2,6,-4,-11,-9,-24
84109074194,7,2,1,7,1,-2,10,46
84109074194,-11,-5,0,-10,-1,-1,-9,-15
84109074971,3,-1,0,14,0,5,3,-3
84109074971,7,9,-4,-1,-4,-8,-1,-13
84109089392,-6,0,4,5,-7,3,-5,-8
84109089392,-10,-2,-1,-7,0,-4,2,-5
84109090026,14,3,-3,-18,2,15,9,15
84109090026,1,-2,3,17,3,-6,-7,6
84109111885,-6,0,2,2,-1,0,-1,-4
84109111885,-6,-1,3,2,2,-1,1,1
84109112533,6,0,-2,-4,3,2,2,1
84109112533,16,-3,1,-5,-13,-8,-7,2
84109134245,-35,0,0,21,10,-1,2,-7
84109134245,4,-1,1,7,3,-4,1,1
84109135017,0,-1,-1,-5,0,5,-4,-6
84109135017,0,-7,-1,12,-6,-8,0,-17
84109148677,-2,3,1,-2,4,4,2,16
84109148677,-3,2,1,-9,-2,-3,-4,-1
84109156956,-4,0,-2,1,5,2,3,-2
84109156956,-11,-39,-9,-16,-4,-5,-8,-5
84109171619,9,2,-3,-2,-4,0,2,-3
84109171619,-2,0,-4,3,-2,-2,-5,-15
84109172452,-1,1,-1,-23,-3,1,2,14
84109172452,-3,1,-4,-3,-1,-2,1,4
84109194203,0,-1,0,-2,1,-1,0,-4
84109194203,4,-7,-1,0,-4,-6,-1,10
84109195072,-4,-2,-3,-5,-6,-7,-13,-1
84109195072,2,7,3,-22,-7,1,1,0
84109209196,9,1,1,26,13,2,0,46
84109209196,-2,10,2,6,5,9,6,-3
84109209963,9,4,1,-3,-6,-1,2,1
84109209963,-6,2,0,-2,0,-6,-6,-1
84109231824,2,2,-2,-16,-8,-6,-4,-28
84109231824,-1,-1,-1,3,-1,2,-3,9
84109232512,-22,-22,-2,16,4,-15,-1,-8
84109232512,-3,1,0,7,-2,3,1,9
84109254192,-4,1,-1,-9,-1,-2,0,-12
84109254192,1,-3,-3,1,1,6,4,6
84109255023,6,4,1,1,-3,4,-2,-16
84109255023,-3,1,-3,-4,-2,-8,-1,0
84109277993,0,-9,-5,-11,-3,5,0,-10
84109277993,-7,-4,-3,7,-2,-12,-9,-14
84109278613,6,2,-3,-8,-1,9,1,1
84109278613,-3,2,0,-3,3,-1,3,0
84109291903,4,3,1,21,0,8,1,1
84109291903,-4,-3,0,-15,-2,-10,-7,-10
84109292472,-2,1,-2,7,0,7,1,5
84109292472,0,1,1,7,2,0,-5,-3
84109314250,-5,-2,-3,-4,-3,-4,-2,-3
84109314250,-3,0,-2,11,-6,-8,-4,-4
84109314939,2,-1,7,39,5,1,0,0
84109314939,1,0,-8,4,-2,-11,0,3
84109329394,-3,-4,-6,-35,-11,2,-1,-5
84109329394,-1,-2,4,16,0,-2,0,3
84109330009,3,3,2,9,2,3,3,-3
84109330009,-3,-1,-1,-4,5,6,-2,-4
84109351687,0,-1,0,-1,-6,-20,-2,-1
84109351687,1,1,6,51,15,2,3,1
84109352506,0,0,0,17,0,10,-2,-1
84109352506,-2,0,-3,-34,-2,-10,-5,-13
84109374221,2,0,-7,-11,-5,13,8,17
84109374221,0,0,2,-29,2,9,3,0
84109374963,1,0,3,31,7,-9,-3,0
84109374963,0,2,6,28,5,6,1,0
84109389214,0,0,-3,-43,-11,-7,-9,-7
84109389214,1,-4,-6,-30,-1,2,3,10
84109390002,-1,2,0,-9,-4,-17,2,3
84109390002,4,-16,2,31,3,14,7,5
84109411710,-2,-3,4,-25,3,-4,2,-5
84109411710,-3,1,2,21,5,-1,-2,-3
84109412455,-1,-2,-8,-47,-18,-1,-2,-3
84109412455,-4,3,-3,-12,-10,-16,-5,-4
84109434193,2,-1,-1,25,-1,3,-1,-1
84109434193,-1,-2,2,41,10,-2,-4,-9
84109434949,5,0,-11,-24,-12,-1,0,7
84109434949,0,3,3,25,10,0,0,4
84109448576,-4,1,4,54,4,9,1,0
84109448576,-3,2,-1,-89,-11,-19,-4,-9
84109456832,-3,-6,-13,-13,-14,-2,-3,-1
84109456832,-2,1,3,81,8,6,-1,-2
84109471679,-2,-4,-3,48,2,-6,-6,-3
84109471679,-2,-2,-2,7,-7,4,1,1
84109472479,-5,-1,1,-30,7,-2,1,-9
84109472479,0,1,2,-34,-4,0,1,0
84109494186,-2,-1,2,18,9,3,0,-3
84109494186,-4,-3,-7,0,-11,-1,1,-1
84109494978,0,-2,-3,-1,4,13,-1,-3
84109494978,-3,4,0,-23,-6,-19,-7,-2
84109509151,-1,-1,-3,-12,3,0,-3,-6
84109509151,3,0,-3,-12,0,6,-4,3
84109509923,3,1,10,77,9,1,0,1
84109509923,-2,-4,-14,-33,-19,3,-3,-4
84109531789,2,0,1,9,2,-8,1,1
84109531789,-1,-2,-5,-40,-7,-7,-3,-3
84109532507,2,1,1,-4,3,3,0,1
84109532507,-1,0,4,-1,6,1,-2,-1
84109554234,-4,-4,-2,-2,-2,-7,0,-2
84109554234,0,-4,-2,44,-2,3,2,0
84109555019,0,-2,-3,-37,-3,-6,-2,-3
84109555019,-1,1,-4,0,-7,-1,3,4
84109568536,0,1,3,-9,-2,0,-1,-1
84109568536,-3,-2,0,7,-1,-4,0,3
84109576829,-1,-2,2,5,0,-4,-2,5
84109576829,-3,0,-4,-15,-2,5,-7,-17
84109599869,0,0,-1,7,0,0,-3,1
84109599869,0,0,0,6,4,0,3,3
84109600675,0,1,-2,-23,-3,-3,0,0
84109600675,-1,-1,-2,17,1,-2,-4,-4
84109614190,-1,-1,2,40,-5,-2,-2,-3
84109614190,-3,-5,-7,-25,-3,-2,-2,-4
84109614987,-1,-2,2,-6,0,1,1,-2
84109614987,-3,2,1,-12,7,0,2,2
84109637428,-3,-25,-9,-27,-8,-3,-2,-3
84109637428,-2,-1,0,10,-2,-2,-2,-3
84109638220,-3,-2,-4,4,-5,-3,0,8
84109638220,-1,0,-2,1,0,-1,-5,-27
84109651762,4,7,2,-2,3,-1,4,30
84109651762,0,0,0,-42,-5,2,-1,1
84109652516,0,-4,-2,-31,-5,-1,1,-7
84109652516,0,-3,-3,19,-5,-4,-3,2
84109674336,-7,-1,-6,-15,0,-3,-2,-12
84109674336,12,6,4,8,-1,3,3,-2
84109674951,-1,1,2,2,-2,-3,-3,0
84109674951,-1,-2,-2,-23,-3,-2,-2,9
84109697455,-3,4,1,16,0,1,-2,-9
84109697455,-5,-1,1,0,8,0,0,3
84109698219,3,11,-6,3,-12,-4,-4,-5
84109698219,-17,-2,4,-1,-2,0,0,5
84109711845,-1,1,-1,-10,4,0,-1,-4
84109711845,-2,1,4,3,-1,-2,-4,-5
84109712453,2,2,4,16,4,1,1,-1
84109712453,3,-3,-5,-14,-2,0,1,5
84109734397,-1,4,0,11,2,0,-2,-3
84109734397,-6,-1,-2,10,-10,-3,-3,-6
84109735021,-3,-5,-2,-1,2,2,0,-3
84109735021,2,-2,-2,3,-2,0,1,5
84109748530,-1,0,-2,-16,0,-2,-1,-4
84109748530,1,-2,-3,11,4,0,-3,-1
84109756705,-2,-6,-4,-36,-8,-1,-4,0
84109756705,2,-1,-1,-10,0,-1,0,4
84109771935,1,4,-1,2,-3,-1,-5,-5
84109771935,-3,-2,-3,-16,-2,-1,-1,0
84109772522,-4,-4,2,38,15,2,1,0
84109772522,16,25,-2,-24,-13,0,0,1
84109794338,6,-4,-2,-5,0,0,-1,-2
84109794338,-19,4,1,13,-5,-3,0,0
84109794970,-5,-4,-2,1,0,-1,0,-3
84109794970,-4,-2,0,12,8,-1,0,-1
84109817416,1,1,-1,-42,-8,-2,2,2
84109817416,5,-4,-5,27,4,-3,-2,-5
84109818146,2,2,-1,-7,-7,-2,-2,-1
84109818146,-5,-5,-1,-14,0,1,-1,1
84109831877,-1,-1,-4,-5,0,0,-3,-3
84109831877,-3,-6,0,2,0,1,0,2
84109832487,0,-4,-4,-5,-1,-2,-1,-2
84109832487,1,-5,2,16,1,-2,2,-5
84109854475,-4,-1,0,12,6,0,1,1
84109854475,4,11,-2,4,-11,-2,-3,-3
84109855025,-1,-17,-3,-4,-1,-2,-3,-1
84109855025,-1,-4,3,17,1,-1,-4,-1
84109868602,-3,0,1,-11,0,0,-2,-1
84109868602,0,1,-1,7,2,0,1,3
84109876972,-1,6,-1,-2,-7,-3,-1,-5
84109876972,-3,-6,-3,-1,-3,-3,-2,1
84109891747,-3,-4,0,-14,-3,0,1,-5
84109891747,-2,-10,-4,-7,-1,0,-5,0
84109892472,15,6,2,9,4,0,1,2
84109892472,-2,-1,-3,0,1,3,1,-1
84109913946,0,2,-2,-9,-12,-3,-1,0
84109913946,2,-2,1,-14,0,-3,1,-1
84109921791,-6,-1,-9,-3,-2,-1,0,0
84109921791,-3,-1,-3,8,2,-1,0,-3
84109937602,2,1,-4,5,-1,-1,-2,2
84109937602,0,13,-1,-6,0,-2,-3,-3
84109938154,12,-12,-5,-1,0,-1,-5,0
84109938154,2,4,3,-3,-1,0,-1,-1
84109951884,-4,0,2,0,4,2,0,2
84109951884,-2,-1,-5,-13,-7,-3,0,-7
84109952481,1,5,6,6,1,-1,-1,9
84109952481,-12,-4,-2,-5,-2,-1,1,2
84109974352,-14,-9,-2,1,-2,-2,0,-5
84109974352,2,-2,-1,6,1,0,-1,3
84109975027,-7,0,-1,-11,-2,0,-1,1
84109975027,-1,-7,-3,5,0,-2,-1,-2
84109997580,-1,1,1,-8,-2,-1,-1,-3
84109997580,-3,-6,-3,-5,-2,-2,0,-2
84109998180,-8,1,0,5,0,-1,0,-3
84109998180,0,1,-1,-11,-2,-1,2,-1
84110011642,5,6,1,4,2,0,-1,-4
84110011642,2,-28,-1,25,5,1,1,-1
84110012399,1,3,-1,-5,-6,-2,-1,-2
84110012399,0,0,-1,15,-4,-1,-5,-2
84110034438,-11,9,2,-7,1,-1,-1,1
84110034438,-2,3,3,-4,3,-1,0,-1
84110034938,-8,-3,-5,-10,-1,-2,2,-1
84110034938,3,-5,-2,-3,1,1,1,1
84110057446,4,-4,-4,-22,-7,-2,-1,-3
84110057446,-4,1,1,2,1,1,-1,3
84110058164,15,7,0,-12,-3,-2,-3,-8
84110058164,0,5,0,6,0,-2,0,2
84110071834,4,-23,-4,4,1,0,0,6
84110071834,0,3,-5,-1,-1,-2,-1,-1
84110072481,-7,-3,1,-1,4,0,-1,0
84110072481,1,1,0,-5,-10,-3,-1,-2
84110094434,6,3,0,-2,-3,-1,-1,-9
84110094434,-1,-1,-4,-6,-2,-1,-1,4
84110095063,-6,-6,2,16,3,-1,0,-1
84110095063,-1,-3,-4,-28,-3,-2,-4,-3
84110117593,-4,0,3,21,-1,-1,-4,-1
84110117593,0,1,-1,-29,-4,-1,-2,-4
84110118214,-3,3,-3,24,4,-1,-2,1
84110118214,-2,-2,0,-6,-8,-2,-1,-1
84110131726,16,-1,0,1,0,-1,0,-1
84110131726,4,9,-2,6,2,0,-1,-4
84110132478,-5,-24,-3,-24,-4,-1,2,-4
84110132478,1,-2,-1,-1,0,0,0,-2
84110154378,0,-1,-3,8,0,-2,0,1
84110154378,0,1,2,6,0,-2,-1,1
84110155028,-2,4,-4,0,-2,0,-2,-1
84110155028,2,2,-2,-3,0,-3,-4,-4
84110177484,-4,-1,-1,-1,-1,-3,-3,-1
84110177484,-3,-4,-5,-8,-2,-1,-1,-1
84110178206,-4,4,3,15,-2,-1,-3,1
84110178206,-4,-5,-6,-17,0,-2,-1,-1
84110191885,-14,1,-6,-22,-11,-3,-3,-3
84110191885,-2,-2,2,10,2,-1,-1,-3
84110192473,-2,-1,2,3,-2,0,0,-4
84110192473,1,2,6,-4,6,0,0,0
84110215078,-4,-17,2,-6,-3,1,0,1
84110215078,1,-1,-3,9,0,-3,-3,-2
84110215739,-1,3,-3,-17,-2,0,-2,-1
84110215739,-4,-7,-1,5,1,0,-2,1
84110237571,-1,5,-1,1,2,1,0,1
84110237571,-19,-5,-2,-8,-6,-1,-1,-4
84110238234,2,5,2,-3,-3,-4,-1,-1
84110238234,-1,2,-3,6,-2,-3,-1,-2
84110251857,-5,6,-5,4,1,-1,0,-2
84110251857,3,-24,-5,-11,-7,-1,0,0
84110252467,-7,0,2,0,2,2,0,-2
84110252467,5,4,0,-15,-2,-1,-2,-1
84110275107,1,-1,-2,9,-7,-5,-2,-3
84110275107,2,3,0,-2,2,1,1,1
84110275650,-5,0,0,8,0,-4,0,-1
84110275650,2,-5,-6,10,-1,1,0,0
84110297558,0,-2,-6,28,9,1,-1,-1
84110297558,2,4,2,-32,-9,-1,-1,-2
84110298127,0,-2,3,3,-1,0,-3,0
84110298127,-1,3,1,5,4,-2,-4,0
84110311869,2,2,4,-4,-1,-3,-3,0
84110311869,-3,8,-5,8,1,0,-1,-3
84110312490,0,-16,-1,-6,-6,-1,1,-1
84110312490,-3,-3,0,-1,-4,-1,3,0
84110334845,-5,0,2,-5,1,1,3,1
84110334845,15,5,2,1,5,-1,1,1
84110335731,-5,12,1,1,-9,-2,1,-1
84110335731,-4,-5,-6,10,-3,-1,-1,-2
84110357387,-1,-6,0,-9,-3,1,-2,-1
84110357387,1,-2,-2,9,4,2,-1,-2
84110358259,2,-1,-3,-13,-1,-1,-4,-1
84110358259,-2,-4,-4,0,-2,-1,-1,0
84110371723,-9,1,0,-1,1,-1,-1,-1
84110371723,2,1,3,-5,-3,-2,-1,-1
84110372466,0,3,-4,0,3,0,-1,-2
84110372466,-3,-24,1,15,-4,-2,-1,-2
84110395043,1,0,1,0,0,0,1,-2
84110395043,-3,-2,-2,-2,-4,-2,-4,-1
84110395675,1,-2,0,-12,-3,-1,-2,1
84110395675,0,7,0,0,2,0,0,1
84110417474,3,0,0,12,2,-3,0,-3
84110417474,-6,-9,0,1,-3,-2,-3,-2
84110418198,1,2,-1,3,2,0,-1,0
84110418198,0,3,-2,-12,-7,-2,-2,-3
84110431917,-1,-2,-7,8,1,0,0,0
84110431917,-1,5,3,-4,-3,-2,0,-2
84110432496,14,11,-5,10,4,0,0,-2
84110432496,4,13,7,-1,8,2,2,0
84110454954,1,-8,2,-13,-11,-4,0,1
84110454954,-1,-1,0,1,5,-1,0,0
84110455658,4,2,0,6,1,0,-1,0
84110455658,1,3,-3,-7,-2,-1,-2,-1
84110477477,-7,0,-2,-3,0,-1,-3,-1
84110477477,6,3,0,-8,1,0,1,2
84110478217,-4,-5,-3,-19,-5,-3,-1,0
84110478217,-4,-1,-3,16,1,-2,-1,-2
84110491815,-8,-4,-3,10,1,0,-2,-2
84110491815,1,-4,-2,-5,-5,-1,-3,-1
84110492497,-4,-5,-1,24,5,0,0,-2
84110492497,0,-2,-1,-18,-4,-3,-2,0
84110514946,5,2,-3,-16,-12,-3,0,2
84110514946,-5,-4,-4,-4,2,-2,-1,-4
84110515707,-4,-2,-3,7,-4,-3,-2,-1
84110515707,-2,-2,-3,-5,-2,-1,0,-2
84110537650,-7,-10,-2,10,-1,-2,-5,-4
84110537650,2,5,1,14,0,-1,-1,0
84110538185,-4,-7,-2,-20,-9,-2,1,-1
84110538185,-6,-4,-1,-5,-1,-1,0,-3
84110551156,4,5,1,-10,3,0,-1,0
84110551156,-2,-5,-3,4,3,0,0,0
84110559417,-4,-5,-2,24,-4,-3,-3,-1
84110559417,3,-3,-2,6,1,-2,0,0
84110575135,5,15,0,-20,0,1,3,-1
84110575135,-1,-8,0,28,-4,0,-1,0
84110575677,0,-4,-3,-50,-1,-1,0,-2
84110575677,-8,-2,1,0,-3,-1,-2,-2
84110597559,22,7,3,5,9,0,-1,1
84110597559,-7,2,-2,-17,-10,-2,-3,-3
84110598178,-2,-1,-5,15,2,-1,-1,-3
84110598178,0,-2,0,4,-1,-2,-1,-1
84110611220,-5,0,0,-13,1,-1,-3,0
84110611220,1,-3,0,14,3,0,-2,0
84110619260,2,-2,4,-15,-3,-1,-1,2
84110619260,-1,-1,-1,-16,-2,-2,0,0
84110634900,-2,-4,-4,10,0,-1,0,-1
84110634900,8,-2,-8,-8,-2,-1,-2,-2
84110635694,-5,-23,-5,-2,-1,1,-1,0
84110635694,-1,-1,-1,3,1,1,1,-1
84110657376,-5,0,-1,-7,-5,-2,-2,-3
84110657376,-6,-8,-3,-6,2,2,0,-1
84110658145,4,7,0,8,8,3,1,-1
84110658145,-1,0,4,0,-8,-1,-3,-3
84110670959,1,-2,12,-7,-2,-5,-1,-3
84110670959,-3,5,5,9,-4,-4,1,2
84110679110,-11,-1,5,-6,0,-1,-2,-4
84110679110,6,3,1,7,-1,3,1,2
84110694783,-1,5,-4,14,4,2,0,-1
84110694783,-2,0,0,-12,-4,-3,0,0
84110695642,-5,3,-2,8,-1,-4,-3,-2
84110695642,-2,-3,-3,-6,-4,-1,0,-2
84110717336,-2,4,-3,-3,-2,-1,0,-1
84110717336,-1,-17,-3,18,2,-2,0,0
84110718175,6,2,-5,-1,-2,-2,-1,1
84110718175,-3,3,-4,-14,3,0,-3,-3
84110731022,-3,-5,-6,8,-6,-1,-2,-1
84110731022,-5,4,1,-9,-1,0,-2,-2
84110739191,-23,2,2,-9,-3,-2,-2,-3
84110739191,-1,-7,-4,-2,0,-3,-1,-2
84110754795,0,-3,1,22,0,-3,-2,-2
84110754795,-5,2,0,-2,5,0,0,-1
84110755647,5,2,-6,3,-10,-2,-2,1
84110755647,3,-18,-1,-1,-3,-3,-3,1
84110777359,-7,-9,-13,-25,-1,1,-1,-1
84110777359,-1,-1,-3,6,0,0,-1,-1
84110778150,5,6,2,4,3,-1,0,-2
84110778150,-6,2,4,31,1,-1,0,-1
84110790966,0,-5,2,-32,-10,-2,-2,-1
84110790966,-6,-3,-4,-2,-5,-3,-4,-1
84110799174,15,0,6,9,5,2,0,0
84110799174,-3,6,-4,-20,-5,-1,-4,0
84110813446,-4,-3,2,8,-1,-3,-2,0
84110813446,-5,4,-1,5,0,-2,-3,-4
84110822472,-5,-4,-5,-18,-2,-2,1,-1
84110822472,0,20,-1,5,2,-2,-1,-2
84110837312,4,-5,0,-4,5,1,2,1
84110837312,2,5,-2,-11,-8,-3,-2,-2
84110838123,-2,-2,-4,7,3,1,1,0
84110838123,12,-1,-1,-6,-3,-3,-2,-2
84110859847,-10,4,-2,3,5,1,0,0
84110859847,-1,-3,-1,-11,-5,-1,-2,0
84110860721,0,-2,-2,4,1,-1,-2,-3
84110860721,-1,-4,9,3,0,1,-4,0
84110874801,-1,-3,0,-23,-9,-2,0,-1
84110874801,1,-1,-2,35,2,-2,0,-2
84110875725,-4,0,-4,-12,-6,0,-2,-1
84110875725,-6,-3,-4,-2,2,0,-2,-4
84110897322,0,-3,0,8,1,-1,-1,-1
84110897322,-3,14,1,-20,0,-1,-1,0
84110898093,-10,-23,-5,-3,-1,-3,-5,-3
84110898093,-4,-3,-1,11,-1,-1,-2,0
84110919871,-2,-4,-5,-2,1,0,0,1
84110919871,4,0,-1,-21,-2,1,2,-1
84110921492,-1,6,2,13,-2,-2,-1,-2
84110921492,-5,-3,-5,-13,-1,0,2,-1
84110933481,1,-4,2,8,1,-2,-2,-2
84110933481,-4,-3,-1,-1,-4,0,-3,1
84110942498,4,7,0,-5,1,0,0,2
84110942498,14,-8,-2,20,3,2,-2,2
84110957352,1,8,0,-1,-2,-1,0,3
84110957352,-1,-3,-7,-7,2,-1,-3,-2
84110958952,1,3,3,-7,-1,-2,0,-2
84110958952,-3,-3,0,6,1,-2,-1,-4
84110979852,-2,-6,-1,5,-3,-2,-3,-3
84110979852,0,-2,0,-17,-3,-2,-1,-4
84110981518,1,1,-2,11,0,-2,-1,0
84110981518,-8,-3,0,6,0,-2,-2,-1
84110993498,-3,0,-3,-16,-4,-2,-2,-3
84110993498,-4,-3,0,17,4,0,0,1
84111002563,-2,1,-2,-12,-6,-2,-2,0
84111002563,-12,-2,-4,-11,-3,-1,-1,-2
84111017279,1,4,-3,4,-1,-1,-1,-2
84111017279,2,-3,-1,-10,-2,-3,-2,-2
84111018891,0,-1,-2,-1,-1,0,-1,0
84111018891,1,12,-3,-4,-4,0,-1,1
84111039834,0,-4,3,4,0,-1,-1,-2
84111039834,-2,-2,-2,2,-3,-1,0,-3
84111041415,-3,14,-2,-4,-2,-1,0,-2
84111041415,8,-5,-1,-4,0,-1,0,-1
84111054451,-2,5,1,3,5,2,2,2
84111054451,1,-1,-1,3,-7,-1,0,-1
84111061015,-1,2,2,2,2,-2,-1,-1
84111061015,2,-4,-5,-14,-5,-2,-2,1
84111077356,1,-2,-1,-4,0,-1,-1,-3
84111077356,-2,-2,-2,0,4,0,-2,0
84111079005,-1,-4,1,-4,-5,-1,-4,-1
84111079005,-6,-2,-1,-6,-1,-2,-1,-1
84111099901,-4,-8,-4,8,2,-2,-3,-2
84111099901,0,-2,-1,-17,-3,3,2,1
84111101490,-1,-4,2,6,3,-2,-1,-2
84111101490,-4,0,0,-2,-3,-1,-2,1
84111114302,-5,18,2,7,-3,0,-1,-2
84111114302,4,-6,-3,-8,1,-2,-2,-1
84111121116,0,-3,-6,8,2,0,2,-1
84111121116,-1,-1,0,-7,-4,-3,-1,-3
84111145004,-2,-2,-1,-4,-2,-3,-1,-2
84111145004,-2,-1,2,10,2,-1,-3,-1
84111146535,-1,-4,-4,-4,-5,-1,-1,1
84111146535,-5,2,0,-5,1,0,-2,-3
84111159816,4,-7,-3,13,-2,0,-3,0
84111159816,-22,-14,-1,-7,-3,-4,0,-1
84111161512,-4,-6,-1,-9,-1,-1,1,-3
84111161512,5,-1,-1,-6,-2,0,2,0
84111173572,-2,-22,-5,22,1,-2,-2,-2
84111173572,4,4,-2,2,-1,-1,-1,1
84111182517,-3,3,1,0,2,-2,-4,1
84111182517,-7,-8,-3,-6,-4,-2,-2,-2
84111197470,0,1,-4,-15,-4,0,-1,-2
84111197470,0,2,-2,6,-3,-2,-2,-2
84111198957,-1,-5,1,5,-1,-1,-1,-1
84111198957,1,4,-3,2,5,-1,0,0
84111220001,2,-1,0,-9,-6,-3,-3,-1
84111220001,-5,-4,-1,1,1,1,-2,-3
84111221481,16,9,1,3,0,0,-1,1
84111221481,-2,-1,-1,4,-2,-1,-1,-1
84111233536,-2,2,0,-7,0,0,0,0
84111233536,-1,13,1,6,4,1,-1,-2
84111242512,-2,-4,-2,-2,-10,-3,-3,-3
84111242512,-3,-2,-1,-2,-1,-2,0,-2
84111257372,0,-2,-1,-11,-3,0,1,0
84111257372,4,4,0,-3,0,1,1,0
84111259013,13,-5,1,3,2,0,0,0
84111259013,1,7,1,0,0,0,-2,2
84111279825,-4,3,0,4,-2,-2,-1,1
84111279825,1,-4,-1,-8,-5,-1,-1,0
84111281488,-6,-5,-3,1,3,0,-1,-1
84111281488,-3,-31,-4,-3,-8,-1,-2,-3
84111293482,-1,0,1,1,2,0,-1,-2
84111293482,0,-4,-2,-3,-1,-1,-1,0
84111302465,-7,-2,-2,-7,0,0,0,-2
84111302465,2,8,1,11,3,-2,-1,0
84111317355,-5,-4,-3,-9,-3,-1,-1,-2
84111317355,1,-3,1,1,-1,-2,-1,-2
84111318995,-5,2,-1,3,-2,-1,-1,-1
84111318995,-4,2,-2,-11,0,-1,-1,-1
84111347451,1,-2,-2,4,-1,-1,-1,-3
84111347451,0,2,-2,-1,-2,0,0,0
84111348927,-3,-3,-1,-3,1,-2,0,-1
84111348927,-1,2,-2,-6,-3,-2,-1,-3
84111353761,-1,-2,-1,0,4,0,-1,-1
84111353761,2,0,-4,-4,-4,-2,-2,-1
84111362526,-6,-18,-1,-3,-1,-1,-2,-1
84111362526,-1,3,1,11,-4,-2,-1,1
84111377424,-1,2,-1,-7,-1,0,0,0
84111377424,0,-7,-2,-7,-4,-2,0,-2
84111378932,-7,1,-6,-4,2,0,-2,-1
84111378932,14,0,-1,-5,-2,0,-2,-3
84111400088,2,-2,1,1,0,-1,-3,1
84111400088,-1,2,-1,2,-2,-1,-2,0
84111401510,-9,1,0,0,0,-3,-2,-1
84111401510,2,11,1,7,0,-2,-2,0
84111413517,-3,0,-5,-8,-4,-1,-1,0
84111413517,-2,-3,-1,1,0,0,-1,-1
84111422548,9,21,5,-6,-1,0,-1,-1
84111422548,-7,-5,-2,8,4,0,1,0
84111437575,0,2,-2,-1,1,0,-1,-2
84111437575,-4,-1,-2,1,-1,0,-1,-1
84111438988,-2,3,0,0,-2,-1,-1,-1
84111438988,-1,-1,-2,1,2,1,0,-1
84111460124,-4,-4,-3,-4,-5,-2,-1,-2
84111460124,0,-2,-1,-11,-1,0,-1,-2
84111461526,-2,-4,-1,0,-3,2,0,-2
84111461526,-5,-2,-3,8,1,-2,-2,-1
84111473628,1,-5,0,4,1,-2,-2,1
84111473628,0,0,1,0,-1,-1,-2,0
84111482540,-2,-4,-1,0,-2,-2,0,0
84111482540,-3,-3,2,-5,1,1,2,-1
84111497594,-9,5,-4,4,-2,-1,0,-2
84111497594,-19,4,1,7,0,-3,-3,-3
84111499021,-4,-4,-1,-11,-4,-1,-2,-1
84111499021,-1,-4,-1,4,0,1,-1,-2
84111519936,-1,2,-1,-3,-1,-3,-1,-1
84111519936,2,-4,-1,7,0,0,-1,-1
84111521486,2,-4,-3,-2,2,-2,-1,1
84111521486,-3,5,1,-6,-7,-1,-2,-1
84111542677,1,-4,0,-3,-1,0,-2,-1
84111542677,2,-1,-2,-8,0,1,-2,-1
84111544013,1,-1,0,2,1,-1,-1,-1
84111544013,1,-4,-5,-10,-5,-3,-3,1
84111557374,0,8,2,4,-1,0,0,-2
84111557374,3,-21,-1,-2,-4,-3,0,1
84111558932,-2,1,-2,5,-1,0,1,1
84111558932,0,-2,-2,-5,-1,-1,0,-1
84111579893,0,-1,-1,-5,-3,-1,0,0
84111579893,-2,5,3,6,2,-3,1,-1
84111581346,16,5,0,4,-2,0,-1,-2
84111581346,-2,-3,0,-2,-4,-1,-3,0
84111593500,-2,-5,-2,-1,3,-2,-1,-1
84111593500,18,0,-2,-13,-7,-1,-2,0
84111602529,-5,-3,-2,9,0,-3,-3,-3
84111602529,0,15,1,-1,3,0,-1,1
84111617319,1,-12,-3,5,-2,0,0,-1
84111617319,-3,-2,-3,-11,0,0,0,0
84111618934,-1,1,1,4,-2,-2,-2,-1
84111618934,-4,1,-2,2,-2,-2,-3,-4
84111639842,2,0,2,-2,0,-1,-1,-2
84111639842,-2,2,-4,2,1,0,1,-1
