88984124734 1:-6 2:-2 3:-4 4:-1 5:-1 6:-4 7:-4 8:-5

88984124734 1:1 4:-2 5:-2 7:1 8:3

88984128870 1:-13 2:-3 3:-1 5:-1 6:-1 7:-1 8:-4

88984128870 1:-2 2:2 3:-3 4:-2 5:-1 6:-2 7:-2 8:-5

88984129695 1:-1 2:-2 3:1 4:-2 5:-2 6:1 8:1

88984129695 1:-4 2:-3 3:-1 5:-2 6:1 7:-1 8:-1

88984131445 1:7 2:-1 3:-3 4:-2 5:-1 7:-2 8:-4

88984131445 1:-9 2:-4 3:-2 4:-2 6:1 7:4 8:1

88984135260 1:1 3:1 4:1 6:-1 7:-3 8:1

88984135260 1:-2 2:1 3:-2 4:-1 5:-2 6:-1 7:1 8:-2

88984143233 1:7 2:1 4:1 6:1 7:-2 8:2

88984143233 1:2 2:2 3:2 5:-1 6:-2 7:1

88984159132 1:-10 2:-1 3:-2 4:-1 5:1 6:-1 8:-2

88984159132 1:14 3:-1 6:-1 7:-1

88984164588 1:-2 2:-1 3:-1 5:-3 6:-1 8:-2

88984164588 1:-1 2:-3 3:1 4:-2 5:-1 6:-3 7:-1 8:3

88984173292 1:-1 2:-1 3:-1 4:-1 8:-1

88984173292 1:-2 2:-3 4:-1 5:-1 6:-2 7:-2 8:1

88984195925 1:-5 4:-2 5:-1 6:-1 7:-1

88984195925 1:1 2:1 3:-3 5:-2 6:-1 7:-3 8:-7

88984196722 4:-1 5:-2 6:-2 7:-2 8:-4

88984196722 1:-5 3:-1 4:-2 5:-1 6:-2 7:-2 8:3

88984250289 1:-3 3:-3 4:-1 5:-2 6:-2 8:5

88984250289 1:-17 2:-2 3:2 6:-1 7:1 8:-6

88984251093 1:20 2:-1 3:-2 5:-1 7:2 8:2

88984251093 2:-1 3:-2 4:-1 6:-3 7:-2 8:-2

88984251912 1:-4 2:-2 3:1 4:-3 7:2 8:1

88984251912 1:4 2:-1 3:-3 4:-1 5:-1 7:-3 8:-1

88984255661 1:-3 2:-2 3:-2 4:-2 6:-2 8:5

88984255661 1:-22 2:-3 3:1 4:-2 6:-1 8:-23

88984256461 1:9 2:-1 3:-2 4:-2 5:-1 6:-1 7:-1 8:8

88984256461 3:-3 5:-1 6:-2 7:-3 8:-4

88984261796 1:-5 4:-3 6:-1 7:-2

88984261796 1:8 2:-1 4:2 5:-2 6:1 7:-2 8:7

88984269286 1:-5 2:-1 3:-2 4:-2 5:-1 6:-1 7:1 8:-5

88984269286 1:2 2:-1 3:-3 4:-2 5:-1 6:-2 7:-1

88984284293 1:-4 5:-1 6:-1 8:-7

88984284293 1:-14 2:-2 4:-1 5:-1 6:-2 7:1 8:7

88984291836 1:15 2:3 3:-1 4:2 5:2 6:-2 7:-2 8:-3

88984291836 1:-2 2:-4 4:-1 5:-1 6:-1 7:-6

88984315847 1:-4 3:-3 4:-2 7:-4 8:-6

88984315847 1:10 2:3 3:-2 4:-2 5:-3 6:-2 7:-1 8:-5

88984316635 1:5 2:-2 3:-1 5:-3 7:1

88984316635 1:-5 4:-1 7:2 8:6

88984330231 1:2 2:-3 3:-3 6:-1 7:-1 8:2

88984330231 1:-1 2:-3 3:-4 4:-1 6:-1 7:-3 8:1

88984330844 1:-8 2:-2 3:1 5:-1 6:-1 7:-2 8:-3

88984330844 1:-7 2:-3 3:-4 4:-2 5:-3 6:-3 7:-1 8:-7

88984352729 1:16 2:2 3:1 5:-2 6:-2 8:6

88984352729 1:-11 2:1 3:2 5:2 6:-1 7:-2 8:-16

88984353411 1:-7 2:-2 3:-2 4:-1 6:-2 7:-2 8:-4

88984353411 1:-2 3:1 5:1 6:-1 8:-1

88984375921 1:-9 2:-1 4:-2 7:-5 8:-3

88984375921 1:4 2:-2 3:-2 5:-2 7:-1 8:5

88984376537 1:-2 3:-3 4:-1 5:-1 6:-1 7:-4

88984376537 1:1 2:-1 4:1 5:-3 6:-1 8:-3

88984390094 1:-1 3:-1 5:-1 6:-2 7:1 8:1

88984390094 1:4 2:-2 3:-1 4:-2 6:-1 7:-2 8:4

88984390935 1:-6 2:-3 4:-1 5:-1 6:-1 7:-2 8:-4

88984390935 1:7 2:-1 3:-1 4:-2 6:-1 7:2 8:4

88984412757 1:-7 2:-1 4:-1 5:-2 6:-2 7:-1 8:-2

88984412757 2:-2 3:-5 4:-4 5:-1 6:-1 7:-1 8:2

88984413433 1:-2 2:-2 3:-1 4:-3 6:-2 7:-3 8:-1

88984413433 1:2 2:-1 3:1 5:-1 7:-1 8:-2

88984435745 1:-3 2:-2 3:1 4:-1 5:-1 6:-3 8:-2

88984435745 1:-2 2:-3 4:-1 5:-3 6:-3 7:-1 8:1

88984436584 1:-1 2:-2 3:-2 4:1 5:-1 6:-1 7:-2 8:-1

88984436584 1:3 3:1 4:-3 6:-1 7:-1 8:-1

88984450227 1:-11 2:-2 3:-1 5:-1 8:-8

88984450227 1:13 3:1 4:2 6:-1 7:-2 8:7

88984450889 1:-4 2:1 3:1 4:-1 6:-2 8:-5

88984450889 1:2 2:-1 3:-3 4:-2 5:-1 6:-1 7:-2 8:-2

88984472563 1:-8 2:-1 3:-1 5:-2 6:2 8:-5

88984472563 1:-1 2:2 3:-1 4:-2 5:-2 6:-2 7:2 8:1

88984473417 1:1 4:-1 5:-3 6:-3 7:-5 8:-6

88984473417 1:-8 2:-2 3:-2 4:-1 6:-1 7:1 8:-5

88984495811 1:2 3:-1 4:-2 7:3 8:8

88984495811 1:13 2:5 3:2 4:1 5:-1 6:1

88984496537 1:3 5:-3 6:-2 7:1 8:7

88984496537 1:-23 2:-2 3:-1 4:-1 5:-2 6:-2 7:-5 8:-26

88984510245 1:-2 2:-3 3:-2 4:-2 5:-2 6:-1 7:-1 8:-6

88984510245 1:2 2:-1 3:-1 5:-1 7:-1 8:7

88984510807 1:-6 3:1 4:-1 5:-1 6:1 7:-2 8:1

88984510807 1:9 2:-1 3:-2 5:-1 6:-1 7:-4 8:8

88984532557 1:-3 4:-1 5:-1 6:-2 7:-1

88984532557 1:-8 2:-5 3:-4 4:-2 5:-2 6:-1 8:-8

88984533515 1:3 3:-5 4:-1 6:-2 7:-2 8:-2

88984533515 1:3 3:1 4:1 5:-2 6:-1 7:3 8:6

88984555883 1:-6 2:-3 3:-1 4:-1 5:-2 7:-1 8:-5

88984555883 4:-1 5:-2 7:-2 8:2

88984556504 1:-6 2:-3 3:-1 4:-1 5:-1 8:-1

88984556504 1:5 2:1 3:-1 8:5

88984570049 1:2 2:-1 3:-4 4:1 5:-2 7:2 8:6

88984570049 1:-2 2:-1 4:-1 6:-3 7:-4 8:-1

88984570922 1:-5 2:-2 3:-2 4:-2 5:-1 8:-4

88984570922 1:-3 2:-1 4:-3 5:-1 7:1 8:-1

88984592710 1:-2 2:-3 5:-1 6:-3 7:-4

88984592710 1:7 2:2 4:-1 6:-1 7:2 8:3

88984593364 2:-4 3:-2 4:-4 6:-2 8:7

88984593364 1:2 3:-2 5:-2 6:-1 7:-1 8:1

88984615779 1:-2 2:-2 3:-6 4:-1 5:-1 6:-1 7:-4 8:-2

88984615779 1:-2 2:-2 3:-1 5:-2 7:-2 8:-3

88984616547 2:-1 3:-1 4:-1 7:-1 8:2

88984616547 1:-1 2:-1 3:-1 5:-2 6:-1 7:-4 8:-13

88984629465 1:1 2:2 3:3 4:-1 5:-3 7:-2

88984629465 1:-3 3:1 4:-2 6:-1 8:-2

88984637800 1:-3 4:-2 5:-2 8:3

88984637800 1:6 2:2 3:-1 4:-2 5:-1 6:-1 8:8

88984652569 5:1 6:-2 7:-4 8:-5

88984652569 1:-1 2:-2 3:-1 4:-2 5:-2 6:-1 8:-2

88984653439 1:1 2:-2 3:-1 5:-2 7:1 8:-2

88984653439 1:-1 2:-1 4:-1 5:1 6:-1 7:-5 8:1

88984675889 1:-1 2:-2 3:-3 4:-4 5:-2 6:-1 7:-8 8:-6

88984675889 1:1 2:1 3:1 4:-1 7:4 8:1

88984676494 1:6 3:-2 4:1 6:-2 7:-3

88984676494 1:-15 2:-1 3:-3 5:-1 6:-2 7:-2 8:-17

88984689653 1:-4 2:-3 3:-1 5:-1 6:-1 7:1 8:-3

88984689653 1:-7 2:-3 3:-4 4:-3 5:-1 6:-2 8:-1

88984697725 1:1 3:-1 7:-2 8:-3

88984697725 1:3 2:-1 3:-1 4:-3 5:-1 7:2 8:4

88984712593 1:6 2:-1 3:-1 4:-1 7:2 8:4

88984712593 1:14 2:-1 3:-3 4:-1 5:-2 6:-4 7:-6 8:-3

88984713513 1:-15 2:-1 3:-1 4:-2 5:-2 8:2

88984713513 1:5 2:-2 3:-1 4:-1 5:-1 6:-1 8:6

88984735926 1:-4 2:-1 3:-3 4:-2 5:-1 6:-1 7:-2 8:-1

88984735926 1:3 2:-2 3:1 4:3 6:1 7:-1 8:-2

88984736589 2:2 4:-3 5:-2 6:1 8:-6

88984736589 1:3 2:-3 3:-8 4:6 5:-4 6:-3 7:-2

88984749522 1:3 2:1 3:-1 4:-10 5:-2 6:-1 7:-1 8:2

88984749522 1:-8 2:-2 3:-2 4:-1 5:-2 6:-3 7:1 8:-2

88984757790 2:-2 3:3 4:7 5:-1 6:-2 7:-5 8:-4

88984757790 1:-8 2:-2 4:-5 5:-1 6:-1 7:3 8:9

88984772567 1:-1 2:-4 3:-1 4:5 5:-1 6:-1 7:-9 8:-18

88984772567 1:-11 2:-1 3:-4 6:-1 7:19 8:8

88984773547 1:-2 2:-1 3:4 4:1 5:-1 6:-2 7:-2 8:-5

88984773547 1:8 3:-3 4:-5 5:-2 7:-1 8:-1

88984795837 1:-1 3:1 4:1 6:-2 7:4 8:3

88984795837 1:-4 2:-1 4:-3 5:1 7:-13 8:-4

88984796604 1:-1 2:-3 3:-3 4:1 5:-1 6:1 7:-2 8:-5

88984796604 1:10 2:-1 4:1 6:-1 7:6 8:-4

88984809555 1:-21 2:2 3:4 4:-8 8:7

88984809555 1:-7 2:-1 3:-6 4:1 5:-1 7:-6 8:-4

88984817756 1:1 2:-3 3:2 4:-5 5:-3 6:-5 7:-1 8:2

88984817756 1:7 2:1 3:4 4:2 6:-2 7:-9 8:-8

88984832709 1:3 2:-2 5:-1 7:8 8:8

88984832709 1:-1 2:2 3:-3 4:-2 7:-3

88984833337 1:-1 3:-7 4:7 5:-1 6:-1 7:1 8:-1

88984833337 1:-5 2:-6 3:-18 4:-26 5:-3 6:-3 7:-6 8:-2

88984855935 3:1 4:3 6:-1 8:-1

88984855935 1:-2 2:-3 3:2 4:-1 5:-1 8:-1

88984856598 1:5 2:1 4:2 5:-1 6:-1 7:-12 8:-3

88984856598 2:1 3:4 4:2 5:-1 6:-1 7:3 8:1

88984869424 1:-5 2:-2 3:-4 5:-1 6:-1 7:7 8:8

88984869424 1:-3 2:-5 3:-4 4:-3 5:-5 6:-3 8:-6

88984877764 1:-10 3:1 4:-1 5:-1 6:-1 7:-2 8:-4

88984877764 1:11 2:1 3:1 4:3 5:1 6:-1 7:-3 8:6

88984892733 1:-4 3:1 4:-2 5:-12 6:-2 7:-3 8:-4

88984892733 1:-3 2:-1 3:1 4:3 5:-2 6:-1 7:-1

88984893368 4:-2 5:18 6:1 8:1

88984893368 1:-8 2:-2 4:2 5:5 6:-1 7:1 8:-1

88984915763 1:5 2:-1 3:1 4:1 5:-1 6:-1 7:-6 8:-2

88984915763 2:1 3:1 4:-1 5:-7 6:-3 7:-1

88984916658 1:-4 2:-3 3:-5 4:-8 5:-11 6:-3 7:-1 8:-9

88984916658 2:1 3:3 4:1 5:1 6:-1 7:-1 8:6

88984929571 1:7 2:-1 3:-5 4:-2 6:-3 7:-3 8:-4

88984929571 1:-3 2:-3 4:-1 5:-1 6:-1 7:-4 8:-2

88984937684 1:1 2:1 3:-1 4:-3 6:1 7:2 8:-2

88984937684 1:-7 2:-2 3:3 4:3 5:-2 6:-2 7:-1 8:-2

88984952606 1:-1 2:-2 3:-3 4:-1 5:-1 7:-1 8:-3

88984952606 1:11 3:-1 4:-1 6:-2 7:-3 8:-2

88984953427 2:-1 5:-1 6:-3 7:-1 8:1

88984953427 1:-4 3:-1 4:2 5:-4 7:-1 8:1

88984975818 1:1 2:-2 3:-3 4:-2 6:-3 7:-3 8:-1

88984975818 1:21 2:1 3:1 5:3 6:-1 7:-3 8:-1

88984976656 1:-15 2:-2 3:-1 4:-2 5:-5 6:-1 7:4 8:3

88984976656 1:-15 2:-1 4:1 5:-3 6:-3 7:-5 8:-3

88984998377 1:13 2:1 3:-1 4:2 5:1 6:-2 7:-2 8:2

88984998377 2:-2 3:-1 4:-2 5:1 7:-4 8:-4

88984999092 1:6 2:-3 3:-5 4:-2 5:-5 6:-2 7:13 8:-1

88984999092 1:-5 2:-1 3:1 4:1 5:-3 6:-1 7:-3 8:-1

88985012507 1:-6 2:-4 3:-3 4:-3 6:-3 7:-3 8:-5

88985012507 1:-12 2:3 3:3 5:-3 6:-1 7:2 8:-7

88985013357 2:-3 3:-3 4:-3 5:-2 6:-1 7:-7 8:11

88985013357 1:-9 3:2 5:2 7:3 8:-1

88985035759 1:-1 2:-2 3:1 4:2 6:-1 8:-2

88985035759 1:-8 2:-1 3:-2 4:-1 6:-1 7:-2 8:-1

88985036534 1:5 3:-2 4:-2 6:-1 7:-1 8:-3

88985036534 1:4 2:-3 3:-3 4:-3 5:-2 6:-1 7:-2

88985058478 1:-3 2:1 3:1 4:1 5:-1 6:-1 7:-2 8:1

88985058478 1:-4 2:-2 3:-2 4:-2 6:-1 7:1 8:2

88985059055 3:-2 4:-2 5:-3 6:-1 7:-1 8:-3

88985059055 1:6 2:-2 3:-3 4:-1 5:-2 6:-1 7:-2 8:2

88985072587 1:32 2:2 3:-2 4:-2 5:-2 6:-2 7:-1 8:1

88985072587 1:-14 2:-2 3:-1 4:-2 5:1 6:-2 8:1

88985073504 1:1 2:-1 3:2 4:-2 6:-1 7:-4 8:-3

88985073504 1:-7 2:-3 3:-1 4:-1 5:-2 6:-1 7:2 8:-3

88985095872 1:-5 2:-2 3:-1 4:-2 5:-2 6:1 8:-4

88985095872 1:9 2:-2 3:-2 4:-2 5:-3 6:-2 7:1 8:6

88985096503 1:1 3:2 4:1 5:-1 6:-1 7:-1 8:4

88985096503 1:6 2:-2 3:-4 4:-4 5:-1 7:-2 8:7

88985118241 1:-11 2:-2 4:-1 6:-1 7:-1 8:-3

88985118241 1:-2 2:1 3:1 5:-1 7:1 8:-2

88985118980 1:-6 2:-4 3:-7 4:-6 5:-2 6:-2 7:-6 8:4

88985118980 1:3 2:2 3:4 4:4 5:1 6:-1 7:1 8:-4

88985132692 1:-6 2:-1 3:-6 4:1 5:-2 6:-1 7:-2 8:-1

88985132692 1:-7 2:-2 3:3 4:-6 5:-1 6:-2 7:-1 8:-1

88985133326 1:6 2:-1 3:-2 4:1 6:-1 7:1 8:-3

88985133326 1:1 4:-2 5:-1 6:-2 7:-3 8:-2

88985155920 1:-6 2:-1 3:2 4:1 5:1 6:-3 7:-1 8:2

88985155920 1:-3 2:-1 3:-4 4:1 5:-1 6:2 8:-7

88985156537 2:-2 3:-1 4:-1 5:-1 6:-1 7:-4 8:-2

88985156537 1:2 2:-2 3:1 5:-2 6:1 7:1 8:-2

88985178405 1:-8 4:7 6:-1 7:-1 8:-3

88985178405 1:1 2:-3 3:-7 4:-12 5:-2 6:-2 7:-2 8:-2

88985179053 1:-6 2:-3 3:3 4:3 5:-1 6:-2 7:-2 8:-5

88985179053 1:6 2:-1 3:-5 4:-5 6:-2 7:-2 8:2

88985192575 1:-5 2:-1 3:1 4:1 6:1 7:-2

88985192575 1:-4 2:-1 3:-2 4:3 6:-1 8:2

88985193540 3:-1 4:-1 5:-3 6:-1 7:2 8:-4

88985193540 1:1 2:-2 3:-2 5:-2 6:-3 7:-4 8:-1

88985214442 1:15 2:-3 3:-3 4:-4 5:-2 6:-2 7:-2 8:-2

88985214442 1:-3 3:1 4:2 5:2 6:2 7:-1 8:11

88985223392 1:-4 3:-4 4:-2 6:-2 7:-2 8:-24

88985223392 2:-1 4:2 5:-1 8:-2

88985238360 1:-3 3:-1 4:-3 5:-1 6:-1 7:-1 8:-4

88985238360 1:2 3:-1 5:-2 7:-1

88985239845 1:3 2:-1 3:2 4:1 5:-2 6:-1 8:2

88985239845 1:-5 2:-3 3:-7 4:-4 5:-2 6:-2 8:1

88985260952 1:-5 2:-1 3:-2 4:-2 5:-2 6:-3 7:-2 8:-4

88985260952 1:-5 3:-2 6:-3 7:-2 8:-7

88985262341 1:-2 4:-1 5:-1 6:-2 7:-1 8:2

88985262341 1:-3 2:-1 4:1 5:-3 6:-2 7:-2 8:-6

88985274532 1:-6 2:-2 3:-3 4:-5 5:-2 6:-2 7:-14 8:7

88985274532 1:-7 2:-3 3:-2 4:4 5:-1 6:4 7:17 8:-7

88985283412 1:13 3:1 4:-4 5:7 6:4 7:-9 8:2

88985283412 1:-1 2:2 3:6 4:9 6:1 7:-4 8:-7

88985298411 1:-10 2:-2 3:-4 4:3 6:-2 7:1 8:1

88985298411 1:-6 2:-3 3:-14 4:-35 5:-11 6:-9 7:-8 8:-9

88985299922 1:4 2:-1 4:1 5:-3 6:-1 7:3 8:-1

88985299922 1:-42 2:-4 3:-2 4:-3 5:-1 6:1 7:1 8:-3

88985320866 1:5 2:-3 3:2 4:2 7:2 8:1

88985320866 1:4 2:-1 3:4 4:8 7:-6 8:-6

88985322384 1:-4 2:-1 3:-4 4:-1 5:-2 6:1 7:4 8:11

88985322384 1:17 3:-3 4:-5 5:1 6:-2 7:-2 8:1

88985334415 1:-3 2:1 5:-3 7:-1 8:-10

88985334415 1:-1 2:-1 3:1 4:4 5:1 6:-2 7:-1 8:8

88985343392 1:5 2:1 4:-1 5:-3 6:-3 8:-3

88985343392 1:-6 2:-4 3:-5 5:-1 6:-1 7:4 8:-2

88985358406 1:-1 2:-2 4:-6 5:-1 6:1 7:2 8:1

88985358406 1:6 3:2 4:2 6:-1 7:-4 8:-3

88985359808 1:-7 3:-2 4:-1 5:-1 6:-1 7:6 8:-4

88985359808 1:-3 2:-1 4:-2 5:-3 7:-4 8:-4

88985380943 1:8 3:-4 4:-2 5:-1 6:-1 7:1 8:3

88985380943 1:-1 2:-2 3:1 4:4 6:-1 7:-2 8:1

88985382377 1:-4 2:1 5:-3 6:-1 7:-4 8:-1

88985382377 1:-1 2:-3 3:-1 4:-10 5:-1 6:-3 7:9 8:6

88985394557 1:-1 2:3 3:5 5:4 6:2 7:5 8:-2

88985394557 1:-2 2:1 3:-4 4:14 6:-3 7:-6 8:-2

88985403386 1:1 2:-6 3:-8 4:-27 5:-4 6:-2 7:-3 8:1

88985403386 1:4 3:9 4:5 5:-2 6:-1 7:-4 8:-4

88985417702 1:-8 2:-1 3:-11 4:-21 5:-6 6:-5 7:-2 8:-3

88985417702 1:3 2:1 3:2 5:-2 6:-4 7:1 8:4

88985424421 1:-4 2:-1 3:-2 4:7 5:6 6:8 7:-2 8:2

88985424421 1:5 2:3 3:3 4:7 5:6 6:3 7:-1 8:-2

88985440737 1:-7 2:-4 3:-4 4:1 5:-2 6:2 7:1 8:-6

88985440737 1:-5 2:-4 3:-5 4:-7 5:-13 6:-28 7:-12 8:-3

88985442361 1:-1 2:-2 3:-4 4:-6 5:-24 6:-26 7:-13 8:-6

88985442361 1:4 2:1 3:4 4:1 5:6 6:30 7:4 8:2

88985463250 1:1 3:2 4:11 5:47 6:37 7:18 8:3

88985463250 1:-3 2:-4 3:-1 4:5 5:-5 6:3 7:1 8:1

88985464880 2:2 3:6 4:8 5:-9 6:-19 7:-17 8:-6

88985464880 1:-3 2:-6 3:-11 4:-40 5:-44 6:-51 7:-4 8:-3

88985477827 1:3 2:3 3:-1 4:3 5:7 6:7 7:-3 8:6

88985477827 1:1 3:1 4:8 5:18 6:51 7:13 8:-5

88985484505 1:-5 2:-3 4:15 5:49 6:34 7:-13 8:-1

88985484505 1:3 2:2 3:10 4:12 6:-11 7:18 8:10

88985500866 1:-1 2:-2 3:8 4:-13 5:-47 6:-46 7:-13 8:-2

88985500866 1:-6 2:-7 3:-21 4:-18 5:-42 6:-21 7:-11 8:-10

88985502282 2:-4 3:-27 4:-3 5:41 6:14 7:2 8:4

88985502282 1:3 2:3 3:3 4:11 5:13 6:32 7:12 8:6

88985523424 1:2 2:-2 3:1 4:-3 5:-6 6:-18 7:-8 8:-4

88985523424 1:1 3:9 4:8 5:-23 6:-30 7:-17 8:-4

88985524864 1:-9 2:-5 3:7 4:4 5:-40 6:-24 7:1 8:-7

88985524864 1:5 2:-2 3:-31 4:-24 5:15 6:21 7:-1 8:9

88985537962 2:3 3:3 4:7 5:44 6:40 7:-2 8:-4

88985537962 1:5 2:4 3:8 4:-5 5:-6 6:-7 7:4 8:10

88985545898 1:-8 2:-7 3:-3 4:-25 5:-41 6:-73 7:1 8:-6

88985545898 1:2 3:3 4:42 5:17 6:64 7:14 8:1

88985560898 1:-6 2:-5 3:-1 4:-2 5:49 6:56 7:7 8:-8

88985560898 1:-1 2:-1 4:14 5:22 6:8 7:-7 8:4

88985562348 1:2 2:3 3:14 4:10 5:-24 6:-18 7:2 8:1

88985562348 1:-8 2:-3 3:-2 4:-20 5:-50 6:-69 7:-23 8:-8

88985583279 1:-6 3:-4 4:-9 5:-24 6:-31 7:-11 8:-11

88985583279 1:10 2:-1 4:12 5:32 6:28 7:16

88985584950 1:-4 2:-4 3:-13 4:-21 5:-12 6:3 7:5 8:-2

88985584950 1:-3 2:-1 3:12 4:1 5:-12 6:-14 7:-14 8:-8

88985597697 1:17 2:-2 3:-18 4:-8 5:-7 6:-3 8:16

88985597697 1:9 2:10 3:15 4:-6 5:-6 6:-18 7:-7 8:6

88985604429 1:14 2:6 3:27 4:21 5:4 6:24 7:24 8:24

88985604429 1:-23 2:-9 3:-54 4:9 5:34 6:35 7:-5 8:-7

88985620804 1:10 2:-6 3:-31 4:-31 5:34 6:18 7:9 8:4

88985620804 1:-8 2:-1 3:49 4:14 5:-36 6:-25 7:-3 8:-6

88985622377 1:2 2:-2 3:-42 4:-29 5:-27 6:-26 7:-13 8:-3

88985622377 1:13 2:4 3:15 4:-7 5:13 6:11 7:6 8:3

88985643172 1:-10 2:8 3:22 4:14 5:10 6:12 8:-2

88985643172 1:-4 2:-4 3:-22 4:19 5:33 6:28 7:3 8:-4

88985644871 1:-3 2:-1 3:-13 4:-10 5:-14 6:-9 7:-5 8:-9

88985644871 1:20 2:-3 3:9 4:-14 5:-32 6:-54 7:-8 8:-9

88985657777 1:-33 3:-6 4:18 5:-24 6:-15 7:-10 8:-4

88985657777 1:1 2:-1 3:-7 4:-18 5:25 6:19 7:4

88985664472 1:-12 2:-8 3:-2 4:14 5:17 6:29 7:2 8:-4

88985664472 1:-10 2:1 3:19 4:17 5:16 6:12 7:15 8:-3

88985680843 1:21 3:1 4:-11 5:-33 6:-24 7:-19 8:11

88985680843 1:35 2:-3 3:-63 4:-52 5:-27 6:-25 7:-21 8:-10

88985682424 1:-27 2:-1 3:11 4:25 5:19 6:20 7:28 8:10

88985682424 1:-8 2:-1 3:13 4:41 5:30 6:34 8:9

88985710939 1:4 2:-4 3:-12 4:-31 5:-10 6:-22 7:-4 8:-37

88985710939 2:5 3:10 4:9 5:-10 6:-23 7:-14 8:-17

88985712449 1:20 2:1 3:11 4:-14 5:1 6:14 7:6 8:-8

88985712449 1:13 2:4 3:19 4:-11 5:4 6:9 7:-6 8:2

88985717725 1:-8 2:-2 3:-10 4:29 5:-7 6:-9 7:24 8:19

88985717725 1:-19 2:-10 3:20 4:-1 5:-4 6:-9 7:1 8:11

88985724436 1:9 2:5 3:21 4:-3 6:-1 7:-12 8:2

88985724436 2:-2 3:-31 4:-25 5:-21 6:-11 7:-2 8:9

88985740899 1:-3 2:-1 3:17 4:10 5:10 6:-1 7:-2 8:-3

88985740899 1:-31 2:-8 3:-43 4:-11 5:22 6:23 7:13 8:5

88985742404 1:25 2:-4 3:-25 4:-16 5:-3 6:-2 7:-10 8:-6

88985742404 1:-22 2:-15 3:-3 4:-4 5:-33 6:-39 7:-15 8:-7

88985763249 1:5 2:13 3:12 4:-14 5:-17 6:2 7:-2 8:-1

88985763249 1:-8 2:1 3:6 4:9 5:32 6:27 7:8 8:6

88985764880 1:2 3:17 4:26 5:36 6:29 7:10 8:8

88985764880 1:2 3:-5 4:1 5:-4 6:-14 7:-22 8:-7

88985776961 1:-9 2:-13 3:-5 4:-26 5:-35 6:-23 7:-3 8:-2

88985776961 1:3 2:-3 3:15 4:3 5:-14 6:-13 7:-3 8:-2

88985785857 1:-9 2:1 3:-12 4:-8 5:-3 6:-1 7:-8

88985785857 1:-13 2:1 3:13 4:-4 5:3 6:-5 7:1 8:-10

88985800891 1:18 2:5 3:15 4:27 5:7 6:8 7:3 8:11

88985800891 1:-1 2:1 3:-6 4:-7 5:-5 6:-2 7:-6 8:-1

88985802345 1:-1 2:-1 3:2 4:-6 5:-4 6:-2 7:-3 8:-4

88985802345 1:-1 2:-2 3:-13 4:-15 5:3 6:1 7:1 8:-2

88985823229 1:-4 2:1 3:10 4:19 6:2 8:-5

88985823229 1:14 2:4 3:-2 4:10 5:2 6:10 7:20 8:17

88985824830 1:-4 2:-1 3:15 4:-9 5:-5 6:-8 7:-16 8:4

88985824830 1:4 2:2 3:-4 4:-14 5:6 6:-3 7:-1

88985836841 1:-9 2:-4 3:-4 4:31 5:-1 6:1 7:2 8:-6

88985836841 1:5 2:4 3:15 4:6 5:-5 6:-3 7:-3 8:-7

88985845832 1:-79 2:-9 3:9 4:11 5:5 6:7 7:8 8:-7

88985845832 1:63 2:5 3:-16 4:2 5:-5 6:-4 7:-2 8:14

88985860731 1:7 2:-3 3:-38 4:-21 5:-6 6:-8 7:-8 8:-3

88985860731 1:-7 2:-2 3:-5 4:-45 5:-4 6:-1 7:4 8:-1

88985862341 1:4 2:-5 3:-3 4:21 5:2 7:-3 8:-8

88985862341 1:-8 2:6 3:45 4:33 5:11 6:6 7:6 8:16

88985883148 1:-20 2:-9 3:-84 4:-31 5:-12 6:-6 7:-10 8:-7

88985883148 1:-32 2:-7 3:37 4:1 5:-5 6:-8 7:-15 8:-18

88985884834 1:20 2:7 3:10 4:-6 5:1 7:11 8:5

88985884834 1:-24 2:1 3:-2 4:-3 6:-2 7:-6 8:-27

88985898127 1:42 2:6 3:33 4:26 5:5 6:5 7:5 8:31

88985898127 1:6 2:-7 3:-13 4:-4 5:-3 7:2 8:-1

88985905837 1:-5 2:-3 3:-18 4:-8 5:-3 6:-4 7:8 8:-3

88985905837 1:3 2:16 3:42 4:19 5:2 6:-11 7:-11 8:9

88985920798 1:-32 2:-19 3:-52 4:-1 5:6 6:7 8:-17

88985920798 1:-12 2:-17 3:-54 4:-22 5:-9 6:-4 7:-1 8:-1

88985922407 1:-3 2:-5 3:6 4:21 5:4 6:3 8:2

88985922407 1:1 2:1 3:-28 4:-22 5:-3 6:1 7:4 8:-17

88985943176 1:10 2:8 3:65 4:7 5:2 6:-2 7:-1 8:9

88985943176 1:-7 3:18 4:22 5:2 6:2 7:3

88985944792 1:7 2:1 3:-16 4:-34 6:2 7:-3

88985944792 1:-2 2:-4 3:-24 4:-11 5:-2 6:-1 8:-3

88985956846 1:-6 2:3 3:30 4:-4 5:-5 6:-2 7:-3 8:-6

88985956846 1:-6 2:-2 3:-12 4:3 5:-5 6:2 7:-1 8:-2

88985965844 1:20 2:9 3:10 4:-12 5:-22 6:-27 7:-17 8:-4

88985965844 1:5 2:-6 3:13 4:13 5:28 6:26 7:11 8:2

88985980732 1:-10 2:8 3:22 4:22 5:15 6:24 7:11 8:-1

88985980732 1:14 2:-14 3:-40 4:-45 6:3 7:25 8:50

88985982359 1:-28 2:-7 3:8 4:11 5:-21 6:-13 7:-26 8:-42

88985982359 1:-23 2:-3 3:3 5:-20 6:-23 7:-15 8:-12

88986003164 1:-17 2:-4 3:13 4:10 5:-5 6:2 7:12 8:7

88986003164 1:37 2:14 3:14 4:12 5:6 6:-2 7:-17 8:11

88986004774 1:1 2:8 3:17 4:-6 5:6 6:6 7:9 8:5

88986004774 1:-6 2:-2 3:13 4:1 5:1 6:7 7:10 8:-8

88986016816 1:11 2:-5 3:-34 5:-3 6:-6 7:16 8:11

88986016816 1:-33 2:10 3:22 4:10 5:-8 6:-5 7:-21 8:-21

88986025958 1:18 2:-1 3:-42 4:-24 5:8 6:3 7:-1 8:12

88986025958 1:3 2:3 3:63 4:14 5:3 6:9 7:-1 8:1

88986040872 1:-17 2:1 3:-43 4:-26 5:-5 6:-6 7:-6 8:-9

88986040872 1:-4 2:-15 3:38 4:10 5:-11 6:-9 7:-1 8:-10

88986042353 1:4 2:6 4:8 5:-1 7:1 8:5

88986042353 2:5 3:-11 4:-3 5:12 6:11 7:16 8:10

88986063264 1:11 2:-6 3:18 4:-4 5:2 6:1 7:-5 8:-1

88986063264 1:29 2:12 3:8 4:11 5:2 6:2 8:27

88986064815 1:-6 2:7 3:50 4:15 5:6 6:10 7:-3 8:-12

88986064815 1:13 2:-21 3:-84 4:-16 5:-20 6:-14 7:-13 8:1

88986077106 1:4 2:8 3:31 4:-2 5:-6 6:-8 7:-7

88986077106 1:5 2:2 3:7 4:-2 5:2 6:2 7:3 8:-12

88986085935 1:-27 2:-2 3:17 4:16 5:1 6:-2 7:4 8:18

88986085935 1:-27 2:-12 3:-60 4:-27 5:-6 6:-2 7:-2 8:-19

88986101341 1:23 2:2 3:16 5:1 6:-2 7:-4 8:-3

88986101341 1:-12 3:16 4:17 5:3 6:5 7:-1 8:-9

88986102957 1:15 2:-1 3:-25 4:-20 5:2 6:2 7:4 8:2

88986102957 1:-7 2:-6 3:-5 4:17 5:-11 6:-8 7:-3 8:-1

88986123413 1:-19 2:-12 3:-6 4:-3 5:-8 6:-10 7:-12 8:-3

88986123413 1:-2 2:-4 3:12 4:-7 5:1 6:3 7:3 8:-17

88986124940 1:10 2:2 3:-2 4:-3 5:-1 6:1 7:-5

88986124940 1:4 2:-2 3:-22 4:-14 5:-16 6:-23 7:-15 8:6

88986136913 1:2 2:3 3:17 4:5 5:12 6:6 7:13 8:4

88986136913 1:1 2:6 3:-26 4:3 5:19 6:24 7:11 8:11

88986145882 1:4 2:-3 3:-1 4:15 5:6 6:9 7:4 8:5

88986145882 1:27 2:1 3:-11 4:-24 5:-12 6:-9 7:-3 8:2

88986160887 1:-36 2:-4 3:-16 4:-23 5:-25 6:-24 7:-17 8:-10

88986160887 1:-8 2:-4 3:3 4:-6 5:-8 6:-15 7:-5 8:-6

88986162505 1:10 2:-8 3:-22 4:-1 5:1 6:7 7:3 8:-1

88986162505 1:4 2:11 3:34 4:4 5:3 6:1 7:-2 8:2

88986183261 1:-3 2:-8 3:22 4:7 5:6 6:7 7:1 8:-3

88986183261 1:-13 2:-15 3:-58 4:-1 5:3 6:6 7:3 8:-6

88986184851 1:2 2:26 3:18 5:-3 6:-2 7:1 8:-2

88986184851 1:2 2:-51 3:47 4:15 5:7 6:2 7:1 8:1

88986197155 1:-5 2:-2 3:-91 4:-17 5:-8 6:-5 7:-6 8:-7

88986197155 1:1 2:7 3:15 4:16 5:-1 6:-2 7:-1 8:2

88986205861 1:3 2:-26 3:8 4:-18 5:-5 6:-7 7:-5 8:-17

88986205861 1:2 2:34 3:-4 4:-1 5:8 6:8 7:6 8:1

88986220716 1:10 2:12 3:16 4:12 5:2 6:4 7:-2 8:1

88986220716 1:-4 2:-6 3:15 4:13 5:-3 6:-6 7:-4 8:-5

88986222319 1:-3 2:1 3:-30 4:-5 5:-3 6:-2 7:2

88986222319 1:-1 2:3 3:1 4:9 5:5 6:2 7:-1 8:7

88986243442 1:-2 2:-12 3:5 5:-2 6:-2 7:-6 8:-11

88986243442 1:2 2:17 3:-11 4:-12 5:-6 6:-7 7:-1 8:-6

88986244794 1:-3 2:-9 3:8 4:2 8:1

88986244794 1:-6 2:3 3:-11 4:-8 5:2 7:1 8:-3

88986256891 1:7 2:7 3:22 5:2 6:4 7:1 8:2

88986256891 1:-6 2:-10 3:-5 4:-7 5:-4 6:-8 7:-5 8:-3

88986265931 1:2 3:-14 4:-1 5:-25 6:-36 7:-10 8:-3

88986265931 1:-10 2:-6 3:6 4:-4 5:-23 6:15 7:-3 8:-5

88986280901 1:2 2:-2 3:-12 4:-3 5:41 6:42 7:14 8:4

88986280901 1:7 2:2 3:8 4:10 5:43 6:40 7:15 8:-1

88986282373 3:1 4:14 5:12 6:-4 7:1 8:6

88986282373 1:-1 2:5 3:-8 4:-6 5:-25 6:-42 7:-11 8:-2

88986303743 1:-3 2:-4 3:14 4:-4 5:-32 6:-26 7:-8 8:-3

88986303743 2:2 3:2 4:-7 5:-21 6:-11 7:-9 8:-8

88986305370 2:-5 3:-22 4:-23 5:6 6:13 7:-1

88986305370 1:-6 2:-4 3:-3 4:-1 5:10 6:7 7:4 8:-3

88986325976 1:2 2:-2 3:6 4:1 5:-7 6:-5 8:-2

88986325976 1:-2 3:1 4:1 5:-5 6:-11 7:-3 8:-2

88986327383 1:-1 2:-4 3:2 4:3 5:-2 6:2 7:-1 8:1

88986327383 1:-6 2:-1 3:-1 4:-2 5:10 6:10 7:1 8:1

88986339498 1:27 2:1 3:-1 4:-1 5:-3 6:-1 7:-3

88986339498 1:-15 3:-2 4:-1 5:-9 6:-9 7:-2 8:-1

88986348464 1:-6 2:-5 3:2 4:2 5:1 6:5 8:-3

88986348464 1:6 3:-4 4:-1 5:8 6:7 7:6 8:4

88986363293 1:-1 2:3 3:7 4:-1 5:-4 6:-11 7:-7 8:-6

88986363293 1:9 2:-3 3:2 4:1 5:-8 6:-8 7:-3 8:13

88986364826 1:-10 2:-3 3:-16 4:-16 5:1 6:5 8:-6

88986364826 1:7 2:-1 4:5 5:5 6:4 7:2 8:5

88986376990 1:-7 2:-3 3:1 4:-3 5:-6 6:-6 7:3 8:6

88986376990 1:1 3:-3 4:-8 5:-4 6:-6 7:-1 8:-7

88986385969 1:-1 3:3 4:8 5:3 6:5 8:-1

88986385969 1:-10 2:-1 3:-3 4:2 5:1 6:-2 7:-2 8:-8

88986400064 1:1 2:-1 3:-1 4:-5 5:-3 6:-2 7:-10 8:4

88986400064 1:-5 2:-1 3:-2 4:-4 5:-7 6:-6 7:1 8:-5

88986406881 1:8 3:6 4:4 5:-4 6:-2 7:-2 8:3

88986406881 1:-4 3:-4 4:2 5:15 6:10 7:5 8:-3

88986423498 1:-4 2:-3 3:1 4:4 5:-2 6:1 7:1 8:-2

88986423498 2:-1 3:-3 4:-6 5:-5 6:-3 7:2 8:-3

88986424851 1:3 2:4 3:4 4:3 5:-1 6:-4 7:-8 8:3

88986424851 2:1 3:2 4:-3 5:-4 6:-6 7:-6 8:2

88986436766 1:-4 4:2 5:3 6:2 7:9 8:11

88986436766 1:10 2:-4 3:-3 5:-2 6:-2 7:-9 8:-31

88986453264 1:-9 2:3 3:-4 4:-4 5:-4 6:2 7:8

88986453264 1:3 2:1 3:9 6:-6 7:-9 8:7

88986459981 1:-1 2:-2 3:-13 4:-4 5:-2 6:-2 7:-7 8:-6

88986459981 1:6 2:2 3:-2 4:-3 6:-4 7:-1 8:8

88986466794 1:3 2:-3 4:3 5:3 6:2 8:-2

88986466794 1:-8 2:-2 4:1 5:-1 6:-2 7:-3 8:-5

88986490753 1:-4 3:3 4:-3 5:-7 6:-3 7:-1 8:-1

88986490753 1:-4 3:-4 4:-3 5:2 6:3 7:-1 8:3

88986492259 1:-3 2:-2 4:1 5:5 6:6 7:1 8:-3

88986492259 1:-1 2:-2 3:-4 4:-2 5:-4 6:-5 8:3

88986505817 1:-3 2:-3 3:-1 4:-1 5:-7 6:-8 7:-6 8:-6

88986505817 1:-3 2:-1 3:-4 4:-3 5:1 7:-6 8:3

88986507311 1:-2 2:-2 4:-2 5:-5 6:-1 7:9 8:1

88986507311 1:5 2:-4 3:-2 4:-7 5:-6 6:-7 7:-1 8:-3

88986520000 1:-10 2:-8 3:-5 4:-8 5:-7 6:6 7:24 8:-14

88986520000 1:-3 2:1 3:10 4:11 5:18 6:13 7:-17 8:18

88986526934 1:4 3:-1 4:7 5:20 6:12 7:2 8:7

88986526934 1:-5 2:-2 3:1 4:5 5:4 6:17 7:-5 8:-8

88986543166 1:-5 2:4 3:8 4:7 5:-1 6:-11 8:-3

88986543166 1:16 3:20 4:1 5:-15 6:-14 7:1 8:18

88986544816 1:-8 2:-17 3:-77 4:-29 5:-19 6:-17 7:-14 8:-12

88986544816 2:-1 3:-2 4:-4 5:-6 6:-7 7:-3 8:-2

88986565705 1:1 2:1 3:-2 4:-4 5:-1 6:-2 7:-12 8:-4

88986565705 1:-10 2:-3 3:1 4:2 5:1 6:4 7:15 8:-7

88986567297 1:5 2:4 3:21 4:6 5:-1 6:-2 7:-9 8:2

88986567297 2:-3 3:-4 4:-4 5:-2 6:1 7:14

88986580046 1:-3 2:-1 3:2 4:5 5:3 6:1 7:-8 8:3

88986580046 1:-2 2:-1 3:-6 4:-3 5:-2 6:-4 7:2 8:-3

88986586829 1:2 2:-1 3:11 4:4 5:-1 6:-1 7:2

88986586829 1:-8 2:1 3:-4 4:-1 5:1 6:2 7:-9 8:-4

88986603165 1:7 2:2 3:9 6:-1 7:6 8:4

88986603165 1:-3 2:-4 3:-7 4:-5 5:-5 6:-7 7:-5 8:-7

88986604793 1:-3 2:1 3:8 4:3 5:-2 8:-1

88986604793 1:2 2:1 3:3 4:2 5:1 6:3 7:5 8:1

88986625674 1:-3 2:-3 3:-1 4:-1 5:2 6:-2 7:-23 8:-1

88986625674 1:-3 2:-5 3:-10 4:-6 5:-4 6:-2 8:-4

88986627297 1:1 3:6 5:-1 6:-2 7:-1 8:-4

88986627297 1:1 2:-1 3:-1 4:-1 5:-1 6:-1 7:1 8:-2

88986640068 1:-3 2:-2 3:-4 4:-4 5:-1 6:2 7:1 8:1

88986640068 1:-5 3:-8 4:-8 5:-9 6:-2 7:-5 8:-5

88986646840 1:-2 2:1 3:9 4:3 5:1 6:2 7:13 8:-7

88986646840 1:-1 2:-1 3:1 4:-1 5:2 6:-9 7:-8 8:6

88986670670 1:-5 2:-14 3:-19 4:-7 5:-5 6:-3 7:-1 8:-2

88986670670 1:-3 2:-3 3:2 4:4 5:2 6:2 8:-2

88986672330 2:2 3:1 4:-5 5:-5 6:-2 7:-10 8:-2

88986672330 1:-4 2:-4 3:-6 4:-6 5:-5 6:-4 7:1 8:-6

88986685651 1:2 2:-1 3:2 5:1 6:3 7:7 8:4

88986685651 1:-12 5:-3 6:-7 7:-7 8:-5

88986687310 1:-2 2:-1 3:6 4:6 6:-1 7:-3 8:-9

88986687310 1:10 3:-8 4:7 5:-3 6:5 7:9 8:7

88986700058 1:-5 2:2 3:-7 4:-16 5:1 6:6 7:-8 8:-2

88986700058 1:23 2:1 3:-3 5:-2 6:-6 7:16 8:20

88986706833 1:-51 2:-4 3:3 4:-2 5:-1 6:-4 7:-10 8:-41

88986706833 1:8 2:1 3:15 4:10 5:2 6:-1 7:-4 8:6

88986723195 1:-9 2:-4 3:-6 5:-4 6:1 7:-5 8:-10

88986723195 2:-5 3:-8 4:-6 5:-1 6:3 7:5 8:-4

88986724786 1:12 2:-1 3:1 5:1 7:-3 8:19

88986724786 1:1 2:-2 3:-5 4:-7 5:-3 6:-2 7:5 8:-1

88986746125 1:-3 2:3 3:5 4:6 5:3 6:-4 7:3 8:-2

88986746125 1:-7 2:-1 3:-4 4:-4 5:1 6:1 7:-2 8:-4

88986747713 1:17 2:-1 3:-3 5:-3 6:-2 7:-7 8:6

88986747713 1:-8 2:-1 3:-1 4:-2 5:-2 6:-2 7:-1 8:-5

88986759323 1:3 2:3 3:4 4:1 5:-1 6:-2 7:-2 8:4

88986759323 1:7 2:1 3:1 4:5 7:-1

88986768293 1:3 3:3 5:-1 6:1 7:3 8:6

88986768293 3:-9 4:-7 5:1 7:-7 8:-3

88986783157 1:-11 2:-5 3:6 4:5 5:-1 6:-5 7:3 8:-7

88986783157 1:-5 2:-1 3:-5 4:-7 5:-3 6:-4 7:-3 8:-3

88986784729 1:5 2:4 3:12 4:11 5:3 6:1 8:9

88986784729 1:-9 3:-2 4:-9 5:-2 6:-2 8:-13

88986805729 1:7 2:-3 3:-6 4:12 5:-4 6:-4 7:-1 8:-3

88986805729 1:-14 2:-4 3:-5 4:2 5:-2 6:1 7:5 8:-11

88986807284 1:6 2:-5 3:-14 4:-31 5:-4 6:-1 7:5 8:6

88986807284 1:7 2:5 3:12 4:6 5:1 6:-5 7:-6 8:5

88986819324 1:-27 3:5 4:3 5:3 6:2 7:4 8:-2

88986819324 1:6 2:-4 3:-3 4:-23 5:-4 6:3 7:-7

88986828340 1:-38 2:-7 3:-7 4:8 5:-1 6:-10 7:-1 8:-8

88986828340 1:34 4:1 5:-2 6:-1 7:-1 8:5

88986843156 1:9 2:1 3:1 4:-2 5:1 6:3 8:14

88986843156 1:-9 2:2 3:4 4:7 5:3 6:5 7:-3 8:1

88986844759 1:4 2:-1 3:-2 4:-1 5:-1 6:3 7:4 8:2

88986844759 1:-15 2:-1 3:-4 4:-5 5:-1 7:-1 8:-9

88986865671 1:8 3:1 4:2 5:-1 6:-5 7:-1 8:5

88986865671 1:-1 2:3 3:6 4:6 5:2 6:3 7:-1 8:-4

88986867342 1:1 2:-2 3:1 4:-3 5:-1 6:-3 7:-9

88986867342 1:3 2:-2 3:-1 4:6 5:1 6:1 7:13

88986879337 2:-5 3:-5 4:-7 5:-3 6:-3 7:-5 8:5

88986879337 1:7 2:-4 3:-4 4:-1 5:-1 6:-3 7:5 8:12

88986888341 1:1 2:-6 3:-5 4:-1 5:-4 6:-6 7:-9 8:-24

88986888341 1:-19 2:-4 3:-3 4:1 5:1 6:3 7:-5 8:-2

88986903189 1:-9 3:-4 4:-6 5:-2 6:-1 7:-2 8:-8

88986903189 1:-12 2:-3 3:-3 4:-2 5:-1 6:-3 7:-10 8:-21

88986904752 1:12 2:2 3:1 4:4 5:1 6:-3 7:9 8:19

88986904752 1:2 2:-15 3:-31 4:-21 5:-13 6:-7 7:-1 8:-4

88986925911 1:-12 2:-5 4:-1 5:-1 6:-3 7:-4 8:-12

88986925911 1:11 2:2 3:-1 4:6 5:1 6:-1 7:-7 8:6

88986927412 1:10 2:5 3:4 4:4 6:3 7:8 8:2

88986927412 1:1 2:3 3:17 4:4 5:1 6:-1 7:-5 8:-8

88986939358 1:16 2:3 3:-5 4:-5 5:2 6:1 7:2 8:8

88986939358 1:-7 2:-7 3:-15 4:-22 5:-7 6:-3 7:1 8:-9

88986948404 1:5 2:2 3:1 4:3 5:1 6:1 8:-1

88986948404 1:-8 3:2 4:-3 5:-2 6:-1 7:-3 8:2

88986963207 1:10 2:1 3:1 4:-1 7:-2 8:3

88986963207 2:3 3:8 4:10 5:2 6:1 7:-3 8:-1

88986964758 1:-21 2:-2 3:-7 4:-3 5:-1 6:1 7:1 8:-2

88986964758 1:17 2:7 3:25 4:11 5:1 7:-2 8:13

88986985910 1:-4 4:7 5:-3 6:-2 7:1 8:-4

88986985910 1:9 2:1 3:-17 4:-13 5:1 6:-1 7:-5 8:4

88986987361 1:-17 2:-9 4:3 5:-4 6:-1 7:8 8:19

88986987361 1:4 2:8 4:2 5:1 6:-2 7:-10 8:-11

88986999382 1:-11 2:1 3:6 4:4 6:1 8:-7

88986999382 1:-25 2:5 3:5 4:6 5:2 7:1 8:-2

88987008391 1:8 2:-2 3:-1 4:-4 5:-2 7:8 8:-5

88987008391 1:-6 2:-5 3:-9 4:-3 5:-2 6:-3 7:-3 8:7

88987023424 1:-4 2:-1 3:-4 4:-3 5:-1 7:-2 8:-10

88987023424 1:10 3:3 4:4 5:-3 6:-3 7:-8 8:-1

88987024881 4:-1 6:1 7:-5 8:-5

88987024881 1:-11 3:-1 4:-1 6:-3 7:1 8:2

88987045732 1:16 4:-4 7:2 8:-19

88987045732 1:-6 2:-3 3:2 4:1 5:-3 7:5 8:-2

88987047405 1:11 2:2 3:-2 4:-3 6:-1 7:-5 8:-1

88987047405 1:-3 2:-2 3:-5 4:-2 5:-3 6:-1 7:-2 8:3

88987059557 2:-1 3:-1 4:-1 5:1 6:1 7:-5 8:10

88987059557 1:9 2:-2 3:2 4:1 5:1 7:7 8:-3

88987068376 1:-21 2:-2 3:-2 4:-1 5:-3 6:-1 7:-18

88987068376 1:-13 2:-1 3:-4 4:-1 7:-1 8:-7

88987083301 1:-3 2:-3 3:-1 4:-1 5:-1 6:-3 7:2 8:-1

88987083301 1:-13 2:-1 3:-5 4:7 5:-1 6:-3 7:-4 8:-1

88987084784 1:21 3:-12 4:-30 5:-5 6:-3 7:4 8:6

88987084784 1:-11 2:-4 3:12 4:9 5:2 6:1 7:-3 8:-6

88987105744 1:5 2:2 3:-17 4:-12 5:-3 6:-3 7:2 8:4

88987105744 1:4 2:-1 3:-2 4:-1 5:-3 6:-2 8:11

88987107300 1:6 2:5 3:4 4:12 5:2 6:-1 7:-2 8:-5

88987107300 1:-17 2:-1 3:-1 4:-3 5:-1 6:1 7:1 8:-5

88987119449 1:15 2:1 3:7 5:1 7:-7 8:5

88987119449 1:1 2:-1 3:-2 4:3 7:8

88987128529 1:9 3:-6 4:1 5:-3 6:-3 7:5 8:-13

88987128529 1:-3 2:-1 3:-5 4:-2 5:-1 6:-1 7:-8 8:4

88987143381 1:-2 2:-4 3:3 4:4 5:-1 7:-5 8:1

88987143381 1:15 2:-4 3:-3 4:-7 5:-4 6:-2 7:3 8:6

88987145051 1:-26 2:-3 3:6 4:3 5:-1 6:1 7:-6 8:-9

88987145051 1:18 2:1 3:-3 4:-1 5:-1 6:-2 7:1 8:-2

88987165697 1:-8 2:-2 3:-4 4:-3 6:-1 7:-5 8:-3

88987165697 1:-7 3:5 4:1 6:-1 7:-7 8:-9

88987172000 1:-27 3:4 4:1 5:-1 7:3 8:8

88987172000 1:-9 2:-5 3:-10 4:-4 5:-2 6:1 7:2 8:-33

88987179504 1:-4 2:-3 3:-1 4:-3 5:-3 6:-5 7:-8 8:-12

88987179504 1:-2 2:-5 3:-4 4:-3 5:-3 6:-3 7:-2 8:-3

88987188396 1:17 2:2 3:2 4:3 7:-2

88987188396 1:-8 2:-3 3:-7 4:-2 5:1 7:4

88987203213 1:-13 3:1 4:-1 5:-2 7:2 8:3

88987203213 1:8 2:-1 3:9 5:-1 6:-2 7:-6 8:-5

88987204860 1:22 2:-1 3:-8 4:-2 5:-2 6:-1 7:1 8:7

88987204860 1:14 2:1 3:1 4:-1 5:-1 6:-3 7:-8 8:1

88987225841 1:2 2:-3 3:6 4:-1 5:-1 6:-1 7:2 8:2

88987225841 1:-8 2:-1 4:-3 5:-1 8:-5

88987227545 1:-6 2:-3 3:-3 4:1

88987227545 1:-1 2:-3 3:-2 4:-3 5:-3 6:-1 7:2 8:6

88987239352 1:16 2:6 3:1 6:2 7:2 8:10

88987239352 1:-11 2:-4 3:-5 4:-4 5:-2 6:-2 7:4 8:-3

88987248401 1:-6 2:-1 4:-1 5:-1 6:-1 7:-2 8:-11

88987248401 1:23 3:3 4:1 5:-1 6:-1 7:3 8:20

88987263218 1:-39 2:-3 3:-4 4:-1 5:-2 7:2 8:2

88987263218 1:4 2:-1 3:-2 4:1 7:-4 8:-2

88987264885 1:6 2:-2 3:-2 5:1 7:-1 8:-1

88987264885 1:-6 2:-3 5:-2 6:-3 7:-4 8:13

88987285947 1:17 3:-2 4:1 5:-3 6:-1 8:-5

88987285947 1:3 2:-1 3:-1 4:-3 5:-1 6:-3 7:-3 8:7

88987287346 1:-2 3:1 4:1 5:-1 6:-1 7:-6 8:2

88987287346 1:-5 2:-1 3:-4 4:-1 5:-2 6:1 7:-5 8:-3

88987299976 1:2 2:-3 3:-1 6:-1 7:19 8:-6

88987299976 1:-13 3:-2 4:2 5:-2 7:-4 8:-6

88987308353 1:5 2:-4 3:-1 4:-11 5:-4 6:-4 7:-2 8:-7

88987308353 1:-8 6:-1 8:-7

88987322662 1:3 3:-2 4:1 5:-3 6:-1 7:-6 8:-1

88987322662 1:5 3:1 4:2 5:1 6:-1 7:1 8:11

88987329668 1:-3 2:-2 3:-4 4:1 5:-2 6:-4 7:-2 8:-3

88987329668 1:-10 2:-1 3:-3 4:-1 5:-1 6:-3 7:-3 8:-8

88987345878 1:7 2:-1 4:1 5:-1 6:-1 7:-3 8:2

88987345878 1:-2 2:1 3:-1 4:-2 5:-2 6:-2 8:-1

88987347387 1:-4 2:-1 4:1 7:-2 8:1

88987347387 1:-4 2:-1 4:-1 5:-3 7:3 8:-6

88987359581 1:-10 2:-3 3:-4 4:-3 5:-2 6:-3 7:-5 8:16

88987359581 1:10 2:-1 3:-4 4:-2 5:-2 6:-2 7:7 8:-3

88987368371 1:3 2:-1 4:2 5:-1 7:-4 8:2

88987368371 1:-5 2:-1 3:-4 4:-3 5:-1 6:-2 7:2

88987382604 1:2 2:-1 3:-2 4:-2 5:1 7:-2 8:2

88987382604 2:-1 3:-1 4:-1 5:-1 7:-2

88987389432 1:-18 2:-4 6:-1 7:2 8:3

88987389432 1:26 2:5 3:-1 4:3 5:2 6:-1 7:1 8:1

88987405875 1:-17 2:-6 3:-8 4:-6 5:-3 6:-4 7:-7 8:-14

88987405875 1:-3 2:-2 3:1 4:-3 5:-2 6:-1 7:5 8:3

88987407325 1:6 2:2 3:-1 5:-1 7:-3 8:-5

88987407325 1:-8 3:-1 4:-1 5:-1 6:-1 7:-1 8:-2

88987428340 1:2 2:-2 6:-2 8:2

88987428340 1:-11 2:-1 3:-1 5:-1 6:-3 7:-5 8:-13

88987429836 1:4 2:-1 3:-1 4:-1 5:-1 6:-1 7:-3 8:-2

88987429836 1:-6 2:-5 3:-1 4:-2 5:-1 6:4 7:7 8:3

88987443456 1:5 2:2 3:2 4:-1 5:-1 6:-3 7:-8 8:-12

88987443456 1:-8 2:-4 3:-4 5:-2 7:-12 8:-6

88987444913 1:17 2:2 3:1 4:-1 6:2 7:10 8:3

88987444913 2:-4 3:-3 4:-3 5:-2 6:-2 7:-14 8:-7

88987465711 1:-9 2:-1 3:-2 4:-1 6:2 7:6 8:1

88987465711 1:4 2:2 4:-1 5:-1 6:-1 7:-6

88987467367 1:-5 2:-4 3:-2 4:-2 5:-1 6:-2 7:-2 8:-5

88987467367 1:-6 2:-1 5:1 6:1 7:1 8:-2

88987488329 1:16 3:1 4:-2 5:-1 6:-1 8:7

88987488329 1:-25 2:-5 3:-2 5:-4 6:-3 7:-3 8:-35

88987489763 1:3 2:1 3:1 7:-2

88987489763 1:3 2:-2 3:-2 4:-3 5:-2 6:-3 7:1 8:-4

88987503247 1:2 2:-2 4:-1 7:-1 8:-1

88987503247 2:-1 4:-3 6:-1 7:3 8:3

88987504791 1:-21 2:-5 3:-4 4:-2 5:-1 6:-2 7:-2 8:-17

88987504791 1:-8 3:-2 4:-1 6:-2 7:-2 8:-3

88987525904 1:29 2:3 3:-1 4:1 6:3 7:15 8:3

88987525904 1:4 3:2 5:1 6:-1 7:-9 8:7

88987527381 1:8 2:-1 3:-6 4:-4 5:-2 6:-4 7:-7 8:1

88987527381 1:-3 2:-4 3:-2 5:-2 6:-1 7:7 8:4

88987548237 3:1 4:-2 5:-1 7:-2 8:-10

88987548237 1:1 3:-3 4:1 5:-1 6:-2 7:2 8:7

88987549794 1:3 2:1 3:-1 4:-1 5:-3 7:3 8:3

88987549794 1:2 2:-1 3:-1 4:-3 5:-2 6:-4 7:-7 8:4

88987562662 1:-14 2:-2 3:-1 4:2 5:-1 6:-1 7:-2 8:-2

88987562662 1:3 3:1 4:-3 5:-1 7:-2

88987569694 1:-5 2:-1 4:1 5:-1 6:-1 7:-3 8:2

88987569694 1:-3 3:-3 4:-1 5:-3 6:-2 7:-2 8:1

88987585911 1:-13 2:-4 3:-1 4:-1 5:-1 6:-1 7:-2 8:-7

88987585911 1:9 2:1 3:-3 4:-1 5:-2 6:-2 7:2 8:7

88987587345 1:1 2:-1 3:-1 4:-1 5:-2 6:-1 7:-2 8:2

88987587345 1:2 2:-1 3:-1 5:1 6:2 7:1 8:-1

88987608224 1:-31 2:-5 3:-1 4:-1 5:-1 6:-2 7:-4 8:1

88987608224 1:16 2:1 3:2 4:-2 5:-2 6:2 7:7 8:-4

88987609846 1:3 2:-1 3:-2 4:-1 6:-3 7:-3 8:4

88987609846 3:1 4:1 5:-1 6:-2 7:-5 8:-7

88987621985 1:-4 3:-3 4:-3 5:-3 6:-3 7:4 8:4

88987621985 1:1 2:-2 3:-2 4:-1 5:-1 7:4 8:4

88987630885 1:-6 2:-2 4:-1 5:-2 6:-1 7:-2 8:1

88987630885 1:8 2:3 3:3 4:-1 6:1 7:1 8:-2

88987653282 1:1 2:-3 3:-6 4:-2 5:-3 6:-1 7:-8 8:-11

88987653282 1:-2 2:3 3:4 4:3 6:-1 7:6 8:1

88987654858 1:-2 2:-1 3:1 4:-1 5:-1 6:-2 8:3

88987654858 2:-1 3:-1 7:2 8:-7

88987668389 1:8 2:2 3:1 5:-1 6:-2 7:-4

88987668389 1:-2 2:-2 4:-1 5:-1 6:-1 7:-6 8:-2

88987669764 1:6 3:-2 7:-1 8:9

88987669764 1:-7 2:-1 3:-1 4:-3 5:-2 7:3

88987682531 1:-1 2:-1 3:-1 5:1 6:-1 7:-1 8:-3

88987682531 1:-7 2:-2 3:-4 4:-3 5:-3 6:-2 7:-4 8:-1

88987689583 1:3 2:1 3:1 4:-1 7:-1 8:-5

88987689583 1:-6 2:-5 3:-4 4:-2 5:-3 6:-1 7:2 8:5

88987705959 1:-5 2:-4 3:-2 4:-3 6:-4 7:-5 8:-33

88987705959 1:-1 3:-1 4:-3 7:-2 8:5

88987707311 1:-1 2:-1 3:-1 4:1 5:-1 6:1 7:-3 8:-6

88987707311 1:-11 2:-3 3:-1 4:-1 5:-2 6:-2 7:-3 8:-4

88987728395 1:20 2:2 3:-1 4:-1 5:-4 6:-2 8:6

88987728395 1:-15 2:-5 3:-1 4:1 5:-3 6:-1 7:-3 8:-7

88987729874 1:-1 2:-4 3:-5 4:-1 5:-2 6:-3 7:-4 8:5

88987729874 1:16 2:3 3:-2 4:-3 6:-4 7:-2 8:6

88987742641 1:-6 2:-1 3:3 4:2 5:-1 7:8 8:12

88987742641 1:5 2:2 4:1 6:-1 7:-2 8:-8

88987749513 2:-1 3:-1 4:-2 5:-2 6:1 7:1 8:1

88987749513 1:-15 2:-3 3:-4 6:-3 7:-4 8:-7

88987765736 1:1 4:-2 6:-2 7:-3 8:5

88987765736 4:-1 6:-1 7:-1 8:1

88987767327 1:-4 2:-1 3:-1 5:-1 7:-7 8:-8

88987767327 2:-3 3:-4 4:-2 6:-1 7:6

88987788230 1:4 3:-1 4:-1 5:2 6:-1 7:-4 8:5

88987788230 1:-29 2:-2 3:2 4:1 6:-1 7:-2 8:1

88987789853 1:-11 2:-6 3:-3 4:-3 6:-1 7:-5 8:-7

88987789853 1:11 2:1 3:-1 4:-1 5:-1 6:1 8:1

88987802537 1:2 2:-2 3:1 4:3 5:-2 6:-1 8:6

88987802537 1:7 2:-3 3:-2 4:-4 5:-1 6:-2

88987809482 1:-3 2:-1 3:1 4:-1 5:1 7:3 8:-4

88987809482 1:-11 2:-3 3:-1 4:-2 5:-1 6:-3 7:-4 8:-1

88987825876 1:-3 2:-2 4:-3 5:-2 6:-2 7:-6 8:-4

88987825876 1:17 3:-3 4:-1 5:-1 7:2 8:2

88987827408 1:-20 2:-4 3:-3 4:-1 5:-2 6:-2 7:-2 8:-3

88987827408 1:22 3:-2 4:-1 7:3 8:15

88987855920 1:-1 2:1 3:1 4:-1 5:-1 6:1 7:-2

88987855920 1:-1 2:-4 3:-4 4:-3 5:-1 6:-1 7:-1 8:-7

88987857362 1:12 2:4 3:1 4:-1 6:-1 7:3 8:4

88987857362 1:-24 2:-4 3:1 5:-2 6:1

88987862554 1:17 2:2 3:-3 4:-1 7:-2 8:1

88987862554 1:-4 2:1 4:-2 5:-3 6:-2 8:-4

88987869413 1:2 2:-2 3:5 4:-1 6:-2 8:3

88987869413 1:13 2:-1 3:-4 4:2 7:-9

88987885733 1:-25 2:1 4:-2 5:1 6:-1 7:9 8:-4

88987885733 1:2 2:-3 3:1 4:5 5:-1 7:-3 8:-2

88987887363 1:7 2:1 3:-7 4:-13 5:-2 6:-2 7:-1 8:-1

88987887363 1:-1 2:-4 3:-3 4:-6 5:-2 6:-4 7:-7 8:-3

88987908151 1:-2 2:-1 3:-3 7:1 8:-2

88987908151 1:4 2:1 3:4 4:14 6:-1 8:10

88987909751 1:-14 2:-1 3:3 4:3 5:-2 6:-2 8:-13

88987909751 1:-6 2:1 3:5 4:-1 5:1 6:1 7:3 8:-9

88987921861 1:-3 2:-1 3:-1 4:-1 5:-1 6:-3 7:-5

88987921861 1:-5 2:-2 3:-2 4:-3 5:-1 6:-2 8:-6

88987930916 1:2 2:-2 4:1 6:-1 7:1

88987930916 1:-8 2:1 3:-3 4:-1 5:-3 6:-2 8:-12

88987945714 3:2 4:3 5:-1 6:1 7:-5 8:-7

88987945714 1:-6 2:-1 3:-3 4:-4 5:-1 6:-1 7:-3 8:-1

88987947315 1:33 2:4 3:-1 5:-1 6:-1 7:2 8:9

88987947315 1:-33 2:-6 3:-3 4:-2 5:-1 6:-2 7:-1 8:-25

88987968164 1:-2 2:-1 5:-1 7:-4 8:5

88987968164 1:22 2:1 3:-2 4:-3 7:2

88987969796 1:-3 2:-1 3:-2 4:-1 5:-1 6:-2 7:-4 8:-3

88987969796 1:3 3:1 4:4 5:-1 6:-3 7:1 8:-1

88987981924 1:-1 2:-3 3:-4 4:-4 6:-2 7:-1

88987981924 1:-2 2:-2 3:-3 4:-2 5:-2 6:-3 7:-4 8:-5

88987990885 1:1 2:-1 3:-2 4:-6 7:2 8:3

88987990885 1:4 2:-2 3:1 5:-1 7:-1 8:5

88988005863 1:-2 2:-2 3:-2 4:-2 5:-1 7:-1 8:-1

88988005863 1:-3 2:-3 3:1 4:-4 5:-2 6:-1 8:1

88988007339 1:-8 2:-5 3:-10 4:4 5:-3 6:-1 7:-14 8:-15

88988007339 1:-3 2:4 4:-2 6:1 7:12 8:1

88988028116 2:-1 3:1 4:-2 5:-3 6:1 7:-5 8:-3

88988028116 1:-4 2:-1 3:-3 4:-2 5:-1 6:-1 7:1 8:2

88988029788 1:-16 2:-1 3:1 4:3 8:-9

88988029788 1:4 2:-2 4:-2 5:-1 6:-1 7:-13 8:2

88988041807 1:5 2:-2 5:-2 6:-2 7:-2 8:1

88988041807 1:-6 2:-3 3:-5 4:-4 6:-2 7:3 8:-3

88988050811 1:-2 2:-2 3:-1 4:-1 5:-2 6:-2 7:-4 8:8

88988050811 1:-11 2:-3 3:-4 4:-2 5:-3 6:-3 7:-6 8:13

88988065656 1:-4 2:2 3:1 6:-3 7:1 8:-7

88988065656 1:-2 2:-4 3:-4 4:-3 5:-2 7:-4 8:5

88988067373 1:-9 2:-1 3:2 6:-1 7:4 8:1

88988067373 1:10 3:-2 4:-1 5:-2 6:-1 7:-1 8:14

88988088357 1:-2 3:1 4:-1 6:-1 7:3 8:-6

88988088357 1:2 2:1 3:-1 4:-2 5:-2 6:-2 7:-7 8:1

88988089856 1:3 2:-4 3:-4 4:-2 5:-1 6:-1 7:1 8:-2

88988089856 1:-9 2:-1 3:-1 4:1 6:1 8:-8

88988101736 1:-2 2:-1 3:-2 4:-1 5:-2 7:-4 8:-1

88988101736 1:1 2:-3 3:-1 4:-3 5:-1 6:-2 7:1

88988118353 1:-3 3:2 4:1 7:4 8:4

88988118353 1:4 2:-2 3:-6 4:-7 5:-3 6:-1 7:-3 8:-3

88988124775 1:-2 2:-1 3:4 4:-2 5:-1 6:-2 7:-1 8:-1

88988124775 1:-2 3:-4 4:-3 6:-1 7:-2

88988133329 1:21 4:-1 5:-1 7:2

88988133329 1:-3 2:-2 4:1 5:-1 6:-2 7:2 8:-5

88988148361 1:2 2:-5 3:-3 4:-1 5:-1 6:-2 7:1 8:1

88988148361 1:-7 2:-1 3:-4 4:-6 5:-2 6:-2 7:-3 8:3

88988149805 1:-7 4:1 5:-2 6:-1 7:-5 8:-3

88988149805 1:16 2:2 3:-2 4:-1 5:2 7:3 8:-2

88988161940 1:9 2:-2 3:-2 4:-3 5:-7 6:-2 7:7 8:17

88988161940 1:17 2:1 3:4 4:3 5:-10 6:-2 7:-3 8:-1

88988170770 1:-11 2:-4 3:-2 4:-1 5:16 6:2

88988170770 1:-5 2:-2 4:-1 5:4 6:2 7:-5 8:-2

88988185636 1:-4 3:-3 4:1 5:-3 7:-1 8:1

88988185636 1:-6 2:-2 3:-2 4:-3 5:-6 6:-2 7:-1 8:-2

88988187289 1:7 2:-2 4:-2 5:-13 6:-5 7:-1 8:9

88988187289 1:-4 2:-1 3:-1 6:-2 7:-1 8:-4

88988208120 1:-2 2:-2 3:-1 4:-3 5:2 6:-1 7:-5 8:-5

88988208120 1:-2 2:2 3:-1 4:-1 5:1 7:-1 8:-3

88988209757 1:-9 2:-8 3:-3 4:-2 5:-6 6:-4 7:-2 8:-5

88988209757 1:-1 2:-2 3:-3 4:3 5:1 8:-1

88988221894 1:-5 2:-1 3:-1 4:-3 5:-2 7:-3 8:2

88988221894 1:23 2:2 3:11 4:13 5:3 7:-1 8:-9

88988230779 1:-5 2:2 3:-16 4:-2 5:4 6:3 7:4 8:11

88988230779 1:-3 2:-6 3:-5 4:-15 5:-10 6:-4 7:-3 8:-5

88988245639 1:-6 2:-3 3:-6 4:-12 5:-5 6:-2 7:-1 8:-4

88988245639 1:-2 2:-1 3:-3 4:-6 5:2 6:1 7:2

88988247293 1:-4 2:3 3:8 4:4 5:-2 6:-3 7:-3 8:-6

88988247293 1:6 2:1 3:5 4:15 5:-1 7:-1 8:1

88988268315 1:-5 2:1 3:-2 5:1 6:-3 7:-3 8:-6

88988268315 1:-6 2:-5 3:-1 4:-2 6:-2 7:1 8:11

88988269949 1:16 2:6 3:3 4:5 5:-4 6:-1 7:-3 8:-4

88988269949 1:-9 3:-3 4:-6 5:-3 6:1 7:-2 8:1

88988282057 1:-8 2:-3 3:-1 4:-1 8:-6

88988282057 1:2 2:-2 3:-6 4:-2 5:1 8:4

88988290845 1:-4 2:-3 4:-2 5:-2 7:2 8:-4

88988290845 1:6 2:1 3:1 4:-2 6:-4 7:-2 8:-3

88988305830 1:5 2:1 3:2 4:1 5:1 7:-2 8:-2

88988305830 1:-65 2:-9 3:-3 5:-2 6:-2 7:-5 8:-10

88988307263 1:24 2:3 3:5 4:-5 7:2 8:5

88988307263 1:-5 2:-2 3:-6 4:-3 5:-2 6:-1 7:-1 8:-5

88988328592 1:2 2:-1 3:1 4:6 5:-1 7:-1 8:4

88988328592 1:-2 3:-4 4:-6 5:-2 6:-2 7:-2 8:1

88988330200 1:-8 2:-3 3:-1 4:-3 5:-2 7:-1 8:-4

88988330200 1:-4 2:1 3:3 4:1 7:-1 8:-1

88988350665 2:-2 3:-3 5:-1 6:1 7:-2 8:-6

88988350665 1:19 2:2 3:-2 4:-3 5:-1 6:-2 7:-1 8:5

88988352272 1:-17 2:1 3:4 4:1 5:-1 6:-1 7:-1

88988352272 1:8 2:2 3:1 4:3 5:-2 6:-1 7:-6 8:-3

88988365659 1:-4 2:-2 3:-7 4:-3 5:-1 6:-2 7:2 8:-2

88988365659 1:4 4:-2 5:-1 6:2 8:-6

88988367298 1:1 3:2 4:-1 5:-2 6:-2 7:-1 8:-1

88988367298 1:-7 2:2 3:-2 4:2 5:1 6:1 7:-1 8:-2

88988388176 2:-1 3:1 4:2 6:-2 7:-3 8:-2

88988388176 3:1 4:1 5:-1 6:-1 8:-2

88988389769 1:-20 2:-5 3:-3 4:-1 5:-2 6:-2 7:-1 8:-4

88988389769 1:28 2:5 4:-5 5:-2 6:-3 7:2 8:8

88988410869 1:7 2:-4 3:-4 5:-1 7:-2 8:20

88988410869 1:-7 2:-1 3:1 4:-1 5:-1 6:-2 7:3 8:-17

88988412310 1:-11 3:-1 6:-3 7:-9

88988412310 1:-3 2:-3 5:-2 6:-1 7:3 8:-2

88988425592 1:3 2:2 3:-2 4:-2 5:-2 6:-1 8:2

88988425592 1:-1 2:-1 3:1 4:2 5:-2 6:1 7:-4 8:1

88988427526 1:11 2:-2 3:-6 4:-2 5:-3 6:1 7:-1 8:-3

88988427526 1:-7 2:-2 4:-2 5:-2 6:-2 8:-2

88988448702 1:-7 3:-2 4:1 5:-2 6:-2 7:-5 8:-7

88988448702 1:2 2:-1 3:-3 4:-4 5:-1 7:-1 8:-4

88988450284 1:-6 2:-4 3:-4 4:-1 5:-1 7:4 8:13

88988450284 1:-1 2:-4 3:-1 5:-1 6:-4 7:-5 8:2

88988478205 1:-5 2:-2 4:-1 7:-5 8:-8

88988478205 1:3 2:-2 4:-2 6:-1 7:4

88988479756 1:15 3:-4 4:-3 5:-2 6:-1 7:-6 8:-3

88988479756 1:-8 2:-1 3:1 6:-3 7:-7 8:-3

88988485606 1:1 2:1 3:-1 4:-1 5:-2 6:-1 7:7 8:-2

88988485606 1:1 3:-2 5:-2 7:-3 8:3

88988489694 1:-4 2:-2 3:3 4:1 5:-1 6:1 7:-1 8:-6

88988489694 1:11 3:-1 4:-1 5:-1 6:-1 7:-1 8:-6

88988507918 1:14 3:-10 4:-10 5:-1 6:-3 7:-3 8:-6

88988507918 1:-1 3:1 5:-1 6:-2 7:3 8:4

88988514350 1:-3 2:1 3:-1 4:2 5:-4 6:-2 7:-5 8:-15

88988514350 1:1 2:-1 3:9 4:21 5:-1 6:-2 8:-2

88988530644 1:-9 2:-6 3:-7 4:-18 5:-1 7:3 8:5

88988530644 1:4 2:-2 3:-3 4:-1 6:-1 7:2

88988532276 1:-1 3:-2 4:-4 5:-2 6:-1 7:-1 8:-4

88988532276 1:-10 3:6 4:9 5:1 7:4

88988545085 1:-5 2:-4 3:-3 4:1 5:-2 6:-2 7:-9 8:-6

88988545085 1:-14 2:-3 3:-1 4:-2 5:-3 6:-2 7:-5 8:1

88988551939 1:15 2:-2 3:-2 4:-4 6:-2 7:2 8:1

88988551939 1:-4 2:-2 3:-5 4:-7 5:-1 6:1 7:3 8:2

88988568192 1:-9 2:1 4:4 5:-1 6:-2 7:-1

88988568192 1:5 2:1 3:1 4:-2 6:-1 7:-4 8:-6

88988569845 1:-6 3:-5 8:4

88988569845 1:-21 2:-3 3:-4 4:-8 5:-2 6:-2 7:-3 8:-29

88988590672 1:-21 2:-3 3:2 4:2 5:-1 7:-3 8:1

88988590672 1:10 2:1 3:2 4:4 6:-3 7:-2 8:-1

88988592277 1:-5 2:-2 3:3 5:1 6:-1 7:1 8:-4

88988592277 1:1 3:-5 4:-8 5:-2 6:-1 7:-2 8:-2

88988605206 2:-2 3:3 4:3 6:-1 7:-1 8:-7

88988605206 1:-3 2:-1 3:-4 4:1 5:-1 7:1 8:-1

88988611980 1:-8 3:-2 4:-2 5:-4 6:-1 8:2

88988611980 1:4 2:-1 3:-2 4:-7 5:-2 7:-2 8:8

88988628172 2:-5 3:-5 4:-1 5:-5 7:1 8:-6

88988628172 1:11 2:-1 3:2 4:2 5:-1 6:-1 7:3 8:19

88988629751 1:16 2:-2 3:-10 4:-7 5:-1 6:-3 7:-3 8:1

88988629751 1:-8 2:-2 3:-6 4:-8 5:-2 6:-1 7:-1 8:3

88988650684 1:11 2:4 3:5 4:4 7:4 8:3

88988650684 1:22 2:-2 3:-2 4:-1 5:-2 6:1 7:-5 8:-7

88988652250 1:-12 2:-1 3:2 4:2 5:-1 6:-1 8:2

88988652250 1:5 2:1 4:-2 5:-1 6:-1 7:1 8:5

88988665014 2:-1 3:1 4:-2 5:-2 6:-2 7:-5 8:-1

88988665014 2:-1 3:-2 4:-2 5:-1 6:-2 8:-3

88988671821 1:-1 2:-1 3:2 4:1 5:-2 6:-2 7:1 8:-1

88988671821 2:-1 3:-3 4:-1 6:-1 7:-4 8:2

88988688189 1:-7 2:-2 3:-1 4:-2 5:-1 6:-1 7:-2 8:5

88988688189 1:9 2:2 3:7 4:2 5:-2 6:-3 7:3 8:5

88988689789 1:-6 2:-2 4:-3 5:-2 6:-2 8:-4

88988689789 1:-5 2:-3 3:1 4:-1 5:-1 7:1 8:-3

88988710789 3:1 4:1 5:-1 6:-2 7:-2 8:1

88988710789 1:-14 2:-3 3:-6 4:-2 5:1 6:-1 7:-2 8:-4

88988712327 1:-2 2:-3 3:-1 5:-1 6:-2 7:-3 8:-2

88988712327 1:7 5:-1 8:7

88988725126 1:2 2:2 3:3 5:-1 6:-1 8:-3

88988725126 1:-10 2:-3 3:-4 4:-2 5:-2 6:-1 7:-2 8:-7

88988731842 1:5 2:-4 3:-5 4:-3 5:-2 6:-2 7:-2 8:-6

88988731842 1:-49 2:-1 3:-1 4:-1 5:-2 7:-2 8:-6

88988748357 1:7 2:-1 3:-2 4:-1 6:-1 7:-11 8:3

88988748357 1:10 2:1 3:-1 5:-2 6:-2 7:1 8:-2

88988749913 1:-8 2:-2 3:-3 4:-2 5:-1 7:-3 8:1

88988749913 1:12 2:-2 3:-1 4:-2 5:-2 6:-1 7:2

88988770646 1:-2 2:-1 3:-2 5:2 6:1 7:2 8:-6

88988770646 1:-14 2:-3 4:-1 5:-1 7:-3 8:-2

88988772271 1:6 3:3 4:2 5:-2 6:-2 7:-4 8:3

88988772271 1:8 3:2 4:-2 5:1 6:-2 7:-1 8:1

88988785009 1:-2 2:-1 3:1 5:-1 6:-2 8:-3

88988785009 1:-7 2:1 3:-4 4:-1 5:-1 6:-1 7:-3 8:-1

88988791959 3:-1 4:-2 5:-2 6:-2 7:3 8:-14

88988791959 1:-66 2:-3 6:-2 7:-6 8:-29

88988808179 1:2 3:-1 4:1 5:-2 7:3 8:-3

88988808179 1:-2 2:-1 3:-3 4:-1 5:-1 6:-1 7:-4 8:-2

88988809777 1:-6 3:5 4:-1 7:1 8:-2

88988809777 1:19 2:-4 3:-5 4:-1 5:-3 7:-1 8:9

88988830926 1:2 3:1 4:-1 6:-1 8:-1

88988830926 1:-18 2:-2 3:-2 4:-3 5:-2 6:1 7:-1 8:-5

88988832308 1:1 3:-3 4:-2 5:-2 6:-2 7:1 8:4

88988832308 1:18 2:-3 3:-2 5:-1 6:-2 7:-1 8:10

88988844312 1:8 2:3 3:1 5:-2 7:-1 8:-2

88988844312 1:4 2:-3 3:-3 4:-1 5:-1 6:-1 8:2

88988853326 1:-1 2:1 4:3 5:-1 8:2

88988853326 1:8 3:-10 4:-9 5:-2 6:-2 7:-2 8:3

88988868364 1:-6 2:-2 3:-2 4:-1 6:-1 7:1 8:-3

88988868364 1:-2 2:-2 3:-1 4:-3 5:-1 6:-1 7:-1

88988869784 1:-2 2:-2 3:2 5:1 6:1 7:3

88988869784 1:-4 4:2 5:-2 6:1 7:-6 8:-1

88988890713 1:33 2:1 3:-3 4:1 5:-3 6:-1 7:-8 8:4

88988890713 1:18 2:2 4:-3 5:-2 6:-3 7:6 8:6

88988892482 1:-8 3:1 4:1 5:1 7:-4 8:3

88988892482 1:8 2:-1 3:-3 4:-1 5:-2 8:2

88988904369 1:-10 2:-3 3:-1 6:-1 7:2 8:-1

88988904369 1:3 2:-4 3:-3 4:-2 6:-2 7:-3

88988914115 2:-1 3:-2 4:-3 5:-1 6:-1

88988914115 1:10 2:1 3:1 4:-2 6:-2 7:3 8:-1

88988927474 1:-9 2:-2 3:-1 4:-2 6:1 7:-3 8:-3

88988927474 1:-9 3:-2 4:-3 5:-1 6:1 7:-1 8:-4

88988928286 1:-24 2:-6 3:-2 4:-1 5:-1 6:-2 7:-2 8:-27

88988928286 1:14 2:-1 3:-3 6:-1 7:-3 8:-1

88988949953 1:-9 4:-4 6:-2 8:1

88988949953 1:-10 2:-1 3:1 6:-2 7:-3 8:-4

88988950728 1:6 2:-2 3:-4 4:-2 5:-1 6:-2 7:-1 8:5

88988950728 1:24 2:3 4:4 5:-1 6:-2 8:-1

88988973175 1:-23 2:-3 3:-1 4:1 5:-1 6:-1 7:4 8:-2

88988973175 1:1 2:-1 3:-3 4:-4 5:-1 6:-4 7:-4 8:1

88988973916 2:-2 3:-1 4:-2 5:-16 6:-1 7:1 8:1

88988973916 1:7 2:2 3:2 4:1 5:2 6:2 7:2 8:1

88988987479 1:-3 3:2 4:1 5:15 6:1 7:2 8:3

88988987479 1:1 2:1 3:2 4:3 5:4 6:2 7:-2 8:2

88988988268 1:1 2:1 3:-5 4:-3 6:-1 8:6

88988988268 1:-12 2:-1 3:2 4:-3 5:-10 6:-3 7:-1 8:-6

88989009967 1:-5 2:-2 3:-2 4:-3 5:-8 6:-4 8:-4

88989009967 1:-11 2:-1 3:-1 5:2 7:-2

88989010815 1:8 2:-1 3:-3 6:-2 7:-3 8:1

88989010815 1:-7 2:-3 4:-1 5:-1 6:-2 7:-1 8:5

88989033184 1:-4 2:-2 3:-1 6:-3 7:-1 8:-3

88989033184 1:27 2:-1 3:-2 5:-1 7:1 8:-2

88989033954 1:-16 2:1 4:-2 5:-1 6:-1 7:-1 8:5

88989033954 1:1 2:-4 3:-2 4:1 5:3 6:1 7:-3 8:4

88989047648 1:-32 2:-4 3:-3 4:-3 5:-4 6:-1 7:-4 8:-33

88989047648 1:-4 2:2 3:-1 4:-2 5:-6 6:-1 7:-1 8:-1

88989048514 1:6 2:-4 3:-3 4:-2 5:3 6:-1 7:-1 8:-1

88989048514 1:-9 2:-1 3:-1 4:-2 5:1 6:-3 7:-4 8:-4

88989070157 1:-1 2:-2 3:-1 5:-5 6:-2 8:-1

88989070157 1:5 2:1 5:-1 6:2 7:2 8:3

88989070841 1:-6 2:-1 3:-1 4:-1 5:1 6:-1 7:-7 8:-25

88989070841 1:-3 3:5 4:3 5:1 7:-2 8:13

88989093147 1:17 2:1 3:-7 4:-5 5:-3 7:4 8:9

88989093147 1:-14 2:-7 3:1 4:-3 5:-4 6:-2 7:-4 8:-10

88989094194 1:3 2:1 3:-1 5:2 7:2 8:3

88989094194 1:4 2:-1 3:-4 4:-3 5:-3 6:-1 7:-1 8:-10

88989107456 1:4 2:-1 3:3 4:1 5:-3 6:-3 7:-4 8:2

88989107456 1:-9 2:-1 3:-4 4:-1 5:2 7:3 8:-3

88989108302 1:34 2:2 3:1 5:-1 7:-6 8:5

88989108302 1:-14 2:-4 5:-1 6:-2 8:-2

88989130230 1:16 2:-1 3:-3 4:-1 6:-2 7:-7 8:5

88989130230 1:-6 2:1 3:1 4:1 5:-2 6:-1 7:2 8:1

88989130833 1:-2 2:-1 3:-4 4:-3 5:-2 6:-1 7:3 8:-1

88989130833 2:-2 3:1 4:-5 5:-2 6:-2 7:-1 8:-3

88989153424 1:-4 2:-2 4:-2 5:-2 6:2 8:-1

88989153424 1:2 2:1 4:-1 5:-2 6:-1 7:-6 8:3

88989154077 1:-4 2:-2 3:-3 6:1 7:2 8:2

88989154077 1:-3 2:-1 3:-1 4:-2 6:1 7:1 8:1

88989167761 1:1 2:-1 3:-1 4:-2 5:-2 6:-3 7:-1 8:-10

88989167761 1:11 2:-1 3:-2 4:-2 5:-3 6:-1 8:14

88989168347 1:-14 3:2 4:-2 5:2 6:-2 7:-1 8:3

88989168347 1:-5 2:-1 3:-3 4:-2 5:-1 6:-3 7:-2 8:-15

88989190203 1:-1 3:-1 4:3 6:1 7:1 8:8

88989190203 1:2 2:-2 3:-6 4:-10 5:-3 6:-2 7:-4 8:-2

88989190830 1:-6 2:-3 3:-1 4:-1 5:-2 6:-2 8:-6

88989190830 1:8 3:-2 5:1 6:1 7:-2 8:2

