timestamp,emg1,emg2,emg3,emg4,emg5,emg6,emg7,emg8
82374425843,0,-2,-1,1,-1,1,-2,-2
82374425843,1,-2,0,0,-1,-1,0,-1
82374426722,-2,-2,-3,-2,-1,0,-1,-1
82374426722,-1,-1,-2,-2,-1,-1,0,-2
82374430743,-3,-1,0,-1,0,-1,0,-1
82374430743,-2,-2,0,-1,0,-1,-1,0
82374432353,-1,0,-1,-2,-1,0,-2,0
82374432353,-1,-1,0,-2,-2,-1,-3,-1
82374436464,0,-2,-1,-2,-1,-2,-1,1
82374436464,-1,0,-3,-2,-1,-1,-1,-2
82374445245,0,-1,0,-2,-3,-1,-1,0
82374445245,-1,-2,-1,2,-2,-1,-1,0
82374460172,-1,1,-2,-1,-1,-2,-1,-2
82374460172,-3,0,-1,-1,-1,-2,-2,-1
82374466569,-1,-1,-2,-2,-2,-3,-2,-2
82374466569,-2,-1,-1,-1,-1,-2,-2,-1
82374478031,1,-1,-1,0,0,-1,-1,-2
82374478031,-2,0,-1,-1,0,-1,-2,2
82374497991,1,0,-1,1,0,-1,-1,-2
82374497991,-1,-1,-1,-2,-1,-1,1,0
82374499589,1,-1,1,-1,-1,-1,-2,-2
82374499589,-1,0,0,-2,0,0,0,0
82374544776,-1,-1,-2,-2,-1,0,0,-3
82374544776,0,-1,0,-2,-1,-2,-2,-1
82374545596,-1,-3,-2,0,-1,-1,0,0
82374545596,0,-2,-1,-1,-1,-3,-2,-2
82374546448,-2,-1,0,-1,-1,1,0,0
82374546448,0,1,-1,-4,-2,-1,0,-3
82374549547,-1,-1,0,-1,-1,0,-1,-2
82374549547,-1,-1,0,3,1,0,0,-1
82374556315,0,-3,-2,-6,-1,-1,-1,0
82374556315,0,-2,-1,-1,-2,-2,-2,1
82374563835,-3,0,-1,-1,-2,-2,-3,-2
82374563835,-2,-2,-2,-1,-2,-1,-2,-1
82374572745,-1,1,-2,-1,-2,-1,-1,0
82374572745,-1,-3,-2,1,-1,0,0,-1
82374586305,-1,-1,1,-1,0,-2,0,0
82374586305,-2,-1,0,-7,-4,-2,-1,-2
82374595341,-1,-1,-3,1,-2,-3,-2,-1
82374595341,0,-2,-3,-1,-1,-1,-3,-1
82374617661,0,2,-2,2,-1,1,-1,0
82374617661,-1,-1,-2,0,1,-1,-2,-1
82374619277,0,0,-1,1,-1,-3,-3,-1
82374619277,-2,1,-1,0,-1,-6,-1,1
82374632016,0,-2,-1,-5,2,6,1,-1
82374632016,1,0,-1,-4,1,0,0,-1
82374638926,-2,-1,0,1,-2,-1,-1,-2
82374638926,-2,-2,-1,5,-4,7,0,-3
82374655192,-4,-2,-1,-1,-4,-14,-5,-5
82374655192,0,0,-2,-3,-2,-6,3,4
82374661603,0,-2,1,1,0,1,-3,-1
82374661603,-2,-2,1,1,1,6,3,1
82374677946,-3,-2,-2,-11,-4,4,0,-14
82374677946,1,-3,-2,1,-4,-4,4,52
82374679404,1,1,2,14,6,-1,-6,-2
82374679404,-2,0,0,-4,-3,-5,-2,-3
82374691408,1,-2,1,14,-2,-3,-2,7
82374691408,-4,-1,-1,-4,0,2,-1,-19
82374700402,-4,-1,-3,1,-3,6,2,-10
82374700402,-1,-1,-1,-12,-3,-8,-3,9
82374715253,-4,0,0,5,3,-9,-3,-20
82374715253,-1,0,-1,-4,-2,12,-1,24
82374716869,-2,-1,-1,0,-8,-15,-4,-3
82374716869,0,0,2,3,2,5,3,-8
82374737858,0,0,-1,-3,0,6,2,4
82374737858,-1,-1,-1,7,5,-4,-5,-17
82374739327,0,-2,-2,-13,-4,-8,-4,0
82374739327,-6,-2,-2,-4,-1,-6,-5,-2
82374751317,-1,-1,-1,-11,1,15,-1,-1
82374751317,6,-1,0,10,0,2,4,0
82374760423,1,0,1,3,5,0,-1,-5
82374760423,0,0,0,11,-1,1,13,-4
82374775438,-5,-1,-5,-17,-5,-6,-6,-3
82374775438,1,-1,-1,6,-4,6,-9,-10
82374776872,1,0,-1,-13,-9,-19,0,12
82374776872,-3,0,1,10,1,3,4,-23
82374797785,3,-1,-1,9,5,19,-5,0
82374797785,-2,-2,-2,-8,1,-7,-2,-20
82374799352,1,-2,0,-1,-4,-3,5,18
82374799352,-11,-2,-1,-9,-4,-13,-28,-57
82374811571,10,1,-3,-7,0,8,28,47
82374811571,-1,0,1,-1,-4,-5,-2,-9
82374820316,0,-2,-2,-3,0,9,3,-12
82374820316,0,-1,-2,2,7,-5,-13,1
82374835238,-4,-3,1,-2,-5,6,-8,-14
82374835238,-4,-4,-5,15,-3,-28,-5,-8
82374836835,-3,0,-1,-2,1,16,5,3
82374836835,6,0,-4,-9,-1,13,2,23
82374857983,-1,-1,1,5,-3,-24,-9,-16
82374857983,-2,-1,1,-6,-5,0,15,26
82374859364,2,-3,-5,-13,-4,-3,-10,-21
82374859364,-2,-4,2,4,2,2,-4,18
82374871465,-1,-2,-3,1,3,22,18,-3
82374871465,-5,-1,-2,-2,-7,-4,-6,-11
82374880413,-8,1,0,-1,6,-5,-21,-3
82374880413,17,-1,0,0,0,2,17,23
82374895360,1,-1,-2,6,-6,-36,-8,3
82374895360,-4,0,1,7,3,0,-16,-17
82374896781,-1,-2,0,-9,0,17,10,-2
82374896781,-5,0,-1,1,-9,-17,-7,3
82374917923,-4,-4,-2,2,-3,13,5,-2
82374917923,4,2,-1,-5,6,16,4,-3
82374919397,-3,-1,-1,3,4,10,-2,-12
82374919397,1,-2,-1,5,0,-32,-7,6
82374931432,3,-1,-1,-10,-8,-16,4,12
82374931432,-6,0,1,4,5,17,-3,-12
82374940419,0,-3,-1,4,3,14,1,11
82374940419,-9,-3,-7,-24,-28,-34,3,-5
82374955402,4,0,1,1,6,-12,-41,-20
82374955402,-3,2,4,1,1,-19,2,-21
82374956838,12,4,4,9,15,42,19,68
82374956838,4,-3,-2,9,12,32,12,-29
82374977818,-6,-1,-2,-10,1,-24,-8,-18
82374977818,1,-3,-2,-13,-16,-23,-6,42
82374979307,-8,-1,-1,-3,-2,-26,-2,-15
82374979307,0,-6,-4,3,-12,18,-17,3
82374991526,-8,-5,-2,4,2,6,17,-21
82374991526,3,1,2,8,3,4,4,-12
82375000374,-7,-6,-4,-12,-15,-18,-7,-20
82375000374,1,3,0,-9,8,-4,3,21
82375013879,-6,-1,-3,-29,-11,30,-17,-9
82375013879,-4,-6,-6,10,-5,-39,3,-1
82375022840,2,2,1,4,2,-9,-2,-3
82375022840,-5,0,0,-8,0,18,-11,-7
82375037862,3,1,-1,-11,1,0,5,18
82375037862,5,4,3,0,6,19,27,14
82375039349,-6,-3,2,5,-3,9,-5,-20
82375039349,-3,-1,-1,-23,1,-4,-4,-3
82375051368,-3,-3,-5,9,-17,-40,-15,-5
82375051368,1,-2,0,2,11,20,13,9
82375060388,-1,9,5,20,11,9,-8,-19
82375060388,2,-10,1,0,-6,-12,-8,-11
82375074726,-2,3,2,-1,-7,-13,1,9
82375074726,7,-2,4,9,10,4,-2,-5
82375081344,11,4,-7,-18,-14,-5,13,1
82375081344,-4,3,3,36,24,16,2,66
82375097853,0,0,3,-18,-3,17,2,-3
82375097853,-4,-6,-6,15,2,-12,-17,-14
82375099334,-3,-6,0,23,-16,-11,-6,-9
82375099334,-1,1,-4,-102,-19,-4,22,-3
82375111427,-1,-1,1,69,10,6,-3,1
82375111427,-2,5,2,-69,1,14,-6,-2
82375120355,-3,-4,0,19,-6,-21,-2,4
82375120355,-12,-5,-9,77,-6,-20,-20,-29
82375134789,0,3,5,-34,6,0,10,12
82375134789,-4,-5,-15,-2,-3,33,-7,-16
82375141447,1,0,0,-57,3,-15,-4,23
82375141447,2,-3,0,19,4,15,27,-6
82375157946,4,3,5,16,17,-7,-10,11
82375157946,-7,-4,-3,-11,-39,8,-11,-4
82375159358,-1,-3,-4,-6,-4,-45,-5,-6
82375159358,2,3,6,7,4,11,-10,9
82375171518,0,1,4,-12,-1,19,-5,-16
82375171518,-3,-3,-2,30,14,-21,7,9
82375180409,-3,-3,-9,-17,-15,27,-11,-10
82375180409,-3,0,3,7,16,-3,4,-17
82375194635,0,1,2,0,-7,-27,12,5
82375194635,1,-6,-7,6,2,0,-21,-13
82375201342,-19,1,0,18,5,6,11,11
82375201342,-13,-2,-3,-22,-3,11,-3,-24
82375217724,19,-3,-5,13,-5,13,-13,9
82375217724,-18,-7,-3,-11,-9,2,5,-71
82375219346,7,8,4,-22,-7,-36,1,17
82375219346,6,8,3,3,-3,18,19,8
82375231391,-17,-6,-11,-8,2,19,-12,-51
82375231391,-27,25,9,17,5,16,-68,42
82375240428,-22,-54,-13,21,6,-10,78,85
82375240428,9,9,5,-3,-12,-41,2,-52
82375254578,26,12,5,-9,-29,-10,-4,66
82375254578,-71,8,1,8,28,43,-39,-99
82375261580,52,-12,-8,-6,10,-1,35,-44
82375261580,14,8,6,-3,1,9,20,2
82375277826,70,-43,-29,-15,-21,-40,-68,96
82375277826,-11,8,8,10,4,6,112,21
82375279376,-88,-25,-11,-23,-16,-35,-128,-77
82375279376,103,26,-16,-4,-14,-8,56,44
82375291410,-84,1,18,27,23,22,-8,26
82375291410,-19,-26,-8,-21,-7,5,10,127
82375300331,-65,26,5,5,-5,11,69,-84
82375300331,19,-13,1,5,-10,-13,-72,46
82375314537,14,40,13,7,25,14,21,51
82375314537,12,-20,-12,-20,-20,-61,-95,-117
82375321291,67,1,7,17,17,57,94,70
82375321291,-21,-2,-7,-14,-17,-20,-79,-89
82375337661,-48,-5,-6,-6,-11,-1,25,-81
82375337661,36,-6,-1,-5,-8,-20,-17,-13
82375339252,29,22,1,1,4,24,-44,-17
82375339252,-25,-15,3,6,8,-14,18,26
82375360184,25,-4,-1,1,-8,-21,-8,-24
82375360184,16,10,9,3,-11,-1,55,-20
82375361809,-11,11,4,-1,11,34,-41,30
82375361809,-44,-12,-6,-7,6,-15,4,-24
82375374510,-38,-5,3,0,32,54,-3,-115
82375374510,-25,2,-1,-9,-4,-39,-42,8
82375381304,-13,-31,-9,-8,-8,14,39,68
82375381304,-17,-8,-5,9,11,20,-10,47
82375397661,7,3,-13,-2,-2,-16,-17,-18
82375397661,32,5,-7,-6,-6,5,56,11
82375399331,22,10,6,16,10,-8,-6,-17
82375399331,-18,-5,-13,-14,-3,23,-3,2
82375429104,-26,-12,-4,16,-18,-22,-11,-29
82375429104,17,6,1,0,2,7,31,28
82375430726,2,7,5,3,0,-2,-31,-2
82375430726,-16,-1,4,0,-3,7,-7,-25
82375433881,6,4,0,-12,-6,-10,31,-2
82375433881,10,-2,-1,1,-6,-6,-23,-9
82375445680,17,5,-3,-9,-13,-11,-32,-38
82375445680,5,0,5,1,13,-1,7,28
82375450033,52,-12,-8,-6,10,-1,35,-44
82375450033,14,8,6,-3,1,9,20,2
82375451093,70,-43,-29,-15,-21,-40,-68,96
82375451093,-11,8,8,10,4,6,112,21
82375457870,1,-4,1,5,0,10,10,-20
82375457870,10,-2,5,-5,8,9,-16,-43
82375459469,-16,-3,-3,9,-4,-10,-18,-10
82375459469,-9,2,7,8,-5,-6,5,-3
82375480233,0,-4,-3,-15,-6,-12,5,13
82375480233,-5,-2,1,-15,-5,10,-7,0
82375481842,-2,3,-7,3,3,-21,2,-14
82375481842,-5,-2,1,37,11,8,-2,-13
82375494074,2,1,-1,-82,-8,9,14,6
82375494074,-2,-3,-8,25,3,3,-8,-3
82375502882,4,2,-3,-24,-7,-4,-2,-3
82375502882,-5,-2,5,61,1,-2,-7,3
82375516602,-3,-2,1,-41,-14,-21,-4,7
82375516602,7,1,-1,1,7,10,10,22
82375525387,1,2,-1,-8,5,15,-12,-7
82375525387,-8,-3,4,3,-6,-12,4,-11
82375540482,2,0,1,37,11,0,4,3
82375540482,0,-1,0,-33,-12,-21,3,-3
82375541844,-2,1,2,13,0,5,-14,-6
82375541844,0,-1,-8,-27,-4,4,5,2
82375562891,1,-4,-3,23,3,1,-10,-11
82375562891,3,-1,0,-13,-4,-12,-3,15
82375564355,-2,3,6,20,6,-1,1,2
82375564355,-4,-2,-6,-27,-2,13,2,-5
82375576548,1,-2,-4,16,3,-1,9,7
82375576548,1,2,4,36,5,8,1,5
82375585376,-3,0,2,-48,-13,-7,2,-8
82375585376,-2,-2,-1,-32,-1,-25,-15,-4
82375599594,1,-3,-7,3,-2,23,3,6
82375599594,-4,-2,-1,7,-3,-22,-8,-7
82375606426,-1,-1,2,27,4,-17,-6,-3
82375606426,0,0,-2,-38,0,20,13,2
82375624134,-2,-3,-4,8,-6,-12,-8,0
82375624134,1,-1,1,-8,-6,5,-3,0
82375625782,-2,-1,-6,2,4,-1,-1,1
82375625782,-3,-1,-1,12,3,-9,1,-8
82375636552,1,2,3,7,2,-4,0,4
82375636552,-3,-3,-4,-1,1,-1,-4,-3
82375645396,-1,0,-3,7,-4,-4,5,-3
82375645396,-2,-2,-4,14,0,4,-8,-8
82375659764,1,0,0,-10,-4,2,6,4
82375659764,-2,-2,-5,-13,-8,-1,-2,0
82375666579,-5,-2,3,1,5,0,5,-2
82375666579,0,0,1,-6,-2,-3,-4,2
82375682912,0,-1,0,15,6,-1,3,1
82375682912,-2,0,-3,5,0,10,-2,1
82375684343,-3,0,-5,10,-3,-9,4,-3
82375684343,3,-7,-1,5,3,-14,-5,-9
82375696431,-1,-1,-2,4,-1,8,-6,0
82375696431,1,-1,0,2,3,-1,4,-3
82375705298,-11,-3,-1,4,3,12,-3,-22
82375705298,18,7,5,-27,-11,5,3,2
82375719658,-2,-3,6,-6,-7,-14,0,0
82375719658,2,-2,14,18,-2,-13,-6,6
82375726588,-5,-4,16,-8,-4,1,-1,-10
82375726588,-11,0,13,0,-1,-2,-3,3
82375742948,-8,-13,-4,3,4,3,-4,-11
82375742948,-2,1,-1,-2,0,3,0,-4
82375744376,2,-1,-11,-5,-7,-11,-9,6
82375744376,-3,-4,-11,4,1,5,3,9
82375756500,6,2,-9,6,7,16,10,-1
82375756500,-13,3,-16,-6,4,3,-3,-12
82375765381,12,-2,-15,0,-9,7,6,35
82375765381,-5,0,-15,-2,-2,-11,-3,-6
82375779722,2,1,-8,-5,-9,-25,-9,-5
82375779722,-2,-2,-8,-8,-6,1,7,1
82375786546,0,2,-1,-9,2,3,-4,-4
82375786546,-4,-1,-3,25,-8,2,-4,-2
82375802949,-1,3,0,-19,2,0,5,-1
82375802949,9,-4,0,-1,-3,4,2,14
82375804344,0,1,1,1,-5,-4,-2,-7
82375804344,-3,-4,-2,-7,-4,-8,-1,3
82375825410,-6,-1,2,10,0,-1,-2,2
82375825410,-4,0,-2,-2,-1,22,-8,-4
82375826897,0,-2,-2,1,-1,-31,1,1
82375826897,0,1,3,13,3,13,4,2
82375839619,0,3,4,-2,-4,-1,-6,2
82375839619,-4,-4,-2,-8,1,0,-1,-9
82375846366,3,2,3,5,1,11,5,-14
82375846366,9,0,1,-9,3,-10,1,38
82375862892,-3,-1,1,0,-3,14,-4,-9
82375862892,1,-3,4,4,3,-24,-2,3
82375864355,-2,1,5,-4,3,5,-4,-12
82375864355,-6,-1,0,-11,1,9,6,-16
82375885391,-2,0,-1,-3,-7,-1,-3,5
82375885391,-1,-7,-5,-7,1,-10,-3,2
82375886829,-4,-2,-2,-2,-3,-3,-7,3
82375886829,-3,0,-3,-1,-1,-1,4,-3
82375899766,0,-4,2,7,5,7,2,6
82375899766,-4,3,0,2,0,-7,-3,-9
82375906591,-1,-3,-4,-18,-8,-7,-2,2
82375906591,-2,-1,0,-1,-5,-7,-9,-12
82375922980,2,4,0,-2,6,7,6,-8
82375922980,1,-1,-1,-16,-2,13,-8,0
82375924404,-4,-2,1,25,4,-8,14,-3
82375924404,2,0,-2,-2,-3,-2,-1,6
82375945178,-4,0,-1,-2,-4,-15,-5,-5
82375945178,-2,1,-1,-7,3,15,3,-1
82375946849,-1,-4,-7,-3,-7,0,-10,10
82375946849,-4,1,-3,-6,-5,3,4,14
82375958869,0,-1,-3,4,-3,-16,-2,-2
82375958869,3,1,0,18,3,-9,1,9
82375967820,-2,1,-1,-14,-1,11,-2,-5
82375967820,-11,-2,0,4,-2,1,0,-17
82375982887,-4,-2,-4,-5,-1,10,1,9
82375982887,-6,-1,-2,1,-11,-7,0,-8
82375984276,-2,-16,2,7,0,-9,-2,4
82375984276,2,0,3,-6,2,-5,-6,-4
82376005209,2,-1,3,8,3,-1,0,-1
82376005209,6,-2,3,-3,-2,7,3,-1
82376006799,8,1,1,-1,2,-1,-5,-22
82376006799,7,-1,-3,-6,-1,2,2,6
82376019062,7,-3,-2,4,-5,-15,-3,-6
82376019062,3,0,1,6,0,3,2,4
82376027846,-5,0,-2,-15,-1,-3,-8,-5
82376027846,-7,0,-2,-9,4,7,0,-12
82376042719,-11,4,0,1,1,-5,0,-3
82376042719,-8,-1,0,1,0,1,1,-11
82376044317,-7,1,-2,5,-2,0,-2,21
82376044317,-10,-2,1,5,-2,-7,-4,-13
82376065233,-3,-3,-5,-17,-2,-1,-6,1
82376065233,2,-2,-3,0,1,-1,4,8
82376066809,2,1,1,0,3,1,4,3
82376066809,1,-1,-2,12,-3,-3,-3,2
82376078892,-2,-2,0,0,-1,6,1,4
82376078892,1,0,1,-4,-2,-8,-5,-3
82376087847,2,3,-1,-3,-2,-3,-1,4
82376087847,1,-3,-3,0,-1,2,0,0
82376102866,1,-2,0,-2,0,1,1,-3
82376102866,3,-2,-5,-1,1,-3,-2,-3
82376104379,0,-18,-5,-2,-9,1,0,-2
82376104379,1,0,-1,-7,-1,-1,-1,-11
82376125337,5,-1,-1,7,0,0,0,2
82376125337,1,-4,0,-5,-4,-4,-1,3
82376126802,-3,6,2,3,-6,3,-1,-11
82376126802,2,-2,-1,-2,-2,-2,0,11
82376139049,0,-1,1,5,0,-3,-2,0
82376139049,-6,1,1,-4,1,-1,-1,-10
82376147954,1,2,1,0,3,-2,-1,0
82376147954,11,-3,0,2,-3,-2,-1,2
82376162964,-1,10,2,16,0,0,0,1
82376162964,-9,0,-2,-14,-3,-2,-2,-18
82376164353,3,3,0,4,1,0,-1,2
82376164353,-10,-3,-5,-26,-4,-1,-1,-10
82376192976,0,-7,-3,-3,3,1,1,2
82376192976,-2,4,-3,-17,-5,-4,-3,-5
82376194378,-5,20,1,4,-1,0,-2,-6
82376194378,-6,-1,-2,11,3,1,-1,-3
82376199033,-4,-1,3,3,-2,-2,-2,-14
82376199033,-12,-4,2,-6,1,-2,-2,10
82376207855,-3,1,2,-2,2,-1,-2,8
82376207855,0,1,3,1,2,-1,-1,13
82376222767,-2,-3,-1,-3,1,-1,-2,12
82376222767,9,0,-1,4,1,0,0,13
82376224284,6,-6,-5,-2,1,-2,0,5
82376224284,-12,-2,-4,4,-4,0,-1,-3
82376245371,3,-3,-4,-6,-3,-2,-1,3
82376245371,3,-1,-6,0,-4,0,2,2
82376246837,-11,-10,-9,-3,-5,-2,0,-15
82376246837,-6,2,0,1,-1,0,0,-35
82376259007,2,-17,-1,-7,-5,-2,-1,-4
82376259007,-1,1,2,5,-1,-1,-2,-17
82376267906,-1,-1,2,-6,-1,0,-2,-7
82376267906,0,-5,-1,0,-2,-1,-1,-5
82376282886,3,5,-3,-8,-3,-2,-3,1
82376282886,-23,-3,-3,7,-1,-2,0,3
82376284305,1,-5,-1,5,0,0,-2,8
82376284305,3,2,-1,-7,-1,0,-2,8
82376305419,-3,1,-2,4,-1,0,-2,-1
82376305419,6,-4,-1,3,-3,-2,-2,8
82376306949,1,1,-3,-14,-4,0,-2,1
82376306949,-1,2,0,5,-1,-3,-2,3
82376318902,-5,-1,-3,0,-3,-2,-3,0
82376318902,2,-3,-3,-6,-1,-1,-2,-3
82376327927,0,-1,1,1,0,1,-1,3
82376327927,6,-1,0,-2,-1,-2,0,2
82376342669,-1,0,0,-3,-1,1,1,-4
82376342669,1,0,-1,6,-2,0,0,0
82376344313,1,-1,-1,2,0,-1,-1,-1
82376344313,0,9,-2,-16,-3,1,-2,2
82376365283,-1,4,-1,2,-2,-2,-2,-4
82376365283,1,0,0,2,-2,-2,0,-1
82376366771,-4,-7,-5,-4,-2,-1,-1,0
82376366771,8,4,1,13,2,0,0,-1
82376378846,-2,-1,-2,-10,-3,1,1,-2
82376378846,3,0,0,-1,-3,-1,-1,-1
82376387913,-5,-3,-3,-12,-1,-2,-1,-4
82376387913,-4,-4,-1,14,-2,-1,-2,0
82376402676,-3,-2,-1,2,0,0,-2,-2
82376402676,2,2,-1,0,-2,-2,-1,-1
82376404279,1,0,-2,3,1,0,-2,0
82376404279,-5,-5,-3,-16,-5,-1,-1,0
82376425249,0,2,1,0,-3,-2,-1,0
82376425249,3,-1,-1,-2,-1,-1,-2,-1
82376426813,0,0,0,5,1,1,1,-1
82376426813,-1,-6,-2,-16,1,-1,1,-1
82376447048,-1,4,1,18,-3,0,-2,-2
82376447048,-1,-1,1,11,4,-1,-2,-2
82376447794,-1,-1,0,10,0,-1,-1,-2
82376447794,-4,-1,-1,-33,-11,0,-1,-1
82376462017,17,5,4,-41,1,1,1,-1
82376462017,-3,-4,-3,-9,-2,1,-1,1
82376462824,-17,7,-3,15,-2,-4,-5,-3
82376462824,-2,-4,8,86,14,2,0,-1
82376484678,8,3,-10,-63,-15,-6,-3,-1
82376484678,-2,1,1,-16,-1,0,-1,0
82376485396,9,21,3,-4,2,1,1,-1
82376485396,-1,-9,-4,9,-2,-2,-2,-1
82376507075,-8,-2,5,62,12,-1,0,-2
82376507075,-12,-9,-4,7,-2,-1,-1,-5
82376507799,3,4,-2,-11,-2,-2,0,0
82376507799,-2,2,-2,3,2,-2,-2,0
82376522015,-4,-5,-3,4,1,0,-1,-3
82376522015,-1,-3,-3,-6,-3,-3,-2,-2
82376522820,-3,-12,-2,-10,-7,-1,-1,1
82376522820,-1,0,-3,-15,5,1,-1,-1
82376544763,-8,-9,-4,-16,-10,-3,-2,-1
82376544763,5,20,3,14,4,0,-1,1
82376545293,-1,-10,0,-4,-1,-1,-1,0
82376545293,2,1,1,-4,0,-1,-1,0
82376566989,-3,5,1,25,0,1,0,-1
82376566989,3,1,-4,-31,-6,-2,-1,-2
82376567772,2,-7,-4,-43,-5,-3,-2,-1
82376567772,-4,-4,-3,-14,-1,-1,0,-1
82376582041,-2,-1,2,8,6,0,-1,0
82376582041,-10,-10,-1,17,0,-2,-2,-1
82376582776,0,-5,0,8,-2,-1,0,-1
82376582776,-1,-3,-2,-14,-3,-2,0,-3
82376604569,-7,-3,-1,-8,1,1,0,-1
82376604569,12,-4,-2,5,-2,-1,0,-1
82376605277,-2,18,2,10,2,1,0,0
82376605277,4,-7,-3,-1,-4,-2,-3,0
82376627118,3,-2,-1,2,-1,-2,0,-1
82376627118,-1,-2,-1,6,-1,0,0,-4
82376627825,1,2,0,9,1,-1,0,5
82376627825,0,2,-3,-8,-6,-2,-2,-2
82376642181,-5,-5,-1,-4,-1,-1,-1,-1
82376642181,0,-4,0,-5,1,-1,-1,2
82376642845,-1,-8,-1,2,0,-1,0,-1
82376642845,0,-1,-3,9,0,0,1,2
82376664496,-8,-6,-2,-21,-9,-2,-1,1
82376664496,18,8,2,2,0,1,0,3
82376665310,2,-7,0,4,0,-1,-1,-1
82376665310,-4,8,1,3,-3,-1,-2,-3
82376687048,-33,-12,0,5,1,-1,-3,-2
82376687048,-27,-10,-4,0,-1,-2,-7,-6
82376687773,16,7,3,-1,-1,-3,-4,-7
82376687773,-6,1,1,-8,0,-1,-4,-8
82376702014,9,-15,0,0,2,0,-1,-2
82376702014,-20,-5,-2,-4,0,-2,-1,-3
82376702841,7,-4,4,3,4,-1,2,10
82376702841,13,3,0,-7,-1,-2,0,4
82376724709,7,9,1,2,3,-1,0,4
82376724709,1,-5,0,2,2,-1,0,-2
82376725269,-3,-6,-2,-1,-1,-2,-2,-4
82376725269,-1,-2,-2,-2,1,-2,-1,1
82376747038,1,1,-3,3,1,0,-1,-9
82376747038,8,0,-3,-2,0,0,1,2
82376747728,-8,-1,-5,-2,-1,0,0,-3
82376747728,-5,-4,-2,-3,-2,-2,-1,-2
82376761953,-1,0,-3,-1,-1,-3,-1,-1
82376761953,2,2,-1,-1,-2,1,0,-2
82376762706,-5,-4,-2,-2,-2,-1,-2,1
82376762706,-4,-4,-1,1,-1,-2,-1,-2
82376784622,5,5,-3,-1,-2,-1,-2,1
82376784622,4,-1,0,1,0,-2,0,3
82376785463,-4,8,0,0,-3,0,-2,-5
82376785463,-1,-4,-1,-3,-4,-1,-1,-1
82376806978,2,4,0,0,0,0,0,1
82376806978,6,-2,2,0,0,-2,1,2
82376807789,-24,-1,0,2,-1,-1,0,0
82376807789,-2,3,-2,0,-1,0,-1,-3
82376821948,3,2,0,0,0,-3,0,-1
82376821948,3,-2,-2,-1,-1,-2,-2,-6
82376822714,-3,-10,-2,-1,-1,-1,0,-5
82376822714,9,4,-1,-2,-1,-2,0,0
82376844623,-4,-2,-3,-2,-1,-1,-3,-3
82376844623,-2,1,1,0,0,0,0,0
82376845333,6,-5,-4,-1,-1,0,-2,1
82376845333,-6,-5,-2,-3,-2,1,0,-1
82376866978,2,3,-1,1,-2,0,0,0
82376866978,-5,-23,-3,-1,-1,-1,-1,0
82376867776,4,5,-2,-1,-2,-2,-1,2
82376867776,-7,-12,-2,-2,-1,1,0,1
82376881992,2,0,0,0,0,-1,-3,0
82376881992,-2,7,-2,-1,-3,-2,-1,-1
82376882748,-1,-2,-2,-1,0,-2,0,-2
82376882748,10,-4,-4,0,-1,-1,-2,-2
82376904520,1,6,-1,-1,0,-1,-1,-6
82376904520,-1,2,-1,0,-3,-1,-1,2
82376905399,-1,-4,-1,-2,-2,-1,0,-2
82376905399,0,4,0,-3,-3,-1,-2,-1
82376927225,-1,-4,-2,-2,-3,0,-1,-2
82376927225,1,3,-1,1,-2,-1,-1,-1
82376927821,4,-6,0,0,-2,-1,-2,-1
82376927821,-4,1,2,0,1,0,-1,-3
82376942119,-1,-1,-1,-1,-1,0,0,2
82376942119,-3,5,-2,-2,-1,-1,0,-1
82376942943,-1,-22,-1,-2,-3,-1,-2,-1
82376942943,-3,0,-1,-2,0,1,-1,-1
82376964596,-2,-1,-1,-2,0,0,-1,0
82376964596,1,2,-1,-2,-2,-2,-1,-1
82376965343,-2,2,-1,-3,-3,-1,-1,-4
82376965343,17,8,3,0,-1,0,0,2
82376987893,-1,-5,-2,-1,-3,-1,-1,0
82376987893,-3,-2,-1,1,-1,0,-2,-1
82376988473,-2,1,-1,-1,-1,-1,0,0
82376988473,-8,-3,-1,3,0,-1,-2,-1
82377002016,9,-3,-3,-3,-2,-1,-3,0
82377002016,4,2,1,-2,-2,-1,1,0
82377002897,-1,0,-3,10,-1,-1,-1,-2
82377002897,-5,1,-3,-18,-3,0,-1,-1
82377024682,-1,-1,0,-16,1,-1,-2,-3
82377024682,-4,-3,-2,-21,-8,-1,-2,-1
82377025287,1,-3,-2,3,-1,-3,-2,0
82377025287,-2,-2,-1,10,0,0,0,-1
82377047909,-2,7,0,12,-1,-1,-1,-2
82377047909,-8,-4,-1,0,1,1,-1,-2
82377048495,-3,4,1,-3,0,-1,-1,-6
82377048495,-4,-4,0,-2,-1,-3,-2,5
82377061988,-1,-1,1,-1,0,0,-2,-1
82377061988,-3,-2,-2,4,0,-3,-2,0
82377062918,3,0,-1,-2,-1,-2,-3,-3
82377062918,-7,1,-2,3,0,-1,-1,-3
82377084710,-4,-4,-1,-4,-2,1,0,-1
82377084710,1,0,0,3,1,-1,-1,-1
82377085353,-3,-2,-2,0,0,-1,-1,0
82377085353,-1,-1,0,-5,0,-2,-1,-3
82377107033,-3,-2,0,2,-1,-1,-2,0
82377107033,0,-3,-1,4,0,-1,1,-2
82377107839,-1,0,-1,-5,1,1,-1,1
82377107839,0,1,-2,-2,0,0,-2,-2
82377122027,-3,-3,-2,-2,-3,-2,0,-2
82377122027,-1,2,-1,13,1,-1,0,-1
82377122917,-3,9,-1,-12,-3,-2,-2,-2
82377122917,-1,-2,-1,0,-1,-1,-1,0
82377144747,-1,-1,-1,2,-1,0,-1,0
82377144747,-4,-4,-3,-7,-2,-1,-2,1
82377145301,18,8,2,3,1,0,2,0
82377145301,-3,-4,-1,1,-3,-1,-2,-4
82377175380,3,-5,-2,-3,0,-2,-2,-2
82377175380,3,4,-1,0,-2,-1,-2,-2
82377176063,-5,-6,-3,3,-2,2,-1,-1
82377176063,-2,-2,-3,-3,-2,0,0,1
82377182044,-2,-4,-1,-2,-1,1,0,-3
82377182044,-2,-1,0,-1,-2,0,0,-1
82377182983,-4,-4,-1,-2,0,-1,-1,1
82377182983,3,-1,0,-3,-2,-1,-1,-2
82377204709,-6,0,0,4,0,1,-2,0
82377204709,0,-1,0,2,0,-1,-1,-1
82377205262,-3,-2,-1,-9,-1,-3,0,-1
82377205262,-1,0,-1,0,-1,-2,-1,-1
82377227675,0,0,1,0,-2,-1,0,1
82377227675,-3,-2,0,-1,0,-1,0,-2
82377228630,-2,-4,0,1,-1,0,-2,-1
82377228630,-1,-2,-1,-6,-1,-2,0,-2
82377242075,-3,0,-1,-2,0,-1,-1,-1
82377242075,2,0,-1,-3,-1,-1,-2,-1
82377242778,-3,2,0,-1,-1,-1,0,-1
82377242778,-14,-27,-7,6,-2,-2,-3,-3
82377264493,1,3,0,4,-2,-2,0,0
82377264493,-2,-1,-2,-9,0,0,-2,-1
82377265267,-1,-1,-3,-2,-1,-2,-3,-1
82377265267,-4,3,-1,-4,-1,-2,-1,-2
82377295173,-1,-3,-1,0,0,-2,0,-1
82377295173,0,-4,0,28,2,0,0,0
82377295974,-4,-3,-6,-51,-8,-3,-1,-1
82377295974,4,4,0,2,-1,-1,2,1
82377301963,1,-2,-2,-4,-1,0,-1,-1
82377301963,2,3,-1,4,-1,-1,-2,0
82377302870,-2,-2,0,18,1,0,0,-2
82377302870,3,4,0,-10,-1,0,0,1
82377324475,-2,-1,-1,-7,-3,-4,0,-1
82377324475,-1,-1,-1,-10,-2,-2,-3,-2
82377325237,-1,-1,1,9,1,-1,0,-1
82377325237,3,1,0,-1,0,-2,-2,-2
82377347977,-3,1,-1,3,-1,0,0,-2
82377347977,-2,-22,-4,-9,-2,-1,-2,-1
82377348511,-1,-2,0,7,-2,-1,-1,-3
82377348511,0,5,0,4,0,1,-1,-1
82377361371,-11,-7,-4,-2,-1,-2,-2,0
82377361371,-1,7,-1,-4,-1,0,2,-1
82377369810,-2,-1,-1,-1,0,-1,-2,-1
82377369810,-1,-2,0,-3,-1,-1,-2,-1
82377384502,-3,-2,-2,0,0,1,-2,-2
82377384502,1,1,2,-5,-2,-1,-1,0
82377385275,-1,-2,-1,7,1,0,-1,-1
82377385275,-2,3,-1,0,-3,-3,0,-4
82377407667,1,0,-1,-2,-2,-2,-2,-1
82377407667,1,2,-2,-2,0,-2,-2,-1
82377408478,0,-2,-1,1,0,-2,-1,-1
82377408478,0,-1,-2,6,1,0,-2,-1
82377421289,1,-1,-2,-4,-2,-1,-1,0
82377421289,1,0,0,-2,-1,0,-2,-2
82377429487,-2,-1,-1,-3,0,0,-3,0
82377429487,-1,-1,-1,-1,0,0,-2,-2
82377444474,2,-1,0,3,-1,-1,0,1
82377444474,-3,2,-2,-5,-2,-2,1,-2
82377445229,-1,-1,0,2,-2,-1,-1,-2
82377445229,0,-1,0,0,0,-1,0,-1
82377467798,1,0,-1,-2,-2,-1,0,0
82377467798,0,-2,-2,-1,-3,-2,0,-1
82377468499,2,-2,-1,0,-1,-1,-1,-2
82377468499,0,-2,-1,-2,-1,0,-1,-2
82377481451,1,0,-1,-2,1,-2,-3,-2
82377481451,0,-1,0,0,-1,-2,-2,0
82377489577,-3,-1,-1,2,-1,0,-1,1
82377489577,-1,0,-1,-1,-3,0,0,-1
82377504479,2,0,-1,-1,0,-1,0,-2
82377504479,-4,-1,-1,-1,-1,-1,-3,-1
82377505266,0,0,-2,-1,-1,0,-1,1
82377505266,-1,-1,0,-1,-1,-1,0,-2
82377527729,1,-1,-1,-2,0,-2,1,4
82377527729,-2,0,0,-2,0,-3,-1,-1
82377528542,-2,0,-1,-2,-1,-2,0,-2
82377528542,-2,-1,-1,-1,-2,0,-2,1
82377541348,-4,-1,-1,1,-1,-1,-1,-3
82377541348,0,-1,-1,-2,-1,-1,-2,-2
82377549509,-1,-1,-1,0,-2,-1,-2,0
82377549509,0,-1,1,0,0,-2,-1,-2
82377564523,1,-1,-1,-1,-2,-3,-4,-3
82377564523,-1,0,-2,1,-2,-1,0,0
82377565343,-1,-1,-1,0,0,0,1,-3
82377565343,0,-2,-1,-1,-1,-2,-2,0
82377587781,-1,-2,-1,-1,-2,0,-1,-1
82377587781,0,0,-2,0,-1,-1,0,-1
82377588594,1,-2,-1,-2,0,-1,-1,0
82377588594,-1,-2,-2,0,0,-1,0,0
82377601366,0,-1,0,-3,-1,-1,0,-1
82377601366,-2,-1,-3,-2,-2,-1,-1,-1
82377609597,-2,-1,-1,1,-2,-1,-1,0
82377609597,1,0,-1,-2,0,-1,-3,-1
82377624515,0,0,-1,-1,-2,0,-2,-3
82377624515,-3,-1,-3,-2,-2,-1,0,-1
82377625368,-1,-1,-2,-3,-2,-2,-1,1
82377625368,-1,-2,-2,0,-2,0,-1,-1
82377647718,-1,-1,1,-1,0,-1,-1,-1
82377647718,-2,0,-1,-2,-1,-1,-3,-1
82377648488,-2,-3,-1,-2,-1,-1,-2,-1
82377648488,-1,0,-1,-1,-1,-2,-2,0
82377661539,-1,-1,-2,0,-1,-2,1,0
82377661539,0,0,1,-2,-1,0,0,0
82377669708,-1,0,0,0,-2,-1,-1,-1
82377669708,-1,-1,0,-2,-1,-1,-1,-1
82377684560,-1,-1,-1,-3,-2,-2,-2,-1
82377684560,0,-2,-1,-1,0,-2,0,-3
82377685507,-1,0,0,-1,-1,-2,0,-2
82377685507,-3,-2,-3,-2,-2,0,0,-1
82377707704,0,-2,-1,0,-1,0,-1,0
82377707704,0,-1,2,0,0,-2,-1,1
82377708478,-1,-2,1,-3,-3,-1,0,-2
82377708478,0,-2,-3,1,1,-1,-1,0
82377730195,-2,-4,-10,-1,-4,-1,0,-2
82377730195,-1,-1,-1,1,0,0,-1,-1
82377730906,-1,-1,-2,-1,1,-1,1,-1
82377730906,0,-1,0,-2,0,-1,-2,-2
82377744699,-1,1,2,2,-1,-1,-3,-1
82377744699,-1,-1,-3,5,-1,-1,0,-2
82377745281,-1,0,0,2,-1,-2,-1,0
82377745281,-1,0,-1,-3,-2,0,0,0
82377767648,-1,-1,0,-1,0,-1,-3,-1
82377767648,-3,-3,-1,-8,-3,-1,-1,-1
82377768403,2,2,0,2,-1,-2,-2,0
82377768403,-7,-5,-5,3,-2,-2,-1,-1
82377790266,7,4,1,-9,0,1,-1,-1
82377790266,-2,-1,-1,4,-2,0,0,-2
82377791097,-1,-3,-2,-2,0,0,-1,-1
82377791097,-3,-3,-1,5,-1,-3,-2,-1
82377804461,-4,-3,-1,0,-1,-3,-1,-1
82377804461,1,1,-1,-1,-2,-2,0,-3
82377805382,-2,-2,-3,-2,-1,0,-3,-1
82377805382,1,11,1,-1,-1,-1,0,-1
82377827908,-4,-1,-1,2,-1,-1,-1,0
82377827908,1,-2,-2,-4,0,-1,0,-1
82377828461,-3,-4,-1,-3,-3,-1,-1,-2
82377828461,0,-1,3,8,-2,1,-1,-1
82377850352,-2,-1,1,0,1,-1,-1,-2
82377850352,-2,-3,-5,-13,-5,-1,-2,-1
82377851092,0,3,-3,-6,-1,-1,-2,-2
82377851092,1,-3,1,-6,1,-1,0,-2
82377864468,-1,-2,0,-2,-2,0,0,-2
82377864468,0,-4,3,6,0,0,-1,-1
82377865314,-1,-2,1,9,1,-1,-1,-1
82377865314,1,-2,-2,-12,-3,-1,0,-1
82377895145,-3,-3,-4,-3,-5,-1,0,-1
82377895145,-2,1,-1,-2,0,-1,-1,0
82377895970,0,-2,-1,-3,-2,-1,-2,-1
82377895970,-2,-3,0,3,1,-1,0,-1
82377910170,0,0,-1,2,-1,-1,1,-1
82377910170,0,-1,0,-7,-1,0,-1,-2
82377910883,0,-1,-1,-2,1,-2,-1,-1
82377910883,0,-3,-3,-2,-1,-1,-2,0
82377924514,-3,-1,-2,-1,-1,-1,-1,-1
82377924514,-1,0,-1,-1,0,-2,-1,0
82377925234,-2,-2,-1,-1,-1,1,-1,-1
82377925234,-1,-1,-2,-7,-2,-1,0,-2
82377947682,0,-1,-2,-1,-1,-3,-2,-2
82377947682,-2,-2,-2,3,0,-1,-2,-1
82377948686,-1,1,-1,2,1,0,0,-1
82377948686,0,-2,-1,-8,-2,-1,-2,-1
82377970189,0,-1,-1,1,2,1,-1,-2
82377970189,-1,-1,-1,1,-1,-1,-2,1
82377971061,-1,-2,-1,-4,-4,-1,-1,-2
82377971061,-1,-1,0,3,-1,-1,-1,-2
82377984765,-1,-3,-1,6,0,0,-1,-1
82377984765,-1,0,0,-1,0,-1,-2,-1
82377985320,-1,-2,-4,-1,-2,0,-1,1
82377985320,0,-1,-1,2,-2,2,-1,0
82378007639,0,0,-2,-11,-4,-1,-2,-1
82378007639,0,-2,0,-1,0,-1,1,-1
82378008390,-2,0,0,2,0,-3,-3,-2
82378008390,-2,-1,0,1,0,-1,-1,-3
82378030162,-2,0,0,0,2,-1,0,1
82378030162,0,-1,-1,-7,-2,-1,-1,0
82378030895,-1,-2,-2,-4,-1,-1,-1,-1
82378030895,-1,-1,-1,-1,-1,-2,-2,-2
82378044453,-1,-1,0,4,-2,-2,0,-1
82378044453,0,0,-1,-12,-1,-1,0,-2
82378045282,-1,-3,-2,1,-1,-2,-1,-1
82378045282,1,-1,-1,-1,0,-1,-2,-1
82378067623,-3,-2,0,7,-1,0,-2,-1
82378067623,-1,0,1,-3,0,-3,-1,-1
82378068384,0,0,-1,-3,-2,-2,-1,-1
82378068384,-2,-2,-3,0,-2,1,-2,-1
82378089944,1,-2,-2,-6,-1,-1,-1,-1
82378089944,-3,0,-1,5,-3,-1,-2,-1
82378090706,0,0,-1,0,-3,0,-1,-1
82378090706,-1,-1,0,1,0,-2,1,0
82378104669,-1,-2,-1,-4,-1,-1,-2,0
82378104669,-1,-2,-2,3,1,-2,-2,-2
82378105312,1,-2,-2,-3,0,-1,1,-1
82378105312,-1,-2,-1,-2,-2,-1,-1,0
82378127801,-1,-1,-1,-3,-1,-2,-1,-1
82378127801,0,-1,-2,4,-2,-2,-1,1
82378128613,-4,0,-2,1,0,-1,-1,0
82378128613,-2,-1,-2,-3,-1,0,-1,0
82378150188,-1,-1,0,-3,-1,-2,-2,0
82378150188,-1,-1,-2,-2,-1,0,0,0
82378150906,1,0,-1,-1,0,0,-2,0
82378150906,-1,-1,-1,-2,-1,0,0,-1
