timestamp,emg1,emg2,emg3,emg4,emg5,emg6,emg7,emg8
82031982782,9,-1,1,2,-1,2,0,-2
82031982782,4,-1,0,3,-1,-1,-1,-3
82031984270,-4,-1,0,-5,-4,0,0,11
82031984270,-2,0,-2,-1,-2,-2,-1,0
82031996996,3,2,2,-1,-1,0,0,-3
82031996996,-2,-7,-3,-1,-2,-1,0,0
82032003875,-5,-2,-4,1,-2,-1,-3,18
82032003875,-5,8,2,0,-2,0,1,-15
82032020169,-1,-16,0,-2,-1,1,2,2
82032020169,8,0,-4,-3,-1,-2,-2,2
82032021826,-2,9,2,-1,3,-2,0,-4
82032021826,3,2,4,6,1,-1,-1,2
82032042695,0,3,-5,-7,-2,-3,-3,-9
82032042695,-3,12,-2,-1,1,-2,-1,-1
82032044392,1,2,-2,1,-1,0,-2,-10
82032044392,1,-2,-1,-4,-3,-2,-1,2
82032057011,-26,-3,-4,-1,-1,-3,-2,-9
82032057011,-3,-1,-4,-3,-4,-1,-2,2
82032063788,3,4,2,-5,-2,-2,-1,-6
82032063788,-1,3,-2,0,0,-1,-1,4
82032087653,11,3,0,-1,-2,-2,0,0
82032087653,4,-9,-2,-1,-2,-1,-2,-1
82032089222,1,4,-1,-2,-1,-1,-2,-18
82032089222,-3,-4,1,-1,0,-1,-2,4
82032102708,6,10,1,-1,-3,-2,-2,-3
82032102708,-5,5,2,-3,-1,-1,0,10
82032104331,6,1,2,3,-1,-2,0,3
82032104331,0,2,0,1,1,-1,-1,0
82032117043,-2,8,-3,-3,0,1,0,-2
82032117043,-4,-2,0,2,-2,-2,-1,-4
82032123856,4,-5,-2,-2,-2,-2,0,2
82032123856,-3,-1,-4,-5,0,0,0,-3
82032140213,11,1,2,1,-1,1,-1,6
82032140213,-9,-3,0,-1,-1,1,-2,3
82032141810,0,-5,0,-2,1,1,1,3
82032141810,1,-5,-4,0,-2,-1,0,1
82032162703,-11,-7,1,4,1,-1,-2,-7
82032162703,6,7,0,-6,-1,-1,0,0
82032165233,-2,14,0,4,0,-1,0,-3
82032165233,0,-6,2,-1,-2,0,0,3
82032176950,21,0,-4,-1,0,-1,0,6
82032176950,-7,1,1,4,0,0,1,5
82032183816,-9,-18,2,1,1,-2,-2,1
82032183816,0,0,-2,-3,-1,-1,-1,0
82032200145,-4,-9,-1,1,0,-3,-2,1
82032200145,2,-2,-3,-3,0,-1,-3,-4
82032201713,3,-4,-2,1,-1,-1,-1,-1
82032201713,-4,-2,-3,0,0,0,-1,0
82032222698,-4,-7,-2,-3,-2,-3,-2,-6
82032222698,-3,0,-3,-3,-1,-1,-3,-5
82032224315,-6,3,-4,-4,-2,0,-3,-2
82032224315,-7,-2,0,-3,-2,-1,0,1
82032237216,-2,6,-3,-2,-1,0,-1,-2
82032237216,1,-1,5,2,0,-2,-1,0
82032243844,1,-2,-4,-2,-1,0,2,2
82032243844,3,-2,1,2,-2,-2,-3,-2
82032260191,1,1,-4,-3,-3,-2,-1,-2
82032260191,-6,-9,1,0,-2,1,0,-5
82032261790,4,-9,-4,-3,-1,-3,-2,1
82032261790,-4,3,3,3,0,-1,-3,-4
82032282733,-25,-25,-5,-5,-3,0,-2,-1
82032282733,10,6,0,1,2,-3,-1,-4
82032284326,-3,-2,-1,-2,0,-2,0,-2
82032284326,1,-15,-5,0,0,-3,-1,2
82032297033,-3,17,4,-2,3,1,2,1
82032297033,-3,-5,-5,0,-1,-1,-1,-2
82032303833,-12,-4,-3,-3,-2,-2,-2,1
82032303833,4,3,1,-3,1,-1,-1,-2
82032320188,8,20,2,2,0,-2,-1,-1
82032320188,-1,-11,-3,-3,-3,-1,-2,-2
82032321797,3,5,1,-1,-1,0,0,-3
82032321797,4,1,-3,-4,-3,-2,0,0
82032342694,5,4,0,1,-3,-4,-1,-5
82032342694,-4,0,-3,-1,0,0,-3,0
82032344286,6,-3,0,4,-1,-1,-1,4
82032344286,2,2,-1,-4,-2,-1,-1,-2
82032357055,3,-9,-3,-7,-1,0,-2,0
82032357055,-1,-2,-1,4,-1,-2,-1,-3
82032363820,12,3,-3,-5,-4,0,0,15
82032363820,-8,19,0,1,-1,0,1,-12
82032380171,2,-2,0,2,-1,-3,-1,4
82032380171,-4,2,4,3,1,-1,-1,-2
82032381822,12,0,-3,1,-1,-2,-3,-13
82032381822,2,5,0,-6,-3,-2,0,17
82032402730,-5,-8,-2,0,-1,0,-1,-4
82032402730,-4,-2,-3,-2,-3,-2,-1,1
82032404328,-1,-2,1,-1,-2,-2,0,-7
82032404328,1,24,-1,-4,-2,-2,-2,-4
82032416355,9,-14,-2,0,-1,-1,0,-1
82032416355,19,13,1,1,1,1,2,8
82032425313,-6,-4,-2,-2,-2,0,-2,-1
82032425313,-5,-6,0,-1,-2,0,-2,-4
82032440152,-10,-18,-4,4,-2,-2,-1,0
82032440152,-11,2,-5,-3,-2,-3,-1,-14
82032441754,-2,8,3,-3,-1,-2,-1,-4
82032441754,-4,-12,-1,-1,-1,-1,-1,-2
82032462774,5,6,1,-2,1,1,0,-1
82032462774,-3,-2,-1,-2,-1,-1,-1,0
82032464341,-13,-10,-2,1,1,0,-1,-4
82032464341,-6,-7,-3,3,1,-3,-2,-4
82032476330,1,4,-2,-5,-3,-2,-4,1
82032476330,-6,0,0,2,-2,0,-1,-5
82032485341,-5,1,-3,-3,-1,0,-2,1
82032485341,1,-3,2,-4,-2,2,0,-1
82032500166,-1,2,-3,-1,1,-2,-2,-7
82032500166,4,-10,1,-5,0,0,0,2
82032501811,-1,-1,-3,-1,-1,-2,-2,-3
82032501811,-4,15,0,5,-1,0,-1,-2
82032522732,11,13,4,0,-1,0,1,10
82032522732,-13,3,-2,-1,-1,-1,-2,-6
82032524310,-7,-16,-3,-5,0,-2,0,1
82032524310,-19,2,2,0,1,-1,-1,-2
82032536290,-11,-2,-1,2,-3,-1,-2,-15
82032536290,1,-3,-3,1,0,-2,-1,-3
82032545343,3,6,1,-1,-1,1,1,2
82032545343,8,3,0,0,0,-1,-2,-2
82032560196,-2,-12,-3,-2,-3,0,-2,3
82032560196,-2,-7,-1,1,-1,0,-1,3
82032561779,-4,-1,-1,-4,-3,-4,-2,-7
82032561779,4,-8,-1,1,-2,-2,-1,2
82032582739,-1,0,-4,-2,0,1,-1,-1
82032582739,5,-2,-4,-8,-3,0,-2,-1
82032584335,-1,4,1,4,-1,1,0,2
82032584335,1,-10,-2,0,0,0,0,-1
82032596311,-2,-26,-4,-2,-1,-3,-1,-1
82032596311,-5,3,-1,2,0,1,-1,-3
82032605339,1,0,-3,-3,0,0,-1,-5
82032605339,2,-10,-3,-2,-4,-1,-1,8
82032620159,-29,2,-6,-4,-1,-1,-1,2
82032620159,-9,0,-1,-6,-3,-3,-3,-4
82032621801,-11,3,-5,-2,-1,-1,-1,9
82032621801,27,-15,0,2,0,2,2,-12
82032642660,5,-4,4,0,-1,-1,-1,2
82032642660,1,-4,-5,0,-2,-1,0,1
82032644285,-22,-7,0,-2,-2,-1,-2,3
82032644285,-5,1,1,-3,-1,0,-3,0
82032656347,-2,6,-1,0,-1,-2,-2,-3
82032656347,5,-23,-1,4,0,-2,1,-3
82032665336,9,-1,0,-8,-1,-2,-1,-2
82032665336,-4,2,-2,0,1,-1,-1,1
82032680206,0,-5,-1,-1,-1,-1,-2,-6
82032680206,-3,8,-3,-4,-2,-1,-1,2
82032681808,10,1,-1,7,1,-2,-2,-2
82032681808,0,-5,-3,-4,-1,-2,-1,-1
82032702729,3,20,6,5,2,1,0,2
82032702729,3,-2,-2,-2,-1,-1,-1,1
82032704286,5,-3,0,4,-1,-1,0,-4
82032704286,1,-2,-6,-5,-1,0,-1,-12
82032716335,13,0,-1,-2,0,0,2,25
82032716335,-19,-5,0,-5,-2,0,0,-2
82032725281,1,-14,1,2,1,1,-3,-5
82032725281,4,-6,-3,0,-3,-2,-2,-1
82032740148,-1,-10,-4,-2,-2,1,-1,-22
82032740148,-8,-30,-3,1,-1,-2,-3,0
82032741787,2,8,0,-1,-3,-1,-1,6
82032741787,-3,0,-3,2,0,-4,-3,1
82032762738,0,0,-5,-1,0,-1,-1,-1
82032762738,8,13,1,0,0,-2,0,0
82032764287,2,2,-2,1,0,-1,-2,-9
82032764287,6,-3,-4,-10,-3,-1,0,5
82032776343,-4,11,2,1,-1,0,-1,-1
82032776343,19,10,3,1,-1,0,-1,-2
82032785309,0,-2,-4,-3,-2,-2,-1,1
82032785309,-11,-1,0,-4,-2,-1,-1,-1
82032800151,-2,-2,-2,-2,-2,-2,0,-2
82032800151,5,-1,-3,-1,1,-1,-1,1
82032801796,-7,-13,3,3,1,-1,0,0
82032801796,-3,1,0,3,1,0,-2,-5
82032822715,3,-1,-4,-8,-2,-1,-2,1
82032822715,0,1,1,7,-1,0,-2,-1
82032824312,0,1,-3,-4,-2,-1,-1,-1
82032824312,-10,5,-2,-1,-1,-1,0,0
82032845161,0,-4,0,3,-1,-2,-2,-2
82032845161,-8,4,0,1,2,-2,-2,-2
82032846746,-1,8,-4,-5,-3,-3,-1,-1
82032846746,-4,0,-1,4,-2,-2,-2,0
82032860178,-3,-4,0,-5,0,0,-1,-2
82032860178,0,4,-3,-4,-2,-1,0,-1
82032861785,-12,-24,-2,2,-2,-3,-3,-4
82032861785,-10,-5,-3,-1,0,-2,-2,0
82032882790,6,10,3,3,0,-1,-1,-3
82032882790,-15,1,-2,-16,-3,-1,-4,-2
82032884328,-1,4,-4,-1,-1,0,1,-1
82032884328,-3,-4,-1,7,0,-2,1,1
82032905153,0,-4,-2,-1,-1,-1,0,-1
82032905153,13,-20,1,11,4,-2,1,0
82032906796,3,10,1,-9,-8,-1,1,0
82032906796,0,0,-1,7,0,-1,-1,-1
82032920180,-1,-3,-7,-13,-1,-1,0,-3
82032920180,4,1,-3,-27,-10,-2,-2,1
82032921756,1,4,0,30,5,0,0,-2
82032921756,2,-1,6,34,0,0,-1,0
82032942749,-3,-2,-4,-38,-4,-2,-1,-1
82032942749,-2,3,-4,14,-1,-1,0,-1
82032944326,0,-1,-7,-23,-2,-3,-3,-1
82032944326,-2,7,1,0,-2,-1,-1,-1
82032965159,-5,-25,-2,15,6,-1,0,-1
82032965159,-2,1,-3,6,-13,-4,-5,-2
82032966763,0,3,5,1,4,0,-1,0
82032966763,4,-1,-1,-11,2,0,0,0
82032979528,0,6,3,30,3,-2,-1,-1
82032979528,-1,2,0,7,1,-2,0,0
82032986331,-4,-7,-7,-8,-4,-4,-3,-3
82032986331,1,0,13,30,4,1,-1,1
82033003323,-4,2,-10,-30,-5,-2,-3,-1
82033003323,-2,4,8,26,7,2,1,0
82033005040,1,3,1,32,10,-1,-3,-3
82033005040,-1,-4,-6,-34,-11,-1,0,1
82033025994,-1,1,-1,23,-3,-4,-2,-2
82033025994,1,-2,-5,-45,-12,-5,-2,0
82033029514,-1,1,7,17,6,13,5,0
82033029514,-2,-2,-7,-43,-5,-13,-4,-5
82033039476,-2,1,2,19,2,-5,-6,-2
82033039476,-2,-1,-3,-25,-2,-1,-2,-1
82033046341,3,15,3,22,-13,-1,2,-1
82033046341,-4,-2,-8,-24,-2,-2,-1,-2
82033062721,-1,4,-2,-4,-5,1,1,2
82033062721,0,-1,5,16,13,10,2,2
82033064286,-7,-22,-3,-24,0,-5,-4,-3
82033064286,-24,-1,0,17,0,-4,-7,-7
82033085162,-4,-1,0,-21,-10,-14,-7,-4
82033085162,-3,3,-1,10,2,2,3,0
82033086786,-5,2,2,-7,9,0,-7,-14
82033086786,6,-3,-4,-8,-2,10,11,9
82033098812,5,-5,0,-1,4,0,6,9
82033098812,-3,-2,-2,2,-12,-22,-15,-6
82033107867,-2,2,-1,13,-1,-1,3,2
82033107867,13,0,-3,9,20,6,0,5
82033122642,1,20,8,-20,-7,-1,5,4
82033122642,1,-4,-7,7,2,8,-4,1
82033124252,0,-1,-6,-7,1,-15,-2,-2
82033124252,6,-2,-6,-48,-25,0,-9,-15
82033145185,-2,1,-5,22,-6,9,-2,14
82033145185,-5,-1,-1,-19,-10,4,8,-8
82033146814,-2,-2,-1,4,23,-4,5,-1
82033146814,3,11,6,14,15,4,-7,14
82033158852,8,-12,-3,-21,-9,-26,-8,-54
82033158852,4,-1,5,14,5,8,6,35
82033167804,8,0,-10,-69,-21,32,1,27
82033167804,-8,-2,-3,16,-5,-32,7,-25
82033182668,-2,-2,0,-1,3,13,6,5
82033182668,-11,-10,-9,11,-4,-9,-12,-17
82033184288,-1,-15,1,5,-6,-44,8,2
82033184288,-5,-3,0,28,-1,26,-16,0
82033205222,-5,-2,0,-4,7,-12,3,18
82033205222,3,-4,-7,-27,-2,88,4,-23
82033206801,-11,6,-1,-9,0,-94,-25,51
82033206801,21,-4,1,9,-30,-27,12,-10
82033218881,10,0,4,34,33,50,11,54
82033218881,4,11,2,17,16,44,38,8
82033227833,2,-1,-4,-12,-24,-35,-47,-52
82033227833,-9,-4,-4,-53,-16,-56,-32,9
82033242727,3,3,0,7,3,-44,-10,3
82033242727,1,-1,4,6,29,51,24,-5
82033244249,-1,4,5,26,10,83,28,-55
82033244249,-1,-5,3,30,-6,14,9,37
82033265143,-5,-6,-12,-34,-23,-25,-14,-19
82033265143,-8,0,1,27,-34,-74,-18,-18
82033266773,9,2,-1,-30,8,-10,-3,8
82033266773,-3,-21,-5,12,21,84,24,-26
82033278804,-11,-1,-4,3,1,-16,-11,-26
82033278804,6,1,0,18,-1,-32,-7,14
82033287854,0,5,2,-2,-39,-13,7,20
82033287854,-6,-12,-3,-23,4,-37,-17,-8
82033302740,-6,-2,9,21,21,29,-19,-3
82033302740,-18,-7,-11,-6,-1,5,13,-65
82033304313,4,-7,-5,-14,-8,48,49,79
82033304313,-4,7,0,-10,0,-32,-43,3
82033325163,-7,-2,1,26,11,-9,0,-26
82033325163,-13,-3,-4,-39,-40,-31,-42,-4
82033326780,-6,-4,-2,20,16,26,29,-26
82033326780,1,8,7,17,30,27,20,-4
82033338825,4,1,0,0,-18,-13,-3,18
82033338825,-3,7,-5,-52,2,-7,-14,-12
82033347788,2,-1,-4,-11,-13,3,17,10
82033347788,1,6,7,3,6,17,-10,-7
82033364126,-7,-8,-11,-58,10,-5,-2,-34
82033364126,4,2,0,-70,-6,9,4,35
82033365739,0,-4,2,44,-19,-52,-28,-5
82033365739,3,1,-5,-5,-7,-1,22,-9
82033385192,2,4,-8,-24,-31,14,-7,9
82033385192,-1,-3,2,26,12,-11,8,7
82033386786,-1,2,-4,-15,4,11,-20,-4
82033386786,-2,2,0,-7,0,-2,11,3
82033398872,4,2,8,37,15,33,17,24
82033398872,-1,4,-1,1,-1,-17,-15,-1
82033407768,-7,0,1,-12,7,-12,-16,-76
82033407768,-2,-1,-4,20,-1,7,25,39
82033430184,-2,-6,-3,-4,-13,5,9,-19
82033430184,6,4,5,4,2,-37,-10,20
82033431802,-4,1,0,31,26,39,-4,-18
82033431802,-7,-3,-8,-21,-32,-20,-18,-38
82033445181,-3,5,6,27,8,-3,10,37
82033445181,10,-4,-7,14,0,-2,-2,19
82033446812,4,0,-3,-41,-17,1,4,9
82033446812,-3,-3,1,1,-10,8,9,8
82033458824,-3,-5,-4,14,-7,-19,-9,9
82033458824,-1,-1,-1,-50,-14,14,3,-6
82033467809,0,-2,1,17,13,-12,-4,11
82033467809,0,1,-1,-7,1,-7,-7,-6
82033482643,-4,-1,-2,30,-14,6,8,-4
82033482643,3,-1,3,10,14,-4,2,7
82033484276,-4,-2,-1,28,3,-1,-11,-12
82033484276,-1,13,-2,6,12,-8,-3,1
82033505221,3,-2,0,8,8,4,-8,-13
82033505221,-2,0,-2,21,-4,-11,-5,-12
82033506865,3,4,5,11,21,10,5,10
82033506865,-7,-4,-1,2,-6,11,-4,-2
82033518774,-2,-1,2,-12,-7,-2,2,-8
82033518774,0,-1,5,1,7,-8,-8,-10
82033527835,0,0,5,41,-1,-7,-4,8
82033527835,2,-2,-3,-4,9,0,0,12
82033542771,-2,1,-3,-12,50,-2,-1,-3
82033542771,-6,-5,-1,-19,-57,0,-2,-16
82033544247,-1,-2,-6,-22,6,0,-6,0
82033544247,-3,-21,2,17,-5,-3,1,0
82033565168,0,0,-2,-16,1,10,1,-2
82033565168,0,2,-4,-14,18,-2,5,-4
82033566786,0,-5,-2,3,1,-4,-3,2
82033566786,1,1,-10,-69,-18,-6,2,2
82033578862,-2,-4,-2,43,-5,-8,-6,-13
82033578862,-2,-2,8,38,13,4,0,5
82033587871,-16,-1,-7,-36,-23,-3,5,6
82033587871,3,3,3,19,13,3,-2,-2
82033602039,-2,-6,-8,-12,-3,-9,-2,-3
82033602039,-5,0,-3,-28,-8,-6,-2,-5
82033608839,0,-1,1,29,2,5,-4,6
82033608839,-2,13,4,23,7,4,-2,-5
82033625195,-1,-21,-9,-30,-23,-3,2,0
82033625195,2,5,-11,31,10,-3,1,4
82033626780,3,-4,5,-2,15,6,0,-2
82033626780,-2,-1,-2,-8,-15,-11,-11,-6
82033638953,-2,3,-3,-43,-15,-13,-3,3
82033638953,3,-3,1,19,15,10,5,17
82033647791,5,3,1,-9,-2,-2,-3,0
82033647791,-1,-1,7,23,-4,5,2,0
82033661999,-5,0,-9,-30,-47,-12,-5,-8
82033661999,-4,-6,-7,-5,1,-4,-9,-7
82033668836,8,1,1,7,7,5,3,14
82033668836,7,2,4,-9,15,4,8,3
82033685198,1,3,5,-1,-2,2,5,0
82033685198,-2,3,6,23,14,3,4,-5
82033686769,-4,-20,-7,-38,-24,-12,-8,-16
82033686769,-4,-3,-10,-43,-1,5,3,4
82033698824,2,3,4,19,9,1,-3,7
82033698824,4,-1,5,-4,0,0,6,9
82033715357,-3,3,-1,-4,3,4,0,-5
82033715357,-2,-4,0,11,-13,-5,1,0
82033722018,-9,2,-6,-37,-10,-1,-8,-36
82033722018,9,-15,-5,32,24,-3,10,34
82033728879,0,2,-4,-12,-6,7,-2,-2
82033728879,-1,-1,-2,0,-21,-6,-3,-5
82033745215,0,4,10,24,-2,7,0,3
82033745215,-6,2,-1,9,9,-6,-9,-15
82033746840,0,4,0,-28,-12,-14,-1,0
82033746840,0,-4,1,-16,38,10,2,3
82033758795,2,1,7,23,-11,1,2,15
82033758795,0,1,0,-32,-16,-5,-2,-5
82033767810,-4,1,0,0,4,-2,-2,0
82033767810,3,4,-5,21,3,-2,-8,6
82033790206,-5,-2,-5,-15,2,-3,10,8
82033790206,-1,-2,-5,-18,16,10,6,1
82033791848,0,4,-4,-16,-22,-1,-4,-9
82033791848,-9,-9,-6,16,9,-3,-1,16
82033805194,7,-7,2,14,6,-6,-6,-20
82033805194,6,3,-1,-6,-15,-2,5,38
82033806810,-2,2,2,10,-5,5,2,2
82033806810,-4,-8,5,-18,-4,-7,-3,-9
82033827668,-1,-6,-4,-12,-5,-3,-5,-5
82033827668,4,3,-4,25,-12,-9,-6,-11
82033829285,9,10,8,14,11,0,-1,8
82033829285,3,-23,-17,-27,-11,0,4,13
82033842039,-1,7,-15,0,1,8,2,8
82033842039,-8,-16,-5,9,-9,-7,-7,-11
82033848843,-8,5,2,7,-4,-11,-5,-10
82033848843,24,19,6,29,-2,-3,1,5
82033865159,-42,-14,7,-14,10,2,-6,-7
82033865159,-10,-1,-2,-90,-1,4,-3,-37
82033866777,0,-6,-15,28,-2,6,0,-47
82033866777,47,14,14,-12,6,-2,3,35
82033889125,1,11,9,13,9,2,-7,-81
82033889125,47,17,12,26,-6,-2,17,85
82033890793,-10,5,-25,-27,-9,-1,-4,-17
82033890793,8,-6,5,3,5,3,-4,-44
82033901526,-10,4,-8,17,6,5,1,5
82033901526,3,-21,5,-29,5,3,-4,-32
82033911714,30,29,-1,18,5,-3,16,36
82033911714,-23,-1,19,22,-12,-8,-2,70
82033926490,52,3,-19,43,15,5,11,25
82033926490,-3,-26,14,-63,-27,-1,-9,-8
82033928132,4,16,17,-17,5,-2,-6,10
82033928132,-57,-5,-14,24,1,-4,-12,-67
82033947734,27,12,40,-1,-6,4,8,64
82033947734,-12,-2,-45,-6,-7,-4,1,2
82033949312,-11,-35,-4,14,10,-4,-15,-22
82033949312,-64,-18,-25,-27,-19,-11,-13,26
82033961275,-14,9,30,38,16,5,-3,-60
82033961275,22,15,-25,89,5,-4,-4,-25
82033970336,1,-7,-11,-102,-21,14,-4,-2
82033970336,9,-1,-12,40,5,-26,-6,-15
82033985217,-50,-13,-6,1,-8,1,4,23
82033985217,-11,-6,47,-21,-5,10,6,24
82033986788,-6,-6,11,57,11,-5,-7,-20
82033986788,15,7,-5,-28,-7,8,1,-8
82034007637,13,-10,-5,-16,-18,-23,-15,-2
82034007637,-28,0,-3,47,13,-23,-10,-21
82034009299,2,-9,-1,36,23,7,3,17
82034009299,10,6,14,1,18,28,8,-14
82034021287,-3,-3,-22,-41,-8,32,41,29
82034021287,-19,2,-4,21,-1,14,-1,-24
82034030343,-8,-3,2,-29,-8,-9,-2,22
82034030343,7,-3,0,5,-2,-15,-15,-20
82034045192,-3,-4,-4,30,-4,-36,-28,-14
82034045192,-5,7,-3,-25,-5,-5,-10,-4
82034046827,7,-1,-18,8,8,4,8,6
82034046827,12,-5,-2,-17,8,17,8,-21
82034067660,5,1,20,-27,-9,2,-1,7
82034067660,-5,0,-4,7,-5,-12,-7,-6
82034069267,-2,0,-7,4,-9,-15,-6,-1
82034069267,1,2,5,8,-4,6,2,12
82034081312,-26,-17,-11,-7,3,-4,-4,-15
82034081312,2,7,-11,-10,-4,-3,-3,0
82034090402,-3,-10,-5,-2,4,8,5,-6
82034090402,-1,2,3,-5,-8,-4,7,11
82034105169,13,1,-2,-11,-4,-5,-9,2
82034105169,2,-3,10,28,9,3,1,0
82034106768,-4,-3,-8,-9,-12,-3,1,-2
82034106768,-15,-17,-2,-11,-10,-7,-4,-16
82034129104,0,2,-17,-20,4,0,-4,7
82034129104,-12,-5,-10,11,9,8,4,-3
82034130766,-19,-6,7,-30,-17,-3,0,0
82034130766,13,10,-3,34,2,-6,-3,-4
82034141376,-5,0,-3,5,2,2,-1,-6
82034141376,1,1,-2,-7,-3,-3,0,-1
82034150303,-2,-6,9,7,3,-2,-2,1
82034150303,-7,3,1,2,1,-3,1,-8
82034165154,2,-1,-9,-2,-8,1,-1,1
82034165154,-3,3,2,-11,1,-1,-2,-2
82034166755,0,2,2,13,0,-1,-3,-3
82034166755,2,9,-7,8,-2,0,-2,-4
82034187700,2,-4,-1,-5,-2,0,-5,0
82034187700,0,-1,3,5,-5,-2,3,0
82034189276,0,2,2,-15,-9,4,0,-2
82034189276,-4,-4,-8,12,1,-12,-8,-5
82034201343,-12,-1,-3,-15,-1,-1,-1,0
82034201343,-5,-2,1,18,4,3,-1,-4
82034210316,-2,-3,1,-2,-1,-2,2,-1
82034210316,-1,2,3,-12,3,6,3,0
82034225151,-1,-2,-3,-1,3,-4,-5,0
82034225151,1,-2,-6,-6,-6,-5,-4,-2
82034226779,0,-1,1,11,3,1,4,2
82034226779,-3,-6,-2,12,-2,0,-4,-3
82034247699,5,0,-1,7,4,-1,3,-1
82034247699,2,2,1,-3,1,16,1,0
82034249287,5,4,-1,-2,-10,-27,-7,-1
82034249287,-6,-4,-4,-3,-5,-10,-7,-1
82034270284,3,2,-1,4,0,8,1,1
82034270284,-3,0,3,-11,-1,2,1,0
82034271798,2,6,4,29,5,3,0,-3
82034271798,-3,-5,-3,-36,-4,11,5,-3
82034285164,22,8,4,33,13,-1,3,2
82034285164,-6,-6,-2,5,-10,-4,-4,-4
82034286787,0,-4,0,10,5,-12,-4,-2
82034286787,9,-1,0,-10,-5,-3,1,-2
82034307709,-1,-3,-4,-16,-8,-1,-2,0
82034307709,-23,0,-1,1,3,1,3,-4
82034309329,-2,-5,-3,17,-1,3,-1,-2
82034309329,-3,-1,-2,-5,-3,-5,-5,-4
82034321313,-5,-2,0,-10,-2,0,4,-2
82034321313,6,-2,-2,11,2,-1,-1,1
82034330309,-6,-6,-6,-11,-6,0,-6,-2
82034330309,-5,-2,1,14,0,-7,-1,-2
82034352634,-2,2,-6,-13,-3,-1,-5,-3
82034352634,-3,-14,1,-10,2,-2,1,2
82034354246,5,3,2,-7,1,10,4,-1
82034354246,3,3,1,9,-1,11,3,2
82034367742,-1,-1,-1,-5,-5,-4,-2,-1
82034367742,2,1,-6,-2,-5,-26,-10,-3
82034369366,-4,0,1,7,1,8,-3,-2
82034369366,-1,-2,-2,1,3,0,1,-2
82034381370,-5,-4,-3,-2,-1,-3,1,-1
82034381370,-1,0,0,3,-1,8,1,0
82034390337,-4,-5,0,-17,-1,-4,1,0
82034390337,-1,0,-3,-1,-3,-6,2,0
82034405161,-2,-3,0,4,-1,-8,-7,-3
82034405161,6,3,3,-16,1,0,-1,0
82034406737,-2,-4,-6,0,-3,2,-2,0
82034406737,-2,0,-2,-3,-2,4,-1,-1
82034427668,-24,-19,-6,-15,-8,-2,-4,-2
82034427668,16,5,1,19,0,-6,-2,0
82034429255,0,0,2,-2,-1,-4,0,-1
82034429255,-4,-1,0,-4,3,8,1,0
82034441350,5,0,-1,5,0,-4,2,1
82034441350,-4,0,-1,2,-3,-2,-7,-2
82034450335,-5,-4,-2,-11,0,3,2,-2
82034450335,3,0,-1,6,-4,-13,-10,-6
82034465219,3,4,0,-3,0,-10,5,1
82034465219,0,1,0,1,1,21,3,1
82034466801,3,2,-1,-5,3,3,3,1
82034466801,-7,-3,-1,2,-2,-11,-6,-6
82034487647,9,6,0,-2,-2,-1,-5,-3
82034487647,-12,-17,-2,-3,1,-1,5,1
82034489275,-2,1,0,1,1,-1,2,2
82034489275,3,2,-1,-4,-2,4,-1,3
82034501390,-3,-1,-1,4,-3,3,1,1
82034501390,2,5,-3,-14,0,-7,-4,-4
82034510290,0,0,-1,1,0,9,1,2
82034510290,-10,-16,-2,-9,0,-12,-3,-1
82034524448,11,2,2,2,-11,0,1,-1
82034524448,-6,11,-4,32,-6,-2,-2,4
82034531336,-5,-3,-1,-38,0,-1,-2,-3
82034531336,0,1,-3,20,-4,2,2,-3
82034547769,3,4,1,-18,3,0,-7,-2
82034547769,-1,-5,-2,-14,-5,-4,2,-1
82034549309,3,1,-1,18,-6,-9,-3,-2
82034549309,0,2,1,9,1,2,3,-1
82034561317,-6,-2,0,18,9,8,-7,1
82034561317,1,-1,0,-15,1,-5,3,-2
82034570346,-1,0,1,6,6,0,-1,-2
82034570346,2,0,0,-12,-4,2,1,2
82034584545,1,2,-1,-4,-3,2,4,-1
82034584545,0,-16,-4,-6,-4,-8,-7,-4
82034591310,-11,-6,-3,3,1,1,-3,-1
82034591310,16,7,2,-18,-9,7,5,7
82034607650,0,3,-2,4,-2,-24,-5,-7
82034607650,11,24,5,-11,-1,4,0,1
82034609282,-6,-11,-4,12,-4,-5,-2,-4
82034609282,-2,-9,-5,-26,-3,0,-2,-3
82034621281,3,-13,-3,9,4,12,3,6
82034621281,-13,6,1,11,-2,-6,1,6
82034630314,-2,-1,1,4,1,4,4,-1
82034630314,-3,8,-3,-2,4,-1,-5,-4
82034644548,1,1,-3,-5,-5,-1,0,-4
82034644548,1,-10,-1,7,-3,-11,-6,-5
82034651338,1,1,-1,2,-6,-3,-5,0
82034651338,-6,-5,-6,-21,-1,0,5,2
82034667804,-4,0,1,3,5,-2,1,0
82034667804,-1,-3,2,2,4,11,0,-3
82034669305,2,5,-2,3,-11,-6,-2,-2
82034669305,-1,-1,-2,-14,0,-5,-2,-2
82034681323,-10,-1,-2,8,-5,2,-3,-2
82034681323,-1,0,-4,-15,3,1,0,-6
82034690361,4,-1,0,-12,-7,-2,-3,-3
82034690361,-13,-8,2,31,-1,-9,-4,-7
82034704561,-5,-1,-4,-9,-4,12,1,-3
82034704561,-1,-3,-1,8,0,-8,-3,-3
82034711302,1,-11,-1,-4,8,5,5,2
82034711302,5,7,1,11,2,4,1,2
82034727752,-5,-4,-3,-6,-2,-4,-1,-3
82034727752,5,6,4,3,-3,-3,-1,8
82034729281,-4,10,-3,8,1,-4,-6,-2
82034729281,-1,-15,1,5,2,-5,0,-9
82034750181,5,-1,3,7,-8,5,1,2
82034750181,-6,-8,-3,11,10,2,0,-4
82034751726,0,8,0,5,6,-4,-2,2
82034751726,-9,-6,-2,8,-2,-1,-4,0
82034764508,-18,1,-1,-18,-1,-4,-6,-20
82034764508,4,1,-4,-20,-9,-1,4,-4
82034771357,-1,-8,0,15,17,0,1,-1
82034771357,1,8,-1,5,-8,-1,-1,-3
82034787691,-7,-21,-6,-10,-2,-1,-1,-1
82034787691,1,-7,-2,0,-4,-1,-2,-15
82034789330,13,8,2,-2,-1,-1,-1,19
82034789330,1,1,2,-13,1,-2,1,0
82034810173,8,9,8,-5,3,-1,-2,2
82034810173,-6,-3,2,21,4,0,-3,-9
82034811766,-7,-6,0,-6,-3,-1,-2,-13
82034811766,-30,-3,0,11,-2,-3,-1,-2
82034823838,3,-21,-4,-31,4,-1,3,9
82034823838,8,-1,-4,-6,-2,-2,-3,-3
82034832885,0,2,-3,-16,-6,-3,0,1
82034832885,6,-6,-5,5,-2,-3,-1,1
82034847711,7,15,1,6,4,1,0,0
82034847711,0,-2,-2,-12,1,1,-3,7
82034849325,3,7,-4,-10,-8,-1,-4,2
82034849325,-1,-6,2,22,8,2,2,-19
82034870158,13,9,1,9,3,1,0,7
82034870158,-2,-3,1,0,0,0,-1,3
82034871787,-3,-1,-3,4,-2,1,-2,4
82034871787,-7,-14,-4,-18,-4,0,-3,1
82034883793,-4,6,-1,15,1,-4,-1,-2
82034883793,-6,-6,-5,-18,-7,-2,-2,-9
82034892817,3,-5,2,1,-2,-1,0,-13
82034892817,7,8,-6,-26,-3,-1,0,3
82034907686,3,-9,-5,8,-9,-4,2,-5
82034907686,-4,7,-1,-2,-2,-2,0,7
82034909264,-10,-10,-3,-2,-3,-2,-1,-4
82034909264,11,4,2,-3,-1,-1,-2,5
82034930231,3,5,0,4,3,2,1,7
82034930231,-9,-18,-3,-6,-3,-1,1,-2
82034931801,-1,2,-4,-1,-6,-3,-2,-5
82034931801,4,5,3,1,0,0,-2,2
82034943785,-8,-11,-13,-18,-4,-1,-4,-5
82034943785,-4,-2,0,-4,1,0,-1,-1
82034952807,-27,-4,-3,-3,-6,-2,-1,-7
82034952807,-1,-2,1,14,0,-2,-1,1
82034967659,16,13,2,-8,-3,0,-1,3
82034967659,4,34,7,27,4,-3,-2,-7
82034969286,6,-5,-2,9,-1,1,1,13
82034969286,0,8,1,6,1,-1,-3,16
82034990196,-6,-2,0,2,3,-1,0,-10
82034990196,7,4,0,-9,-11,-1,1,3
82034991796,3,-1,3,-3,-1,0,-2,-6
82034991796,6,8,-7,-1,-3,-4,-2,2
82035003793,-9,-3,0,-8,2,0,-1,1
82035003793,-1,-8,0,27,3,-1,-2,4
82035012763,-6,-1,-4,7,0,-3,-1,-4
82035012763,13,2,2,-6,-2,2,3,-2
82035027658,13,-3,-4,-8,-2,-1,-2,2
82035027658,-1,-2,-2,9,2,0,-1,-3
82035029256,7,-2,3,-35,-9,-1,-2,1
82035029256,-3,2,-3,-17,-6,-2,0,-4
82035050164,8,-25,-1,35,6,-4,-4,-3
82035050164,-10,-6,-7,-9,-1,-1,-1,3
82035051769,-1,-18,1,11,1,-1,0,-2
82035051769,1,-4,-3,-35,-2,1,1,-1
82035063835,-14,8,4,37,-6,-1,-2,2
82035063835,3,-4,-2,-21,-6,-1,-1,1
82035073795,-10,1,-2,0,2,-1,0,-1
82035073795,11,-4,-3,-27,-3,-3,-1,15
82035087734,-29,12,0,9,0,-2,-3,-23
82035087734,-1,-2,-1,8,4,0,-2,0
82035089352,-3,2,-4,-25,-5,0,-1,-4
82035089352,-3,-15,1,10,-1,-3,-5,-9
82035110154,1,8,-1,-4,0,0,0,5
82035110154,2,-5,-2,-13,-4,-2,1,3
82035111731,2,3,1,-7,-2,0,-3,-8
82035111731,-13,-9,-1,30,5,0,-1,0
82035123841,3,-4,-3,-42,-12,-2,-1,7
82035123841,3,-2,-1,-1,-1,2,1,1
82035132784,-1,-1,-1,8,1,0,-4,-37
82035132784,18,10,4,12,1,2,3,25
82035147732,2,0,-1,2,-4,-1,0,-23
82035147732,-16,0,-1,-8,-1,1,-3,-16
82035149306,-33,-27,-7,-1,-5,-3,-8,16
82035149306,-12,-8,-4,2,-1,1,1,-12
82035170165,10,1,-2,-5,0,0,-1,10
82035170165,3,17,0,-7,-3,-4,-2,12
82035171824,24,5,-4,3,1,0,2,-20
82035171824,-16,2,-2,1,-1,-3,-5,-19
82035183821,-5,11,5,-5,-4,-1,-5,0
82035183821,-12,-5,-1,-2,0,-1,-2,-55
82035192785,-9,-1,0,4,-1,-2,-2,49
82035192785,-17,-5,1,-2,-2,-2,-1,-13
82035207637,13,12,5,2,2,-2,1,34
82035207637,9,-3,1,-1,1,-2,0,15
82035209261,2,0,-4,0,1,-2,0,3
82035209261,5,5,0,-2,0,0,1,-3
82035230168,-3,-19,-3,4,1,2,-1,-8
82035230168,12,-25,-7,-11,-1,-2,-3,-16
82035231755,43,19,9,6,5,3,11,66
82035231755,8,7,1,6,-2,-3,-4,-19
82035243873,0,1,-1,-1,0,-1,0,-9
82035243873,0,-1,-1,-6,-1,-2,0,11
82035252773,3,-6,-3,1,0,-2,-2,-36
82035252773,11,19,-1,3,0,0,1,10
82035267669,-5,1,-3,3,-1,-2,-2,0
82035267669,-7,0,-5,-5,-2,0,2,4
82035269289,-5,-4,-1,-3,-2,0,-1,-6
82035269289,-5,4,0,-1,0,0,-1,0
82035290190,-19,-10,-7,2,-1,0,-3,-2
82035290190,6,1,4,22,5,1,-2,8
82035291816,0,-12,-3,-21,-13,-2,0,-20
82035291816,5,-5,-4,5,0,-1,1,-2
82035303777,2,-1,-5,-10,-7,-5,-3,-3
82035303777,-1,-5,-1,3,0,-1,0,10
82035312797,-3,-2,1,7,3,-1,0,-7
82035312797,-1,1,1,-4,-2,-1,-3,5
82035327050,-3,3,-5,-3,-1,-1,0,-7
82035327050,-11,6,-1,2,-2,-1,-2,-4
82035333854,4,10,-1,0,0,-1,0,9
82035333854,1,-9,-3,-7,-4,-4,-2,-4
82035350162,14,52,6,5,2,1,0,-36
82035350162,-6,-24,-1,-4,-1,0,4,25
82035351779,-39,-6,-7,-1,-2,-4,-9,-18
82035351779,-32,-1,0,3,3,-1,0,-3
82035372737,-5,-4,-2,-3,-2,1,0,0
82035372737,12,9,1,-11,-3,-1,-3,-9
82035374349,-12,-7,-1,2,1,0,0,0
82035374349,3,-1,-7,1,-3,-2,-1,1
82035387753,-14,-18,1,-3,0,-2,1,1
82035387753,-6,1,-3,-4,-3,-2,-3,-14
82035389334,4,-15,-4,2,-3,-3,-2,3
82035389334,-3,-2,-1,-2,2,-2,-4,-2
82035410166,3,-9,2,-11,-2,-1,-1,7
82035410166,8,15,-2,-2,-2,-1,-1,10
82035411725,6,7,2,3,2,1,-1,-10
82035411725,-10,-30,-5,-3,-2,1,-2,-2
82035423837,-6,-14,-3,-2,-1,-3,-1,8
82035423837,-3,6,-1,3,-1,0,-1,-2
82035432769,8,5,-1,1,0,0,-2,0
82035432769,-8,0,0,-3,-3,-2,-2,-2
82035447754,6,-4,3,2,3,-1,-1,14
82035447754,-5,-9,-3,-5,-2,-2,1,-16
82035449316,8,2,0,9,1,1,-1,-4
82035449316,22,9,6,-4,-1,-1,0,3
82035470124,-3,-6,-7,-5,-1,-1,0,-1
82035470124,1,-4,-4,-8,-5,-3,-3,5
82035471802,0,0,-1,-1,2,-1,0,-7
82035471802,2,7,-1,4,2,-1,0,-2
82035483837,-6,-2,-3,-5,-3,-1,-2,-2
82035483837,19,2,4,6,0,1,-1,-5
82035492820,-1,8,0,0,2,1,1,4
82035492820,12,2,2,-3,-2,-1,-1,-1
82035507660,6,5,6,6,3,-1,1,9
82035507660,-10,-8,-8,-3,-2,-3,-3,1
82035509252,3,5,3,-1,-2,-2,-2,-1
82035509252,12,-5,-5,-4,-3,-1,-1,3
82035530184,-7,8,1,0,0,-2,-1,0
82035530184,-5,2,3,18,5,-1,0,0
82035531777,1,-3,-6,-19,-10,-3,-1,0
82035531777,-2,-4,-3,1,2,0,-1,1
82035543784,-15,-10,-1,2,0,0,0,-17
82035543784,-6,-5,-4,-2,-1,-2,-1,3
82035552841,0,16,2,4,7,0,-2,2
82035552841,0,-4,1,-4,-5,-2,0,3
82035567729,2,-8,-2,0,-2,-2,-2,-5
82035567729,-7,0,2,-2,2,-1,-1,1
82035569304,2,-5,-2,-2,0,-1,1,-1
82035569304,-2,5,0,-6,-4,0,-1,-3
82035590194,1,-5,-4,0,-2,-3,-4,-1
82035590194,-17,10,0,-4,-6,-2,-1,-3
82035591817,-15,3,0,-2,-1,-1,-1,-1
82035591817,-4,9,1,3,-4,-2,-2,-4
82035603799,-5,-28,-1,-1,-1,0,-1,0
82035603799,4,2,-2,-3,-1,1,1,4
82035612847,6,1,-2,-5,-2,-2,0,-2
82035612847,2,0,0,12,3,-1,-1,13
82035627775,3,6,-5,-12,-4,0,0,-8
82035627775,-3,-3,0,-8,-1,-2,-4,-2
82035629282,-9,-22,-4,-3,-4,-3,-2,-2
82035629282,1,12,2,2,4,0,0,-5
82035650161,4,-10,-3,16,0,-1,0,9
82035650161,9,-2,-4,-23,-6,-4,-2,-3
82035651782,4,10,5,5,0,0,-1,-3
82035651782,-9,4,-7,-8,-1,-2,-3,-2
82035672741,-6,1,0,-3,0,-1,0,-4
82035672741,-2,-7,-1,3,0,0,0,-2
82035674289,3,-2,-2,3,-1,-2,-1,0
82035674289,-1,-8,-4,-9,-4,-2,-3,-5
82035687715,3,0,2,3,2,1,-1,2
82035687715,6,10,-1,3,0,1,0,1
82035689304,20,-17,-2,-6,0,0,0,4
82035689304,3,-2,-1,1,0,-2,-3,-14
82035710147,-9,4,-1,-3,0,1,-1,8
82035710147,-1,-12,-2,-6,-1,-2,-1,-2
82035711780,-7,5,-1,17,1,0,-3,-3
82035711780,-32,-7,-5,-25,-7,-3,-2,-11
82035732668,7,-1,-1,-1,-2,-1,1,2
82035732668,-2,0,-1,6,1,-2,-1,-1
82035734300,-6,4,-3,-7,-3,-1,-2,-1
82035734300,6,-19,-3,11,2,0,-1,9
82035747630,0,6,0,2,0,-1,-1,-4
82035747630,3,-3,-3,-4,-3,-2,-1,-2
82035749288,2,2,-4,2,0,-2,-1,-6
82035749288,0,11,5,16,0,1,3,7
82035770188,5,4,1,-11,-3,-2,-3,-3
82035770188,-11,-10,-4,1,0,-1,-1,-3
82035771789,-8,-2,-1,-5,-2,-1,-2,-11
82035771789,0,-8,1,6,-1,-1,-2,-1
82035792661,2,1,-2,-2,-1,-1,-2,14
82035792661,-2,-9,-2,1,-3,-2,-1,-5
82035794288,-21,4,-1,-3,0,-1,-1,0
82035794288,0,5,-3,-5,0,-1,-3,-4
82035807629,-4,-6,-4,-2,0,0,-1,-3
82035807629,2,2,0,-4,-2,-2,0,1
82035809270,1,5,1,2,1,-1,-2,2
82035809270,-7,-8,-5,-3,-3,-2,-2,-2
82035830188,-17,3,-2,-4,-1,-2,0,-4
82035830188,-8,3,3,3,-1,0,-2,-2
82035831881,7,-3,-2,-6,-1,1,-1,1
82035831881,5,1,1,1,2,-1,0,0
82035852755,2,-8,-5,0,-3,-1,-2,-3
82035852755,2,18,0,-8,-1,-1,-4,-11
82035854302,9,-5,0,7,-1,1,2,7
82035854302,-5,8,0,-7,-1,-2,-2,-10
82035867240,10,4,3,7,-1,-1,-1,7
82035867240,13,-33,-3,0,0,0,0,0
82035873922,-4,3,2,7,-1,-3,0,-1
82035873922,-6,-4,-5,-13,-3,-3,0,2
82035890420,3,-1,0,4,0,-1,0,-6
82035890420,-1,2,0,-2,0,-1,0,6
82035891875,24,-2,2,-1,0,-1,-1,-2
82035891875,2,-6,-1,-1,-1,0,-1,-2
82035912881,-10,-2,-1,-3,0,0,-1,-3
82035912881,-3,6,-1,3,-2,-1,-1,5
82035914344,-2,-22,-6,-10,-3,-1,-1,-9
82035914344,3,10,1,4,-2,1,0,0
82035927049,6,-1,0,-1,0,0,0,-5
82035927049,-6,-5,-7,-19,-7,-3,-1,1
82035933801,-1,8,2,-2,-1,-2,0,-2
82035933801,1,-2,-3,-1,-1,-1,1,0
82035950203,-23,-11,-2,-4,-3,-3,-4,-29
82035950203,3,0,0,5,1,0,1,6
82035951843,-3,0,-1,-6,-2,0,-2,2
82035951843,-5,2,1,-3,0,2,0,-4
82035972996,2,5,-2,0,0,-1,-2,3
82035972996,-5,5,0,3,1,0,0,-4
82035974341,1,-5,-3,0,0,-1,-1,-2
82035974341,-36,-11,-3,0,-2,-2,-1,1
82035987212,17,-18,-2,2,-2,-3,0,5
82035987212,0,11,-1,-4,-3,-1,-2,-5
82035994065,-4,-3,2,6,1,0,0,-2
82035994065,17,4,0,-3,0,-1,0,2
82036010167,-5,3,0,6,0,-3,0,-2
82036010167,0,3,1,4,0,1,0,6
82036011808,-4,4,-4,1,-2,-1,0,-4
82036011808,2,1,-5,-3,-2,0,-1,5
82036032705,5,3,2,1,-1,0,-2,21
82036032705,11,10,-1,2,0,-1,0,-10
82036034231,-8,-2,-2,1,-2,-2,-2,1
82036034231,1,-6,0,1,1,0,-1,-1
82036048073,-3,0,-3,-6,-3,-2,1,4
82036048073,-2,-6,0,3,0,-2,-1,0
82036053716,-13,-3,-5,-8,-3,-2,-2,-3
82036053716,8,2,-1,2,0,-1,0,6
82036070239,0,7,1,-6,-1,1,-2,-4
82036070239,14,-22,-1,1,-1,-2,-2,-5
82036071843,-11,3,2,1,0,0,1,12
82036071843,10,-1,-3,0,-3,-2,-1,-3
82036092728,-5,8,-3,-8,-2,1,1,-8
82036092728,-8,-11,-6,3,-2,-4,-2,3
82036094271,-5,0,2,1,1,-1,0,-8
82036094271,13,-2,-3,3,-2,-3,-3,1
82036106386,-4,-7,0,1,1,-1,1,-1
82036106386,-21,5,-2,-5,-2,0,-1,-4
82036114737,7,-4,-1,0,1,0,-1,-5
82036114737,-16,9,-1,-7,-4,-2,-2,-5
82036129513,-11,-23,-6,2,-1,-1,-2,-7
82036129513,-1,3,1,-1,0,-1,0,0
82036130288,-2,5,-2,-4,-1,-1,-2,5
82036130288,1,-8,-2,1,0,-1,0,-4
82036152119,3,20,3,-2,0,0,-1,4
82036152119,-4,-12,-2,-2,-3,-1,-1,1
82036152857,9,-6,-7,-3,-1,-2,-1,0
82036152857,-16,3,2,1,1,1,1,7
82036166586,4,7,0,-1,-2,-2,-1,-5
82036166586,0,5,2,4,3,-2,-3,-1
82036174643,3,2,0,-5,-3,-1,1,2
82036174643,6,-7,-2,-6,-2,-1,-2,-5
82036189731,-18,0,0,0,-1,-2,-1,0
82036189731,-5,-2,1,0,0,-2,-2,-1
82036190384,-7,-4,-1,0,-1,-2,-3,-4
82036190384,9,-4,0,-1,-1,-3,-8,-9
82036213518,6,-4,-1,-1,-2,0,10,3
82036213518,5,8,1,2,0,1,-3,-4
82036214187,7,-28,-4,-2,-1,-2,-5,-14
82036214187,6,-19,3,3,-1,-2,1,18
82036226544,9,3,-2,1,-1,0,-2,3
82036226544,-2,0,-1,1,-2,-3,-2,2
82036234772,-5,8,1,-2,0,2,0,-3
82036234772,-13,-3,-2,-2,-2,-2,-5,-8
82036249698,1,-11,2,0,-2,-3,-3,1
82036249698,6,10,-3,-3,-3,-2,2,4
82036250344,-4,2,0,-5,-1,0,-3,4
82036250344,0,3,-2,0,-1,0,-1,-2
82036272057,-2,6,-4,0,-2,-1,-3,1
82036272057,3,-4,-3,-8,-1,-1,-2,-3
82036272813,-3,6,-1,0,-3,-2,1,0
82036272813,-1,1,-1,0,1,-1,0,-1
82036286530,0,0,1,-2,1,0,-3,-6
82036286530,-2,-32,-9,-1,-2,-1,-2,-2
82036294729,-9,-2,-3,4,0,-1,0,18
82036294729,-6,12,3,0,1,1,3,-6
82036309489,9,5,1,-1,-1,-2,-5,2
82036309489,-4,25,4,-1,-2,-2,-1,1
82036310279,-27,-3,-2,1,-2,-1,-1,-24
82036310279,14,7,-3,-6,-4,1,1,13
82036332068,-12,-15,2,2,2,-1,-3,-7
82036332068,-5,3,-1,-1,1,2,-1,5
82036332800,0,0,-2,1,-1,0,-2,-15
82036332800,3,3,-1,2,-2,-1,-1,-2
82036346572,1,16,0,-5,-1,0,0,-4
82036346572,1,-8,-2,-1,-3,-2,1,2
82036354721,8,-2,0,0,-1,-1,0,4
82036354721,-2,-4,-2,-6,-2,-3,-1,-4
82036369473,-14,1,-8,-2,-3,-3,0,-1
82036369473,-1,8,0,-3,-1,0,-2,-4
82036370237,-5,0,-4,-2,-2,0,-2,8
82036370237,23,5,2,3,0,-1,2,3
82036392184,-1,-6,-2,-3,-3,0,-4,-12
82036392184,13,16,0,1,-2,-1,0,2
82036392787,-5,-12,0,-1,0,1,0,-7
82036392787,-5,-5,-3,-1,-2,-1,-1,0
82036406312,5,-1,-5,-3,-3,-1,1,2
82036406312,0,2,2,0,0,-1,-1,-4
82036414530,10,7,1,0,-1,-3,-2,6
82036414530,-13,-8,0,2,2,-1,-2,-5
82036429464,11,-2,-1,-6,-2,0,-1,2
82036429464,-3,11,-2,1,0,-2,0,1
82036430258,-26,-7,0,-2,-1,-1,1,1
82036430258,-9,1,-6,-3,-2,-3,-2,-1
82036451934,-13,-6,0,1,1,-1,-2,-21
82036451934,-1,-6,1,3,0,0,0,3
82036452746,-7,14,3,0,0,-2,-1,0
82036452746,2,-3,-3,-1,-3,-1,-2,-2
82036466562,-4,8,-1,-4,0,-1,3,9
82036466562,-12,-22,-3,2,1,0,0,-5
82036474620,10,2,-1,0,0,-1,0,-4
82036474620,-10,-2,1,-1,-1,-2,-2,-8
82036489522,14,1,-1,-12,-2,-2,-1,13
82036489522,-3,24,-1,-2,-4,-1,-2,-8
82036490345,11,0,-2,2,0,-1,-1,8
82036490345,0,1,-5,-4,-1,1,-1,-5
82036511959,-2,-10,-1,4,0,-3,-2,0
82036511959,0,-1,-2,-4,-3,-3,-1,0
82036512708,-1,2,0,1,-1,-2,0,-4
82036512708,0,-3,1,-2,-1,-2,-1,-2
82036526538,0,-1,-3,-1,-2,0,-2,-2
82036526538,-3,-12,-1,-1,1,-1,-1,1
82036534688,15,0,2,-1,-2,-2,-2,-1
82036534688,19,12,4,-1,0,0,2,-1
82036549549,3,1,1,3,1,1,0,2
82036549549,10,-8,-1,-3,-3,0,-2,-2
82036550280,3,-5,0,-6,-2,-2,0,-13
82036550280,-15,-4,-4,1,0,-3,-1,-1
82036571967,0,12,2,1,-2,-1,0,-2
82036571967,8,12,0,6,2,-1,-1,10
82036572806,2,6,2,-6,-3,0,0,0
82036572806,-13,-6,-2,-1,-2,-2,-2,0
82036586293,-2,0,-1,3,-2,-1,-1,-7
82036586293,-10,-4,-2,-1,0,0,-2,1
82036594559,-5,-1,-2,-4,0,-1,-2,0
82036594559,-5,-6,0,-2,0,-1,-7,-13
82036609653,3,-1,-2,-1,0,-2,2,17
82036609653,-4,-9,-4,-5,-2,-1,1,-6
82036610300,0,-2,-4,-2,0,-2,-9,11
82036610300,2,-4,-2,-3,0,0,7,-19
82036632042,-7,-11,-2,-1,-3,-1,-6,4
82036632042,3,2,3,1,1,1,4,25
82036632828,1,1,-7,-1,-2,-2,1,-22
82036632828,2,5,-4,0,-1,-1,-3,3
82036655187,10,-4,-2,-3,0,-1,-1,-18
82036655187,-14,-3,-2,-1,-1,-2,-2,1
82036655977,-19,-39,-7,-2,-1,0,-4,12
82036655977,13,24,7,-4,-2,1,2,-9
82036669546,-5,-25,0,2,2,-1,0,-3
82036669546,5,-1,-8,-9,-3,-3,-5,-3
82036670373,0,10,2,1,-1,0,0,4
82036670373,-18,-6,-2,6,-2,-1,-1,0
82036692036,-7,2,-1,-5,-3,0,1,1
82036692036,3,6,1,0,-2,-1,-1,-11
82036692785,23,16,7,2,2,3,2,3
82036692785,0,-6,0,-5,-2,-3,-3,11
82036715164,0,7,1,3,0,-3,4,5
82036715164,-7,-8,0,2,0,-2,-2,-9
82036716039,4,3,-1,-4,-2,-2,-6,-3
82036716039,4,-5,2,0,0,0,-1,0
82036729477,-6,1,-2,0,-1,-1,-2,10
82036729477,-4,-7,-6,-2,-2,-2,-3,-3
82036730293,-5,-2,-3,1,-2,-2,1,-1
82036730293,4,-5,-2,-2,-2,-1,-3,-1
82036752013,-6,-6,-4,-3,-3,-1,-5,6
82036752013,-23,14,2,-1,-2,-2,0,-12
82036752804,-1,3,-4,-3,-4,-2,2,2
82036752804,14,0,-3,-6,-3,0,0,10
82036775351,-4,0,-1,1,2,-1,0,-3
82036775351,6,3,0,-1,1,0,-2,-12
82036775994,-10,0,0,-3,-2,-2,-1,0
82036775994,-5,10,1,1,0,-2,-2,-2
82036789621,16,-11,-12,-1,-4,-3,-3,4
82036789621,-8,-5,5,0,-1,2,-1,0
82036790352,4,2,1,-3,-1,0,2,0
82036790352,-10,0,-1,5,-1,-2,-3,-2
82036812062,0,2,4,-1,-1,0,2,-6
82036812062,-5,-13,-4,0,0,-2,0,2
82036812800,-6,-2,-4,-6,-2,-4,-1,-2
82036812800,-3,-14,-3,-1,0,-1,-2,6
82036835346,-6,-2,-2,2,-2,-2,-1,-6
82036835346,3,-5,2,-5,-1,-1,0,5
82036835998,3,-4,-1,5,-1,-2,-4,11
82036835998,4,7,2,1,0,-2,2,-12
82036849631,-5,-33,-5,-3,-2,-2,-1,-2
82036849631,5,-4,-2,-2,-1,-1,0,-3
82036850317,3,2,1,5,-1,0,-5,-2
82036850317,-14,-9,-6,-1,0,-2,-3,-27
82036872145,19,7,-1,-4,-2,0,5,18
82036872145,6,5,3,-4,0,-1,-1,3
82036872794,-3,-2,-1,-4,1,-2,1,-14
82036872794,-10,-12,-1,3,-1,-1,-2,5
82036895194,7,14,-4,-6,-4,-1,-4,-13
82036895194,-3,-9,-1,1,0,0,-3,-3
82036896012,-5,-2,0,5,-1,-1,0,1
82036896012,26,14,1,-2,0,2,2,6
82036909519,-11,0,1,1,-1,-2,-2,-17
82036909519,1,-2,-3,1,-2,-3,-4,1
82036910313,-6,0,-2,-5,0,1,1,-4
82036910313,-11,0,-1,2,-3,0,-1,1
82036932212,-2,1,3,1,0,-3,0,13
82036932212,-5,-6,-4,-14,-3,0,-1,-8
82036932790,6,-1,0,2,0,-1,0,-13
82036932790,-6,-3,-2,-4,0,0,-5,11
82036955320,7,6,-1,3,1,1,-3,-24
82036955320,-6,-5,0,4,0,-1,2,12
82036956064,-6,5,-2,-5,-2,-2,-2,-10
82036956064,6,3,-4,-5,-2,-1,13,38
82036969582,-4,3,2,2,-1,0,-10,-32
82036969582,0,0,0,-5,-3,-3,-1,-6
82036970285,-6,-10,-2,-1,-2,-1,-1,8
82036970285,0,-7,2,0,-1,-2,-3,17
82036992009,-1,11,-2,-5,-1,0,5,1
82036992009,-4,-10,-1,2,-1,0,-2,3
82036992755,2,10,5,1,2,1,-5,-1
82036992755,-6,-6,-4,-2,-2,-2,-5,-13
82037015123,-3,-4,2,2,0,-2,0,8
82037015123,16,-8,-2,3,0,-2,0,-4
82037015910,-7,-3,-3,1,-1,-1,4,10
82037015910,2,-18,0,-13,-2,-1,-1,-6
82037029420,1,25,4,3,1,1,-3,4
82037029420,1,1,-1,2,-2,-2,-2,-5
82037030212,-2,-2,-3,-4,-2,-4,5,22
82037030212,-1,3,-1,-1,-2,-1,-2,-21
82037052008,-7,-2,-5,-8,-3,-1,-2,1
82037052008,-12,-2,0,0,1,0,0,-10
82037052917,0,0,6,-2,0,-1,-3,-8
82037052917,4,16,-2,8,1,-2,-2,-4
82037075663,-3,-14,-1,5,1,-1,0,12
82037075663,1,5,1,-1,-1,1,-2,3
82037077404,2,-12,-5,-3,-5,0,-7,-17
82037077404,2,4,1,0,2,0,-1,0
82037089521,-8,-12,-3,-6,-3,-2,3,2
82037089521,-12,-12,-5,2,0,-2,-5,-34
82037090264,-3,1,-2,4,1,0,1,44
82037090264,-6,-13,-7,-6,-3,-3,2,3
82037111944,-1,2,3,4,2,-2,-1,-6
82037111944,0,3,-7,-7,0,0,-1,8
82037112754,-8,-8,-2,3,-1,-1,-4,-25
82037112754,-2,6,3,1,0,2,-1,-8
82037135152,11,-1,1,1,0,1,0,15
82037135152,-3,-3,1,1,-4,-2,-5,-25
82037135993,5,10,-1,-2,-2,2,5,1
82037135993,-5,-9,-2,-2,-1,-2,-6,-6
82037149513,-10,-2,-4,-7,-2,-2,-2,-8
82037149513,10,2,2,2,0,-3,-3,12
82037150330,-11,1,0,-6,-2,1,1,-16
82037150330,15,11,1,2,1,-1,0,5
82037172075,-1,-7,-2,1,-2,-1,-1,-3
82037172075,-14,12,2,1,1,0,-1,6
82037172848,-6,-5,-1,-5,-1,-1,1,-4
82037172848,-4,-2,-1,4,-1,-1,-3,-3
82037195373,-7,1,0,1,0,0,-4,-30
82037195373,-3,-15,-3,-3,-3,-3,2,10
82037195944,3,2,-3,8,-2,-2,2,2
82037195944,-5,8,1,-10,-2,0,-5,-8
