timestamp,emg1,emg2,emg3,emg4,emg5,emg6,emg7,emg8
83651689459,-3,-1,-1,-2,-2,0,-3,0
83651689459,0,-1,1,1,0,0,-1,-4
83651690184,-4,-2,-1,-1,-2,-1,1,-1
83651690184,-3,0,-1,-1,-1,-1,-1,-21
83651703761,-2,-3,-4,-1,-2,-2,1,3
83651703761,-7,0,1,1,0,-1,-2,-5
83651704428,7,0,-1,0,-1,0,0,2
83651704428,-1,-2,-2,1,-1,-1,-3,3
83651726184,8,-1,-2,-3,0,-1,0,10
83651726184,-4,-1,0,-1,0,-1,-1,-3
83651726988,-4,-1,0,-2,-1,-1,0,-6
83651726988,-1,-2,-2,1,-1,-1,-2,11
83651749386,-2,7,1,-3,-1,-1,0,-6
83651749386,4,-5,-3,-2,-1,-1,-1,6
83651750163,0,1,0,0,-1,0,-2,-3
83651750163,-1,-1,0,-1,-1,-1,0,-1
83651763732,-8,-3,0,0,-3,0,-1,-4
83651763732,1,-1,1,0,-1,0,0,3
83651764457,-6,-3,-1,0,0,-3,-2,-5
83651764457,3,-1,-1,-2,0,-1,0,4
83651786180,-8,-3,0,1,-1,-1,-4,-21
83651786180,-4,-1,1,-2,-2,-1,1,-6
83651786954,-2,0,1,0,-1,0,0,3
83651786954,4,-1,-4,-3,-2,-2,0,4
83651809431,1,-3,0,0,-2,0,0,10
83651809431,-3,-1,-1,-1,-1,0,-3,-5
83651810169,3,1,-2,0,-1,-1,-1,-6
83651810169,-4,-4,0,-2,-1,0,-2,2
83651823728,1,-1,-3,0,-1,0,-1,1
83651823728,-2,1,-2,0,0,-1,-3,-3
83651824414,0,-1,1,-1,-2,1,1,3
83651824414,3,1,-2,-2,-1,-2,-2,-4
83651846205,-6,-4,-1,-2,-1,1,0,10
83651846205,-3,-2,0,-1,0,0,-1,-8
83651847005,-6,-2,-2,-3,1,-2,-2,1
83651847005,17,0,0,-3,-2,-1,0,8
83651869401,-4,-1,-2,0,1,-1,2,2
83651869401,-4,1,-3,0,-1,0,-3,-6
83651870175,-3,0,-1,-1,1,0,0,0
83651870175,-5,-2,-2,-1,-2,-1,-2,-5
83651883066,3,3,0,0,-1,-3,-3,-3
83651883066,2,-2,-1,-2,-2,-1,3,8
83651891215,2,-1,-1,-2,-2,-2,-1,-5
83651891215,-6,-1,0,-1,-1,-1,0,5
83651906192,1,-5,-4,-3,-2,-1,1,1
83651906192,-1,-3,-2,0,-1,1,-2,-6
83651906997,2,-1,-2,0,-1,-2,0,-2
83651906997,4,-1,-3,-2,-2,-1,-3,-12
83651929417,0,2,1,-1,0,1,0,10
83651929417,-1,-1,-1,0,-1,-3,0,-5
83651930201,5,-2,-3,-1,-2,0,-1,7
83651930201,-4,-4,-1,1,-2,-1,-2,-6
83651943079,3,-3,-2,0,-2,0,3,-1
83651943079,2,0,-1,-2,0,-1,-3,0
83651951186,-17,-1,-1,-1,-1,-1,-5,-24
83651951186,-7,0,-1,1,1,-1,-1,-2
83651966212,3,0,-4,-1,-1,-1,-2,0
83651966212,-2,0,0,-1,-2,-2,-2,-4
83651967089,-2,-2,-2,-1,-2,-3,-2,2
83651967089,-2,0,-1,-2,-1,1,0,-4
83651989357,-4,-1,-1,0,0,-3,-1,-3
83651989357,0,-3,-2,-3,-1,-1,-2,1
83651990135,2,-1,-3,-2,-1,0,2,8
83651990135,-4,0,-2,-1,-1,-1,-1,-1
83652003074,4,0,0,-2,-2,0,-2,-1
83652003074,0,-2,-1,-1,-1,0,0,1
83652011200,2,0,0,0,-2,-1,-1,1
83652011200,-3,-2,-1,-1,-1,1,-2,-3
83652026175,-1,-1,1,-1,-2,0,-4,-5
83652026175,-2,-1,-3,-1,-2,0,2,0
83652027008,0,-2,-1,0,0,-2,-3,-5
83652027008,-2,0,1,0,-1,-1,0,4
83652049385,-4,-2,-1,0,0,-2,-4,-5
83652049385,-1,-1,1,1,-1,-1,-2,1
83652050169,2,0,-2,0,-3,-1,0,3
83652050169,-3,0,2,1,1,0,-1,0
83652063071,-2,-3,0,4,-2,-2,-1,-2
83652063071,0,-3,-9,-21,-5,-3,1,4
83652071218,-1,-2,-7,6,1,-2,0,-3
83652071218,-4,-2,3,7,-1,-3,-1,-3
83652086203,-2,0,1,-1,-3,-6,1,-2
83652086203,-2,0,5,13,3,6,-3,-2
83652087034,2,-1,-4,-20,-4,-4,1,5
83652087034,-1,-2,-10,-9,-6,0,2,-1
83652109130,2,-1,10,2,1,3,0,0
83652109130,-1,0,1,5,-1,-5,-4,-3
83652109988,-2,-2,5,2,0,8,0,-1
83652109988,-2,-2,0,4,2,-3,1,1
83652123016,-1,0,-5,-3,-1,-5,-2,1
83652123016,-3,-5,-4,-8,-4,-2,-1,-2
83652131283,0,3,4,10,-3,-8,-7,-6
83652131283,-2,0,3,-5,-1,1,0,-5
83652146178,15,8,-12,-2,6,7,4,32
83652146178,-1,-27,12,13,-3,-2,-4,8
83652146994,-5,-2,-2,3,-1,-1,0,-11
83652146994,2,-2,-2,-2,-6,1,-1,5
83652168734,-4,1,-6,-7,4,-8,-2,-12
83652168734,6,9,8,-3,-1,15,5,4
83652169426,14,0,-21,8,-6,-20,-18,8
83652169426,-31,-10,-2,3,4,1,-3,-7
83652183019,5,4,5,-1,0,-2,0,4
83652183019,7,3,-6,-1,-3,-2,6,2
83652198748,1,24,9,-15,-10,9,6,-12
83652198748,8,-8,-12,-7,3,2,4,18
83652206184,-14,-8,4,5,-3,17,-1,-10
83652206184,10,4,-10,-4,-6,-26,-16,23
83652206970,1,7,12,-6,4,-8,10,16
83652206970,16,11,-9,-2,1,18,3,-14
83652228699,-11,-1,6,-1,-3,2,-4,-8
83652228699,-9,-2,3,6,5,6,1,-16
83652229469,-11,-12,-7,-3,-1,2,3,-5
83652229469,-2,1,6,5,-11,-33,-10,0
83652251925,9,-6,3,0,7,7,6,-4
83652251925,-9,5,0,2,-3,8,11,-7
83652252717,30,1,1,-1,2,3,-8,18
83652252717,-70,8,-1,-2,7,8,-3,-15
83652281853,-31,-14,-6,-1,-10,-30,-4,-19
83652281853,-6,-6,-4,-1,3,-4,2,-8
83652282715,-3,-4,7,-3,-8,5,-1,-10
83652282715,3,-7,-5,-2,1,-7,-1,30
83652288729,8,3,-6,-3,-4,1,-17,-9
83652288729,-4,1,-3,-2,14,28,16,9
83652289456,-1,-5,0,5,2,-42,-24,9
83652289456,11,-5,4,1,-1,12,4,-6
83652311864,-7,-2,-7,-5,-7,3,16,-7
83652311864,12,-2,-3,5,8,-3,2,-2
83652312708,-3,1,-4,0,4,19,2,1
83652312708,16,0,-4,-7,2,-3,-15,-6
83652326235,1,-1,-10,-2,-6,-24,13,11
83652326235,-13,-2,-2,-23,-22,5,-13,-30
83652327006,-14,-12,-1,4,-10,-26,-27,-15
83652327006,7,-1,-3,5,8,20,14,1
83652348767,11,9,2,0,12,43,7,-1
83652348767,-6,13,-2,0,5,-21,7,-37
83652349516,1,-5,1,-9,-8,0,10,12
83652349516,8,-3,-1,-8,-15,-26,-3,-17
83652372083,1,-6,5,4,11,-11,-18,-6
83652372083,-3,1,-2,0,-12,-5,-15,10
83652372807,3,0,-4,2,6,46,9,-10
83652372807,-4,-3,-3,-8,-13,-53,-5,9
83652386505,-1,5,-8,-1,15,51,-21,-6
83652386505,-6,-3,-1,2,12,-21,-10,-4
83652386999,21,-2,-4,-8,-19,23,20,18
83652386999,3,0,6,-9,-2,-23,0,23
83652408975,-10,-5,-6,10,-10,19,2,-6
83652408975,1,-3,9,8,-2,-21,-9,2
83652409524,-12,-3,-2,-15,5,-8,3,-8
83652409524,12,6,3,27,17,1,-2,-12
83652431987,4,-2,2,-14,-36,-21,-7,8
83652431987,0,-7,-8,-8,1,57,-8,-2
83652432773,-9,-2,-4,-5,-24,-91,15,-9
83652432773,4,1,2,-15,24,79,-8,-5
83652446366,2,-1,0,0,-2,-33,12,18
83652446366,7,22,-2,-18,-9,29,20,13
83652447011,-6,-6,7,60,47,5,-19,0
83652447011,-1,-4,-10,-13,-20,-17,-20,-6
83652476995,-1,-2,5,22,6,8,-4,-11
83652476995,-2,-2,-4,-17,-9,-41,0,-7
83652477747,-4,1,-3,3,2,16,5,12
83652477747,0,-1,2,21,5,10,7,-19
83652491979,3,-2,-7,-24,-3,14,8,17
83652491979,3,-2,0,-3,-9,-29,1,18
83652492795,-3,-3,-4,-4,4,30,-3,-9
83652492795,-1,-3,4,-3,-14,-9,-2,-5
83652506196,3,3,3,-10,-16,-20,-4,-19
83652506196,-6,-8,-4,12,16,1,3,24
83652507044,1,-6,-2,-16,-7,10,0,3
83652507044,-8,-7,-1,11,8,1,2,-7
83652528654,-7,-4,-3,0,-25,-18,-5,-4
83652528654,4,-3,-12,-17,0,-1,-5,-12
83652529501,-6,-4,13,12,4,15,2,-2
83652529501,-1,-1,-3,-19,-19,-13,4,-6
83652552024,0,1,7,5,32,-9,-1,19
83652552024,-9,-1,10,-21,-19,9,-6,-1
83652552785,5,-1,-38,4,1,-6,-9,-15
83652552785,0,-1,-2,6,6,3,19,21
83652566337,-4,-2,-2,-17,-5,-2,-2,1
83652566337,15,-3,3,30,3,-1,-8,4
83652567070,9,29,13,-16,9,2,6,36
83652567070,-10,-11,3,15,4,5,-5,-13
83652588829,6,10,-10,-14,-3,-3,-9,-23
83652588829,8,-8,-5,13,8,-3,15,37
83652589552,-20,-7,5,-8,-9,-9,-11,-37
83652589552,10,1,-3,17,1,11,4,28
83652612135,20,5,1,-14,-4,-1,-7,5
83652612135,-56,-6,7,27,16,-10,5,-12
83652612754,0,-5,-3,-17,-6,6,3,8
83652612754,-2,4,-2,-8,-1,-1,3,-2
83652626439,-8,-10,-3,1,-35,-6,-3,-3
83652626439,14,-2,-8,-20,-4,1,-14,-22
83652627063,-4,-10,0,15,6,-1,0,-2
83652627063,-1,-1,-5,-10,4,-4,-3,-2
83652648827,14,1,4,-4,2,-1,2,4
83652648827,-21,-1,-7,14,-2,0,-10,-34
83652649502,-8,8,-5,16,18,-3,-3,-10
83652649502,10,3,10,-9,-32,-1,-4,-9
83652672129,-14,-3,-1,-2,19,-2,1,-13
83652672129,38,6,-3,0,-3,5,13,45
83652672817,-16,-3,1,-22,-10,-5,-8,-27
83652672817,12,15,-7,-3,-1,-3,-3,7
83652686362,-13,-31,-10,-10,7,2,0,9
83652686362,13,-5,0,-4,-23,-1,7,8
83652687043,14,8,7,26,33,5,3,4
83652687043,-21,-19,-10,8,-11,-6,-7,-6
83652708796,-1,-1,-1,0,7,-1,0,-4
83652708796,30,6,0,-3,-1,-3,-8,-18
83652709644,7,-6,-3,-5,14,4,14,15
83652709644,-8,1,4,3,-17,-6,-13,-18
83652731974,-1,3,-7,2,-6,4,14,34
83652731974,23,5,3,-18,-21,-3,-6,12
83652732801,-40,-5,-4,13,5,-6,-11,-91
83652732801,9,1,5,-15,9,-2,6,78
83652746421,24,24,12,13,6,-1,5,5
83652746421,-8,-15,-9,-4,-8,4,-5,16
83652747064,67,-10,-7,-12,-2,5,10,36
83652747064,-94,-17,-13,-48,2,-6,-18,-74
83652768972,-20,-2,-17,51,-5,-5,-10,-27
83652768972,27,6,14,-6,-1,-5,1,61
83652769555,-47,-13,15,-9,-28,-5,-35,-106
83652769555,-5,-10,-15,-1,19,6,37,108
83652792083,2,1,6,-50,-1,-3,-12,-38
83652792083,24,8,-8,20,-4,-5,-6,-12
83652792795,-62,-12,-8,-28,-28,-1,6,17
83652792795,52,17,9,-11,4,-1,-24,-44
83652806636,-39,-46,-46,14,16,-2,9,83
83652806636,22,28,43,34,15,12,21,-22
83652807077,23,-17,-1,-21,-5,-4,2,37
83652807077,66,11,15,34,-4,2,-3,-42
83652828825,-60,-17,-45,13,7,-5,-12,-65
83652828825,52,-10,1,-31,-10,-3,-16,-4
83652829591,-54,2,-5,6,3,3,11,34
83652829591,-38,5,-7,-37,-13,-2,-2,-71
83652852094,46,-16,27,16,10,2,5,24
83652852094,-12,-21,-20,-19,8,-10,-13,-33
83652852788,-47,22,7,-8,-6,4,-18,-90
83652852788,82,2,-26,-24,11,-2,14,82
83652865811,-39,-9,39,17,-43,-13,-7,-60
83652865811,-62,-6,9,29,15,9,2,-22
83652873931,53,12,1,14,-2,4,8,72
83652873931,25,-9,-18,-11,-1,-5,-13,-15
83652888822,66,24,-8,11,14,3,9,30
83652888822,74,10,16,-19,-7,-8,-14,15
83652889556,-33,-7,9,46,8,-4,4,7
83652889556,47,11,-4,6,-13,9,-2,-13
83652911968,69,22,33,14,4,-19,6,28
83652911968,-37,-2,-8,-64,-32,8,-7,-34
83652912844,54,10,-15,15,18,-20,14,9
83652912844,-10,-2,14,-7,3,20,-6,-4
83652925638,29,8,-30,-11,21,-23,-30,-13
83652925638,-108,-9,-15,12,11,42,14,-46
83652933849,51,6,21,-7,-35,17,18,50
83652933849,-103,-14,2,3,29,-28,5,-41
83652948960,3,10,-19,-73,-40,29,0,3
83652948960,3,-5,-2,68,9,-43,-19,11
83652949527,16,-4,-4,-41,-14,-21,-12,-37
83652949527,-21,-12,17,52,-9,-28,-6,20
83652973439,20,9,19,6,15,23,21,-11
83652973439,-33,-30,-21,-9,-7,-11,-3,8
83652974991,32,-1,-20,7,8,32,11,0
83652974991,0,23,9,-5,26,-2,-3,-16
83652985790,-39,-23,-11,-26,-29,-10,5,48
83652985790,-2,0,-2,-11,1,1,2,-16
83652993913,2,-2,-9,20,-19,-10,-3,15
83652993913,-10,0,-10,-6,-9,-2,0,-1
83653008735,-25,-27,2,-7,-3,-4,-9,-11
83653008735,29,21,-2,23,19,14,-7,-22
83653009475,-33,8,-3,-7,1,-3,-2,-24
83653009475,6,-15,1,1,-11,22,0,-2
83653031978,-3,9,16,16,-2,13,18,-10
83653031978,-11,-9,-5,0,14,-21,-2,-2
83653032794,5,-2,7,12,21,18,-13,21
83653032794,14,-1,-1,7,-32,-19,5,5
83653045605,-4,9,1,-26,-16,-11,0,-27
83653045605,-32,-3,-5,17,16,18,4,6
83653053937,20,-3,9,4,-3,-11,-3,14
83653053937,-5,-4,-12,-12,2,32,4,2
83653068766,-4,0,-4,1,-5,-23,-14,-14
83653068766,5,-1,0,13,28,3,12,16
83653069604,-9,-9,-5,-52,-27,3,-7,1
83653069604,13,4,7,22,9,3,-13,-8
83653092136,-6,6,6,15,9,-9,5,-5
83653092136,17,8,-3,-35,-27,-4,11,18
83653092742,-67,-15,-9,-12,18,-19,-4,-16
83653092742,-2,2,2,24,20,16,5,0
83653105566,-9,21,-5,-15,-22,7,-21,4
83653105566,-9,4,-5,20,-6,-8,3,-7
83653113830,22,0,-2,-22,-9,15,12,13
83653113830,-4,-2,1,10,9,-37,0,6
83653137120,-2,1,-4,-1,1,12,5,-3
83653137120,13,3,2,-1,-5,0,-6,6
83653138563,6,-6,-4,9,6,26,0,2
83653138563,3,1,-2,-27,-20,-44,-8,-5
83653152136,-12,-4,-2,3,18,15,5,1
83653152136,12,2,0,-20,-19,12,-1,3
83653153551,-18,1,-4,20,-2,-15,-6,-4
83653153551,-1,19,3,-10,-7,11,-4,-10
83653174611,13,-11,7,10,15,-3,0,2
83653174611,-12,-6,-6,-1,4,-4,8,0
83653176021,2,-4,1,-5,-5,-6,-8,0
83653176021,16,2,-5,-8,-9,4,0,4
83653188321,-24,-2,0,10,-2,-2,-5,-12
83653188321,-30,-4,-2,-18,-3,2,-1,-3
83653197096,19,-4,1,3,4,-13,0,12
83653197096,-9,-11,-3,-5,-12,12,4,-6
83653212096,7,3,3,3,17,-1,0,0
83653212096,17,-3,-1,4,0,-7,-3,-7
83653213533,-1,-11,-8,-25,-17,-5,3,31
83653213533,-41,-13,-1,42,12,0,-7,-10
83653234476,5,1,1,-22,11,1,-9,4
83653234476,-11,-3,-7,-60,-57,-3,2,-5
83653236039,16,8,0,44,38,-8,-9,-30
83653236039,4,-4,-2,4,9,12,8,2
83653248274,-9,-6,-3,2,-17,-7,-2,-3
83653248274,-13,5,-9,4,11,-6,-7,-4
83653257094,1,-12,10,-30,-35,1,-1,-6
83653257094,0,-12,-1,20,41,4,-1,2
83653272003,13,-5,-3,-4,-7,-4,-1,-3
83653272003,-10,-3,1,-7,3,-4,-6,-10
83653273513,2,3,-4,-9,-17,-2,-1,13
83653273513,-1,-1,0,14,14,3,0,4
83653294561,9,3,1,-21,0,1,-1,-22
83653294561,9,-4,2,18,9,-2,4,21
83653296040,25,8,-5,0,6,-5,-4,-4
83653296040,-22,6,-1,-17,-22,0,-1,-13
83653308234,-49,0,-3,22,-1,-2,3,-2
83653308234,22,-6,3,-15,-4,-1,-2,7
83653317070,-18,-1,-8,28,31,-3,3,3
83653317070,21,-4,-1,-36,-35,-1,-8,-1
83653332129,7,4,4,29,7,2,-3,-20
83653332129,7,10,2,-4,-2,-3,4,15
83653333566,5,8,0,10,11,1,-8,1
83653333566,-2,-8,-7,-18,-9,-3,2,-9
83653354581,0,-14,3,15,1,-4,0,6
83653354581,-5,1,0,20,4,-1,-1,-1
83653356056,7,4,9,-38,-20,-2,-14,-5
83653356056,-1,1,-12,-8,-5,-3,-16,-17
83653368027,14,-6,-9,-10,0,1,23,51
83653368027,-13,-7,-8,-1,-11,-5,-14,-34
83653377145,-5,-5,-10,13,3,-1,-15,-36
83653377145,18,2,-3,0,-13,1,-9,9
83653391972,-19,11,9,2,-5,7,68,42
83653391972,4,9,7,-38,-13,-4,-16,-12
83653393504,-20,-12,-1,54,34,2,19,20
83653393504,16,2,3,-21,-6,2,-12,-28
83653414386,-31,-7,2,19,-2,-3,-24,-22
83653414386,-1,-2,18,19,22,-1,3,0
83653415978,-9,-18,-7,-57,-39,-5,-6,-13
83653415978,3,6,-23,4,10,3,11,19
83653428029,-25,-1,-1,-4,8,2,-15,-18
83653428029,19,1,9,-25,-24,-4,1,-4
83653437016,4,-5,-32,2,18,0,-4,-14
83653437016,0,4,29,42,3,0,13,28
83653451831,-6,0,-10,-35,-24,-8,-23,3
83653451831,5,6,-35,-12,28,6,-28,-85
83653453467,29,6,15,12,-18,3,47,115
83653453467,-33,-12,-20,-41,-7,2,2,-19
83653474376,59,9,-5,25,22,0,1,58
83653474376,-16,14,28,24,-19,-4,-12,-40
83653476010,-53,5,-13,18,12,-13,-40,-74
83653476010,8,-9,36,-13,-8,1,-1,-14
83653488092,-9,7,-28,-12,-4,0,1,-15
83653488092,93,-15,21,21,1,2,18,84
83653504588,27,42,25,-9,-2,-1,-22,-29
83653504588,-22,-3,41,21,-9,-8,-19,-68
83653512090,-7,6,-9,-30,-1,-8,-39,-42
83653512090,19,-25,-13,26,13,6,45,68
83653513514,7,11,47,-13,-2,9,17,68
83653513514,43,-34,-68,9,-7,-5,-13,6
83653534634,-54,-5,3,-22,0,-5,-2,-4
83653534634,-22,-9,-18,10,11,-2,-9,-68
83653536133,84,-13,-3,-10,-15,-18,20,72
83653536133,36,5,-29,-14,7,19,23,54
83653548236,87,5,7,-15,-16,-11,-18,3
83653548236,-88,-49,-22,4,13,-5,-4,-6
83653557079,-89,-3,-32,2,15,9,6,-98
83653557079,5,21,60,9,-5,3,-22,39
83653571928,-49,-1,3,20,5,13,38,-17
83653571928,14,34,11,-2,6,-2,-4,59
83653573566,12,-4,6,-19,-19,-19,-15,-28
83653573566,10,-9,-19,-11,-8,-10,7,1
83653594416,-9,-9,8,36,26,-1,-22,-14
83653594416,-20,31,-5,-18,-15,11,6,-43
83653596108,-14,0,22,22,4,2,27,77
83653596108,-1,12,-5,-16,3,21,10,10
83653608208,38,-2,1,-35,11,5,-3,-11
83653608208,45,-1,-7,60,11,-14,-6,12
83653617123,-13,-13,-6,-33,-32,-18,-15,-47
83653617123,8,4,9,55,0,-10,0,3
83653631935,-21,-3,13,5,-13,-13,-2,-3
83653631935,9,-6,-7,-10,10,14,8,5
83653633549,-5,-9,-3,-30,-38,1,-6,-15
83653633549,3,-2,-21,-83,-3,-11,4,-18
83653654596,-16,-8,9,96,15,2,-1,-16
83653654596,-1,5,1,-75,-8,-8,-2,21
83653656106,6,-25,-22,24,19,-1,-3,-11
83653656106,-18,9,8,-14,-5,-3,3,-4
83653668192,59,2,4,-15,-6,2,3,45
83653668192,-20,28,3,-15,-10,0,-22,-81
83653677144,-25,-2,8,59,23,13,26,28
83653677144,-45,-1,-8,-30,-19,0,-4,-22
83653692085,4,2,-13,-78,-24,0,2,3
83653692085,-12,-6,16,118,35,0,-4,-17
83653693531,24,-25,-4,-38,-2,4,-18,-35
83653693531,-7,-6,-7,-47,-4,-7,-2,2
83653714486,4,9,-2,-8,-20,2,-1,-18
83653714486,12,-15,-3,-38,-33,-10,2,23
83653716018,5,11,-1,9,21,15,-1,-10
83653716018,8,-25,4,26,19,0,4,11
83653728275,0,-11,3,4,-18,-6,-2,-20
83653728275,-17,-8,3,-27,-5,8,9,47
83653737066,17,-2,-1,18,0,-19,-4,-1
83653737066,-9,4,7,9,1,-3,3,-27
83653751982,-20,1,-1,-3,11,5,-7,-20
83653751982,45,-3,-3,9,-6,-5,3,-2
83653753478,-85,3,-5,-15,0,6,3,-67
83653753478,-15,-2,-4,17,6,-7,-2,17
83653774587,-6,0,-4,8,4,-6,-9,-23
83653774587,-2,-18,-8,-12,-9,-5,4,20
83653776064,16,2,-3,-14,-2,3,-10,-4
83653776064,4,3,1,18,9,15,10,-11
83653788280,-9,-2,-4,19,6,3,5,4
83653788280,-37,3,-5,-58,-19,-2,0,40
83653797032,21,6,0,39,10,0,-8,46
83653797032,-36,-3,1,21,1,-7,-4,-12
83653812019,18,0,-2,-10,-3,-9,1,15
83653812019,-12,-5,-4,-9,-7,14,0,-10
83653813536,-28,-4,-6,-35,-19,-11,-3,-15
83653813536,31,14,1,15,-1,6,-5,17
83653834604,-59,-8,-1,-7,9,-3,-2,13
83653834604,-2,-1,1,13,9,-9,-8,-1
83653836031,8,-1,-3,-13,-6,4,2,-28
83653836031,-3,0,-1,4,-2,-4,-3,-10
83653848226,13,-1,-3,-11,-2,-1,1,12
83653848226,1,5,-3,10,1,4,-1,-7
83653857087,32,3,1,-8,-4,-12,-3,7
83653857087,8,-6,-2,-9,-3,0,4,61
83653871411,30,9,8,6,5,7,-1,-22
83653871411,0,4,3,12,8,-1,8,18
83653878070,1,2,1,-3,0,15,0,-4
83653878070,-14,-4,0,2,-14,-18,-8,-57
83653894386,6,-7,0,10,4,-1,3,27
83653894386,-9,-5,-2,-5,-10,0,-9,-16
83653896142,-6,3,-2,-5,4,4,10,16
83653896142,-4,-1,-1,2,4,-3,3,6
83653917048,1,3,-5,1,-2,1,-3,-8
83653917048,-5,-1,-1,-1,1,-6,-9,-15
83653918538,1,-3,-3,2,0,-1,-1,8
83653918538,1,4,0,-17,1,2,1,3
83653931481,-7,-3,-2,11,-6,-4,-8,-18
83653931481,4,1,-3,-2,0,-4,-6,-13
83653938102,2,-17,-3,-10,-11,-4,4,21
83653938102,-4,-1,-2,8,3,5,4,20
83653954451,9,-2,-1,-1,0,-4,0,2
83653954451,0,-1,0,9,2,-2,0,-2
83653956000,7,12,2,-2,1,2,-6,-3
83653956000,-3,0,-1,7,-5,-2,-6,-14
83653968105,-2,-5,-2,-7,-1,-1,6,-7
83653968105,-5,-1,-1,-3,-6,-1,-1,18
83653977034,36,6,0,3,-2,-7,-6,4
83653977034,-60,-11,-5,-15,2,1,-1,-12
83653991358,-11,1,0,11,2,3,3,7
83653991358,-6,-6,0,0,3,1,5,-14
83653998122,-7,3,1,-2,6,-2,-11,-4
83653998122,13,3,-1,5,2,-3,-1,1
83654015154,22,5,2,-14,-4,0,2,5
83654015154,-11,-3,-3,-10,0,-5,1,-5
83654016791,2,1,-4,8,-7,1,1,0
83654016791,20,-16,-1,6,2,-3,-6,-1
83654028326,-4,3,0,-1,1,5,1,0
83654028326,6,2,-1,-1,-2,1,-2,-7
83654037032,1,3,-2,-3,0,-3,-1,16
83654037032,8,3,-2,3,-2,-5,-1,-3
83654051315,-7,-2,-4,-2,-7,-2,-1,-2
83654051315,2,-4,-1,1,-3,0,0,2
83654058351,-10,-2,-1,-13,-3,-1,-2,-8
83654058351,-3,2,1,6,-5,-1,-2,-4
83654074664,2,-5,-2,0,-4,-4,-1,1
83654074664,-8,4,2,-7,-1,-11,-3,-4
83654076101,-5,-3,0,-5,5,6,1,-8
83654076101,8,3,3,38,7,7,2,4
83654088275,-1,-1,-3,-34,-7,4,0,-5
83654088275,4,-1,0,7,0,0,0,2
83654097051,15,-14,2,33,4,-7,-3,1
83654097051,-8,-1,-9,-57,-8,1,2,-2
83654111467,-16,-9,-2,3,-8,-1,-5,-6
83654111467,-5,-5,-4,12,5,-3,0,-4
83654118252,8,5,5,-6,-1,1,1,3
83654118252,4,3,1,24,3,-2,0,-5
83654142081,2,-1,-1,13,3,-2,-1,-1
83654142081,0,3,2,-28,-7,0,-1,2
83654143535,-8,1,-1,-17,-3,0,0,-8
83654143535,0,-2,-1,17,-1,-3,-2,-3
83654157122,-3,1,0,-16,2,-2,0,3
83654157122,0,-4,-2,22,3,0,-1,-4
83654158573,-29,-2,-5,9,-2,0,-1,-3
83654158573,-8,14,4,-19,1,-1,-1,-3
83654170747,20,-21,-4,-2,0,1,-2,2
83654170747,-9,1,-1,-4,4,2,-2,-9
83654179634,-2,-1,-3,9,-5,-3,1,2
83654179634,0,2,-3,-23,-11,-4,-4,0
83654194622,-5,7,2,5,2,-1,-1,1
83654194622,2,-5,-6,-2,0,-1,0,-1
83654196065,2,0,-3,-21,-3,-1,-2,-5
83654196065,2,-4,0,59,9,-1,-3,-1
83654224512,0,5,3,20,8,0,-5,-7
83654224512,-1,-3,2,22,-6,0,4,11
83654226022,-3,2,3,60,12,3,-2,0
83654226022,-1,-4,-9,57,-7,-5,-5,-2
83654230817,-5,0,-5,14,4,-2,-3,-5
83654230817,-1,1,-1,24,-3,-2,-4,-2
83654239580,-1,1,6,-6,6,1,-1,2
83654239580,2,-5,4,-17,3,0,2,-3
83654254433,0,5,0,-1,-2,-4,0,-3
83654254433,0,-26,-5,-24,2,-1,0,6
83654256057,3,-3,-11,-92,-19,-3,0,-5
83654256057,2,-4,-2,-21,-2,-2,-4,-2
83654277105,-2,2,1,11,0,0,-1,5
83654277105,1,7,3,20,8,2,0,-3
83654278527,9,-3,-2,-9,-2,0,-1,-2
83654278527,-1,7,0,2,2,0,1,1
83654290728,-3,0,-1,-44,-1,0,0,0
83654290728,1,3,1,21,-12,-2,-2,0
83654307090,-7,-8,-9,16,-6,-4,-3,-3
83654307090,7,6,8,18,4,1,1,1
83654314519,6,28,-3,30,1,-2,0,-4
83654314519,-4,4,-1,-22,1,0,0,0
83654316126,-6,1,4,61,13,3,1,-1
83654316126,-6,-29,-11,-105,-19,-1,-3,0
83654337383,-13,-9,-1,34,5,0,-1,-2
83654337383,16,12,0,39,5,0,0,3
83654339014,17,-5,-5,6,-12,-3,-2,2
83654339014,4,20,5,44,13,2,0,2
83654351977,-4,-7,-2,2,-3,-3,-2,-1
83654351977,9,-20,-3,-16,-6,-5,-1,-1
83654359760,0,4,4,21,7,0,0,-2
83654359760,2,5,-1,1,-1,-3,-1,-2
83654374634,-3,-3,-3,-8,-6,-2,2,1
83654374634,-8,0,-1,-16,-2,0,-1,-1
83654376046,-5,9,1,-5,-2,-2,0,-2
83654376046,-2,-9,-3,-20,-3,-3,-2,-4
83654396954,-3,-9,2,-5,-6,-1,-4,0
83654396954,-5,9,-3,-8,-4,0,-1,-2
83654398533,-3,-5,-3,-20,0,0,-1,0
83654398533,-25,-1,-5,9,-2,-2,-4,-7
83654419445,4,-1,-1,-10,-3,-2,-1,-2
83654419445,-7,-3,-1,-5,0,0,-2,-1
83654421023,-4,-1,-1,-15,0,-1,-1,0
83654421023,-3,-8,-2,29,1,-1,-1,0
83654434397,15,7,1,6,0,2,1,8
83654434397,-1,22,-2,-7,-2,-3,-6,-22
83654436025,-2,-22,-1,28,4,1,6,11
83654436025,14,8,1,22,2,-1,-1,-1
83654456927,-11,-7,-2,1,-1,-1,1,11
83654456927,-12,20,2,2,3,-1,-1,-5
83654458534,3,5,4,10,2,-1,-3,-9
83654458534,2,-6,-4,6,-1,0,0,2
83654470606,-18,0,0,-7,-3,-2,0,-8
83654470606,-16,-8,-4,-11,-4,-2,-2,-1
83654479606,-7,12,-1,-9,-3,-1,-3,-5
83654479606,-3,-15,-2,-19,-1,0,0,-3
83654494467,13,4,-3,-11,4,-1,-2,13
83654494467,-2,-12,-2,0,-5,-2,2,-8
83654496000,-4,0,-3,-10,-5,-3,-3,2
83654496000,9,4,0,-38,-6,-2,-1,-9
83654516958,0,-5,-2,7,1,-2,-1,11
83654516958,3,-8,-2,1,3,1,0,9
83654518540,-2,-21,-4,1,-1,-1,-4,-5
83654518540,1,4,3,-1,-2,-1,-1,-6
83654530782,4,12,-4,-6,-3,0,0,-11
83654530782,-2,-10,2,-5,0,1,1,7
83654539602,-2,8,1,-14,-6,-2,-4,-3
83654539602,-1,16,-1,-6,-1,-1,-2,-2
83654554496,-7,1,1,-3,-5,-2,-3,-24
83654554496,5,4,-6,-10,-2,1,-2,4
83654555973,-1,6,-2,2,-1,-2,-1,-2
83654555973,-5,-13,-2,1,0,-2,-1,5
83654577145,7,0,2,2,-3,-2,-4,-4
83654577145,6,1,1,-5,1,0,1,1
83654578575,-21,1,-4,-10,-2,0,-1,-1
83654578575,-25,0,-2,-1,-2,-2,-2,-2
83654590750,-5,-8,-3,-2,-2,0,-2,-8
83654590750,2,-13,-3,-9,-1,0,-2,3
83654599560,12,24,-1,-5,-1,1,-2,-1
83654599560,5,-14,-3,0,-2,-1,1,8
83654614443,-9,-8,-2,-3,-2,-1,-1,-1
83654614443,0,8,2,1,1,-1,0,1
83654616043,-8,-33,-7,6,0,-2,-1,-5
83654616043,1,8,-2,-21,-3,1,-1,1
83654636884,12,3,-3,3,-2,-2,-1,20
83654636884,0,-10,-2,2,0,0,2,-3
83654638508,2,1,-1,-7,-2,-3,-3,-8
83654638508,14,-10,-2,5,0,0,-1,10
83654650610,-3,-7,1,-6,-1,1,0,3
83654650610,-7,2,-2,4,1,-3,0,-2
83654659566,7,-2,-4,-19,-6,-2,-1,-5
83654659566,-6,0,0,-1,2,-1,1,5
83654674696,-4,3,0,-2,-2,-2,-2,-8
83654674696,6,3,-1,5,-3,-4,-2,7
83654676019,-26,6,-1,-3,0,-1,-1,-3
83654676019,1,-1,1,7,0,-1,-4,-5
83654697353,-4,-5,-8,-15,-4,-2,-2,-7
83654697353,-3,-3,-2,-29,-5,-1,-1,-2
83654699075,4,-3,0,0,-3,1,-1,4
83654699075,4,15,1,0,-1,-2,0,1
83654710524,-9,-11,-1,5,2,-1,0,-4
83654710524,21,5,2,2,-1,0,0,0
83654719494,7,2,-3,0,1,0,1,7
83654719494,-6,1,1,-5,-2,-2,-1,-6
83654734421,18,-1,2,1,-1,0,-1,20
83654734421,-2,-2,-2,7,4,0,0,-14
83654735993,5,-6,-1,10,-7,-1,-2,4
83654735993,-2,-3,5,40,5,0,0,0
83654756912,-5,-7,-10,-73,-11,-4,-1,-2
83654756912,-5,-5,-1,8,1,-1,-1,3
83654758514,0,-24,-2,-6,3,0,-1,-1
83654758514,-1,-2,0,34,6,-1,-2,-6
83654770613,-14,2,4,27,-12,0,-3,-3
83654770613,-6,-2,-12,-58,-11,-2,-3,-3
83654779531,1,7,3,45,21,2,0,-5
83654779531,0,-6,-11,12,-26,-5,-2,0
83654794468,-12,-9,-1,43,7,-3,-4,-19
83654794468,19,2,7,8,4,2,3,11
83654796085,-16,1,-2,-11,-3,-3,-3,0
83654796085,2,-2,1,-27,6,1,0,-1
83654816922,2,7,3,9,5,2,-2,-8
83654816922,-24,-49,-5,7,-5,-2,-2,-5
83654818555,22,3,-1,-6,0,-1,1,7
83654818555,-10,3,2,0,1,0,-4,-6
83654830545,16,2,-5,-18,-8,-5,-1,11
83654830545,-12,7,1,10,2,1,-2,-7
83654839624,10,11,-2,-10,-6,-2,-2,-8
83654839624,-13,-38,-5,-16,-4,-1,0,-6
83654854407,-5,-3,-2,-1,2,0,-1,0
83654854407,18,22,5,25,8,1,0,3
83654856023,-9,1,0,-18,-10,-1,-2,-10
83654856023,8,-12,-5,-9,0,1,-2,11
83654876984,-19,3,2,15,5,-1,1,-5
83654876984,-7,-4,-1,20,2,-3,-2,-8
83654878589,-6,-4,-2,-19,-5,-1,-1,-2
83654878589,9,11,1,10,3,0,1,3
83654890790,2,-6,-6,-11,-1,0,-3,-3
83654890790,-9,-1,-1,10,-3,-2,-2,-3
83654899535,-1,18,0,-20,-5,-1,-1,1
83654899535,-2,3,3,20,2,0,-1,2
83654914467,0,-4,-7,-26,0,-1,0,-5
83654914467,2,9,-1,8,-6,-1,-3,2
83654916059,8,0,-1,18,4,-3,-1,22
83654916059,-7,5,0,2,1,-1,1,-20
83654944624,3,21,3,12,1,-1,0,-3
83654944624,3,-5,-1,-23,-2,-1,-2,-7
83654946090,0,-6,0,6,-2,0,0,11
83654946090,2,2,-5,-16,-4,-2,-4,-3
83654950547,-12,8,4,23,3,-1,0,1
83654950547,-9,-1,-6,-12,-4,-3,-2,1
83654959558,-1,-4,-1,2,0,-3,-1,-11
83654959558,0,4,0,-11,-1,-2,-2,-2
83654974413,6,-15,-4,-3,-3,-1,1,-4
83654974413,10,-1,-1,5,-1,0,-1,-1
83654975990,-15,-8,-2,-3,0,0,0,-5
83654975990,-7,-53,-7,-10,-1,-2,-3,21
83654996885,-6,-9,1,1,0,0,3,-12
83654996885,8,10,4,12,3,0,2,0
83654998483,5,-3,-5,-56,-11,-4,-1,-1
83654998483,0,13,-3,-8,-2,-1,-2,-3
83655010501,-4,1,0,3,-3,-1,-4,-7
83655010501,-4,-7,-3,4,1,-2,0,6
83655019534,9,5,1,18,2,2,-1,-3
83655019534,-3,18,2,2,0,1,1,0
83655034584,3,-3,-1,-12,-3,0,-1,-1
83655034584,0,1,-1,5,-1,0,0,4
83655036048,-4,-5,0,11,1,0,-2,0
83655036048,-1,4,-1,-8,-3,-2,-2,-7
83655056940,6,8,0,11,3,-1,-1,3
83655056940,-13,-4,-2,-2,-2,-2,-2,-4
83655058506,8,0,-2,-2,0,-2,-2,-7
83655058506,10,2,0,-2,0,-1,1,19
83655079474,2,3,3,6,4,-1,0,-11
83655079474,-3,-2,0,-13,-11,-3,-2,-2
83655081024,-6,-5,-2,5,1,-1,1,0
83655081024,-8,-9,-2,-4,0,0,0,-6
83655094628,-1,-8,-1,-1,-2,-2,-2,4
83655094628,-4,-2,-4,-5,1,-1,-2,-1
83655096021,18,-10,-2,11,-1,-2,-1,10
83655096021,1,7,0,-3,-2,-1,0,-6
83655116974,-1,-3,-1,-2,-2,-1,-2,3
83655116974,-4,14,-1,1,-1,0,-1,-3
83655118563,-10,3,-1,-7,-3,-2,-1,-6
83655118563,1,1,-1,-4,-2,-1,-3,-2
83655139465,0,-7,-2,-5,-2,-2,1,4
83655139465,5,7,2,-2,1,0,0,-6
83655141028,7,8,2,4,-2,-1,-1,10
83655141028,-4,9,-2,-3,-2,-1,1,-19
83655154462,3,-13,-2,2,-2,-1,-3,-1
83655154462,-3,-7,-1,-17,-3,0,-1,1
83655156007,-11,-3,0,2,2,0,1,-3
83655156007,1,0,-1,6,-3,0,-3,1
83655176918,1,4,0,-2,-1,-2,-3,1
83655176918,-3,-10,-4,-2,-1,-4,-2,-5
83655178505,3,11,4,6,1,-1,-2,2
83655178505,-6,0,-4,-7,-1,-2,-2,0
83655199466,-6,4,-1,-1,-1,-1,0,-4
83655199466,-6,-8,-4,-2,-1,-2,-2,-1
83655200978,-7,-1,-2,2,-1,1,1,-4
83655200978,-7,-2,0,-4,-1,0,-1,-2
83655213947,14,0,-2,-1,-3,-1,-1,12
83655213947,-22,-1,0,1,-1,0,-3,-22
83655220685,-3,-3,0,5,-3,-3,-4,-6
83655220685,5,3,1,0,0,0,-1,-1
83655236934,-9,-8,-4,-3,0,0,-2,-3
83655236934,12,35,3,1,0,-2,-1,8
83655238561,-8,-9,-5,1,-1,1,-1,-1
83655238561,14,-14,-4,-2,1,-1,1,-3
83655259398,-2,5,0,-2,-2,-2,-2,-3
83655259398,2,0,0,0,-1,0,1,2
83655261030,-13,-12,-3,0,-1,-3,-2,-3
83655261030,2,3,-1,-3,-2,-2,-3,1
83655273728,-4,8,-2,-1,-3,-2,-1,-11
83655273728,-2,-11,0,-10,-1,-1,2,17
83655280448,3,0,1,1,1,0,0,15
83655280448,-4,-3,-1,-1,0,-1,0,-14
83655296847,-2,-4,0,7,4,0,-1,0
83655296847,-2,-10,-4,-4,-7,-3,-3,-1
83655298479,-2,-3,-3,-9,-3,-1,-2,-4
83655298479,-7,7,-1,-3,0,-1,-2,1
83655319390,0,-29,-4,0,-1,2,-2,0
83655319390,6,-3,1,6,1,1,0,0
83655321009,-3,1,-1,0,-1,0,0,-1
83655321009,-2,-19,-3,-2,-4,-1,-2,-5
83655333711,-5,3,-1,-1,2,0,-1,-1
83655333711,15,-5,-2,-2,-1,1,0,2
83655340481,10,-11,-6,-3,-1,-2,-1,-12
83655340481,1,9,2,1,2,0,1,5
83655356861,1,-2,-1,-3,-2,-3,0,-2
83655356861,-4,-4,-1,3,0,1,-2,22
83655358445,1,2,1,1,-1,0,1,-14
83655358445,1,2,-1,0,-1,-2,-1,2
83655379414,-4,4,-2,-3,-4,-2,-1,-2
83655379414,1,-1,-1,-1,1,-1,-3,-4
83655381002,-11,12,-1,-3,0,1,-3,-9
83655381002,-2,1,-1,-1,-1,1,-1,7
83655393701,0,2,0,-1,0,-1,0,2
83655393701,-1,-4,-3,0,-2,-2,-1,-6
83655400499,-3,0,2,0,-1,-2,-1,2
83655400499,-6,-3,1,0,1,0,-1,-5
83655416887,-1,2,-3,-5,-4,-1,-2,-1
83655416887,5,0,-1,1,0,-1,-1,-1
83655418484,-13,-3,-2,0,0,0,0,8
83655418484,0,2,-2,-2,-1,-2,-2,-3
83655439379,5,-1,-1,-2,-1,-1,-3,5
83655439379,2,-7,-3,-2,-2,0,-1,-5
83655440962,1,-3,-1,1,0,-1,-1,0
83655440962,-3,-2,-2,-1,-1,-3,-1,0
83655453815,-10,0,0,-1,-1,-1,-1,0
83655453815,12,10,-1,1,0,0,1,11
83655460596,-19,-22,-2,1,0,0,-1,-14
83655460596,3,17,1,1,-1,-2,-1,3
83655476907,2,-1,-3,-3,-3,-4,-3,-2
83655476907,-14,2,3,-1,-1,-2,-4,-6
83655478503,7,26,-4,0,0,-3,-2,4
83655478503,8,-5,-2,0,0,-1,1,3
83655499399,-7,-3,-3,0,-1,0,-2,-2
83655499399,-11,-8,0,0,0,0,-2,-2
83655500985,-6,1,-2,-2,-3,0,-2,-3
83655500985,-3,-2,2,0,-1,-2,0,-4
83655513771,8,5,1,1,-2,-2,-2,0
83655513771,-3,-5,-2,-1,0,-2,-2,-7
83655520515,-2,-6,-1,-1,-2,-1,-2,-4
83655520515,-4,0,-4,-1,-1,-1,-2,-1
83655536877,0,-5,-1,0,-1,-2,2,-2
83655536877,-2,1,0,-1,-1,0,-1,-4
83655538520,9,-4,0,1,-1,-1,1,2
83655538520,-2,8,-1,0,1,-2,-2,-3
83655559438,2,-8,-3,0,-1,1,1,1
83655559438,-5,-5,-3,-2,-2,-1,-2,-4
83655561047,0,-1,-1,-2,-2,-2,-2,-22
83655561047,-10,9,-1,-2,-3,-1,-3,2
83655573086,-14,-1,-1,-1,1,-1,-3,-8
83655573086,18,-2,-2,-1,0,-2,0,3
83655582063,3,-6,0,-1,-2,-1,-2,15
83655582063,-3,-9,-1,1,0,-2,0,-3
83655596865,1,3,0,-1,0,-1,-1,-4
83655596865,4,-20,-4,-2,-1,-2,-1,-4
83655598550,-3,-20,-3,-2,-1,-1,-1,-1
83655598550,0,-11,-4,-4,-3,-1,-2,-6
83655619442,10,3,3,1,0,-2,0,10
83655619442,-13,-1,-2,0,-1,-1,-1,-6
83655621088,9,11,1,-1,-1,-2,0,20
83655621088,-2,-7,-1,0,-1,0,3,-16
83655633035,1,-3,-2,-2,-2,-2,-3,-1
83655633035,0,10,0,-1,0,1,0,-2
83655642086,-2,-2,0,-2,0,-1,-1,-1
83655642086,-3,-2,-1,0,-2,-2,-2,3
83655657137,-1,7,0,-1,-3,0,0,-2
83655657137,-4,-2,-2,0,-1,-2,-1,-1
83655658613,1,1,-2,-1,0,-1,-1,-3
83655658613,-18,-4,-3,-1,-2,0,-1,0
83655679635,-13,-3,-1,-2,-2,-2,-2,-2
83655679635,-7,-2,-2,0,0,-2,-2,-4
83655681149,8,-14,-2,-1,0,-1,0,3
83655681149,4,3,-1,-1,0,1,-1,1
83655693018,-11,-7,-2,-4,-1,-2,-3,-4
83655693018,-10,-3,-2,-2,-2,-2,-2,-3
83655702071,-9,0,-3,-2,-2,-2,0,-7
83655702071,-2,4,-2,-2,-1,-2,-2,-4
83655716914,-2,-19,-2,1,0,1,0,-2
83655716914,-2,-2,0,0,-2,-1,-1,-1
83655718487,1,8,1,0,-2,-1,-2,-6
83655718487,4,-3,-3,-1,0,-2,-1,9
83655739499,2,4,-2,-1,0,-1,-2,3
83655739499,-2,7,2,1,-1,0,0,0
83655740975,10,-2,-7,-2,-3,0,-2,-15
83655740975,-5,-25,1,0,0,1,1,11
83655753132,4,3,-3,-2,0,-1,-1,1
83655753132,5,-1,1,-1,-1,-1,1,1
83655768089,-3,2,0,-2,-1,0,-1,-3
83655768089,2,-1,-1,0,-1,-2,-4,-7
83655776947,4,5,-1,0,-1,-1,-1,-2
83655776947,-4,-3,-2,-1,-2,0,-3,-1
83655778493,-2,3,0,0,0,-2,0,8
83655778493,3,5,-2,-1,-3,-2,1,-11
83655799653,-3,1,0,2,1,0,0,1
83655799653,0,0,-2,-1,-2,0,-1,2
83655801028,4,9,-2,-1,-1,0,-1,6
83655801028,-8,-23,-1,-3,-1,0,0,3
83655813270,16,7,2,-1,-1,1,0,-3
83655813270,1,-4,-1,-1,0,-3,-1,-5
83655822034,7,6,-2,-3,-1,-3,-3,-6
83655822034,-12,6,0,1,-1,-1,-1,12
83655837110,-8,-2,-3,-2,0,-2,-1,-1
83655837110,-3,-3,-1,-2,-1,0,-1,2
83655838535,-9,-4,0,1,0,-2,-1,-4
83655838535,7,0,-4,-2,-2,0,-2,-4
83655859467,-3,0,1,-2,-2,-1,-2,-2
83655859467,2,2,0,-1,0,1,-2,4
83655861010,-3,-2,-1,0,-2,-1,-2,-3
83655861010,-1,6,-1,-2,-3,-3,-4,-21
83655873192,-2,-2,-2,0,-1,0,1,-2
83655873192,-2,-4,-1,-1,-1,-1,0,1
83655882083,-4,-1,2,-1,-3,1,2,-3
83655882083,15,2,1,-2,-2,-1,0,14
83655897163,0,-2,-3,-2,-1,-1,0,-5
83655897163,5,-1,-1,-2,-3,-3,-1,-6
83655898574,-1,0,1,-1,1,-2,2,8
83655898574,-9,21,-3,-2,-2,-2,-1,-5
83655919413,4,2,1,-1,-1,0,1,-1
83655919413,0,4,-2,-2,-2,-1,0,-2
83655920923,4,-1,-1,-1,-2,-2,-3,-2
83655920923,-8,6,2,0,-2,0,-2,-1
83655933096,8,-1,-1,0,-2,-2,-1,22
83655933096,-7,-7,-2,0,0,0,0,-11
83655942121,4,6,-1,0,0,-1,-1,-1
83655942121,8,-6,-3,-1,0,0,1,7
83655957005,-9,-19,-7,-3,-1,-1,-1,3
83655957005,2,8,-2,0,-2,-1,-1,1
83655958501,-10,-7,-3,0,0,0,-2,-3
83655958501,2,-8,-2,-1,-1,1,-2,-1
83655981749,-3,1,-1,-1,-1,-1,-2,-7
83655981749,-10,0,0,-2,0,-2,-2,-7
83655981856,6,-5,0,0,2,-2,-1,4
83655981856,7,-2,0,0,-2,-3,-2,-2
83655993051,-13,1,0,1,0,-1,-1,4
83655993051,-4,0,0,-1,0,-1,0,-3
83656002047,-6,-34,-5,-2,-2,-1,-1,2
83656002047,3,0,-1,0,1,0,1,0
83656016862,4,0,-1,0,-1,-2,-2,14
83656016862,4,-3,-1,1,-1,0,-1,-7
83656018478,-11,3,-1,0,-2,0,0,-5
83656018478,0,-2,-1,-2,-2,0,-1,1
83656039457,8,19,0,-2,-3,1,0,-11
83656039457,-3,-8,-1,-1,-1,-1,-2,12
83656040918,1,5,-2,-1,-1,-1,-1,-4
83656040918,-4,-3,-1,-2,0,-1,0,-4
83656061909,4,7,0,0,-1,0,1,-1
83656061909,5,-4,-3,-2,-1,-1,-2,7
83656063470,0,1,-1,-3,-2,0,-1,-8
83656063470,-2,2,0,1,-1,0,-1,7
83656084686,0,10,-2,-3,-1,-3,-1,8
83656084686,-2,-1,0,-2,-2,-2,1,-15
83656086016,-5,-7,1,-1,-1,-2,-1,2
83656086016,-5,-2,-3,-2,-2,-3,-2,-6
83656099574,-2,-7,-2,0,0,-1,-2,-6
83656099574,-2,-3,-3,-3,-2,-2,-2,4
83656101067,4,13,2,0,1,-1,0,-1
83656101067,-5,-10,-3,-2,0,-1,-2,-4
83656122091,-7,-10,-1,-1,-1,0,-2,-8
83656122091,-2,0,-1,-2,-1,-1,-2,1
83656123541,2,21,2,1,-2,0,0,-2
83656123541,-4,-19,-2,0,-1,1,0,-7
83656136909,-1,-8,-3,-2,-3,-2,-2,-11
83656136909,-3,-5,0,0,0,-3,-2,5
83656138476,5,7,0,-2,-1,-1,-1,4
83656138476,-20,-1,-2,0,-2,-1,-3,-3
83656166913,-6,0,-1,1,-1,-2,0,-10
83656166913,-6,1,-3,-2,-2,-1,-2,-2
83656168481,-2,-7,-3,-1,-2,-1,0,4
83656168481,10,15,0,-2,-2,-3,-1,2
83656182095,-14,-30,-5,-2,-3,-1,-2,-4
83656182095,-2,8,1,0,0,-1,-1,1
83656183504,1,-7,-2,-1,-1,-1,-2,-3
83656183504,-7,-1,1,-2,0,-1,-1,-3
83656196460,1,6,0,0,-1,-2,0,5
83656196460,-1,-1,0,-1,0,0,0,-7
83656203229,5,17,1,-1,-2,-1,-1,9
83656203229,1,-6,0,0,-1,-2,0,-5
83656219410,-12,5,-1,-2,0,-1,-2,3
83656219410,2,-6,-2,-3,-1,0,-2,-1
83656221000,-5,-3,-2,-2,-2,-2,-2,-9
83656221000,8,1,-1,-3,0,-1,-1,9
83656242091,6,-2,0,0,1,-1,2,-19
83656242091,13,6,-2,0,-2,-2,-2,1
83656243501,-11,-9,-3,-2,0,-1,-2,3
83656243501,0,5,0,-1,-2,0,-2,-6
83656256455,6,-6,-3,-1,-3,0,-2,6
83656256455,-7,-4,0,0,-1,0,0,-2
83656263328,3,-6,0,-2,-2,-1,0,-4
83656263328,-5,-8,-1,0,-1,-1,-1,-3
83656279645,1,9,2,1,0,-1,-1,-6
83656279645,-8,0,0,0,-2,-1,0,-3
83656280974,-3,-7,-3,0,-1,-2,-1,-3
83656280974,0,6,1,-2,-2,1,1,-1
83656302046,-2,-2,0,-2,-3,-1,-2,7
83656302046,16,-6,-4,-2,-1,0,-1,17
83656303558,19,27,3,1,1,0,0,-9
83656303558,-2,-17,1,2,1,-1,-1,3
83656316348,8,-2,-2,0,-1,-1,-2,-1
83656316348,-2,-2,-1,0,-1,-1,0,0
83656323102,-7,-4,-2,-2,-2,-1,-2,1
83656323102,-2,1,-2,0,0,-1,-1,-4
83656339584,0,1,1,-1,0,-1,-1,4
83656339584,-5,0,-1,-1,-2,-2,0,-5
83656341074,-9,-10,-3,-1,-1,-1,0,-2
83656341074,6,3,-1,0,-1,-2,-2,7
83656361940,-8,-11,-3,-1,-3,-2,1,-3
83656361940,2,6,2,0,-1,0,0,-5
83656363541,7,-6,-1,0,0,-3,-2,-3
83656363541,-3,-6,-1,-1,-1,-1,-1,23
83656376479,21,17,4,0,2,0,1,-8
83656376479,10,3,0,1,0,-1,-1,6
83656383233,-7,-7,-1,0,-2,0,-2,-1
83656383233,3,0,0,-3,-1,0,0,-1
83656399438,-12,-11,-4,-4,-2,-3,-2,2
83656399438,2,19,0,-2,-2,-1,-1,-4
83656401094,-2,-15,-1,0,1,0,-1,2
83656401094,0,3,-2,-2,-3,-2,0,-3
83656422149,-6,-1,0,-1,-1,-1,-2,-4
83656422149,-4,-3,-2,-2,0,-1,-2,-5
83656423444,-7,0,-2,0,-1,-2,-2,-9
83656423444,7,22,0,-2,-2,-2,-1,25
83656436468,2,1,2,0,0,1,0,-12
83656436468,-9,-7,-1,-1,-1,0,0,1
83656443137,0,-6,-3,-2,-2,0,-2,6
83656443137,-2,-1,-1,0,-1,-1,-1,-14
83656459454,-1,-6,-4,0,-1,-1,-3,5
83656459454,-13,-8,-1,-1,-2,-2,-3,-1
83656461229,-2,1,-4,-2,-2,-1,-2,-5
83656461229,-11,-6,-2,-3,-2,-1,-2,-11
83656482143,-6,-1,-2,0,0,-1,2,3
83656482143,-7,-9,-3,-3,-3,-2,-1,-8
83656483477,-3,-3,-1,-3,-1,-3,-1,2
83656483477,4,-3,-1,-1,0,-1,-2,-8
83656495611,-7,25,-1,-1,1,-1,-3,-5
83656495611,-15,-11,-4,-1,-2,-2,-2,-17
83656504530,3,2,-1,-2,0,-1,1,0
83656504530,-3,-5,-1,0,-2,-1,-1,-4
