timestamp,emg1,emg2,emg3,emg4,emg5,emg6,emg7,emg8
116665204506,-3,-17,-6,-26,-7,-1,-2,-2
116665204506,0,-1,-1,-4,0,0,0,-1
116665206650,-3,0,-1,-2,-1,-2,-1,-3
116665206650,-6,-4,-1,8,2,-1,-1,-1
116665207448,14,12,5,23,2,1,0,0
116665207448,0,0,2,3,-1,0,-1,0
116665208710,-2,-5,-4,-6,-4,-1,-1,-1
116665208710,0,2,0,-3,1,-1,0,-1
116665217407,-5,0,-4,-9,-1,-1,-1,-1
116665217407,-1,-1,0,-4,-2,-2,-1,-1
116665224468,-18,4,0,0,-2,-1,0,-1
116665224468,-2,0,1,-1,-1,-1,-2,1
116665232459,-3,-1,-1,-8,0,-1,-1,-2
116665232459,5,0,0,5,1,0,0,0
116665247962,2,-2,0,-3,-2,0,1,-1
116665247962,0,-2,-4,-5,-1,-1,1,-1
116665261382,-8,-15,-1,-12,-1,-2,-1,-2
116665261382,-5,-1,-8,12,1,-1,-4,-3
116665270008,3,1,-2,9,0,-3,-3,-1
116665270008,-3,-7,-2,-6,-3,0,-2,-2
116665277807,3,4,2,-2,-1,0,0,1
116665277807,-14,-6,-3,-11,-4,-1,-3,-4
116665292720,4,-4,0,-7,3,1,-1,1
116665292720,-3,2,-2,6,-7,-3,-2,-1
116665294395,-4,3,1,16,2,0,-2,-2
116665294395,8,-7,-5,-5,-1,-1,-1,-2
116665339601,-2,11,-1,3,0,-1,0,-2
116665339601,0,-9,1,18,3,-1,-2,0
116665340383,0,-1,-2,-8,-5,-2,0,-2
116665340383,-1,-1,-2,4,-1,-1,-2,-2
116665341196,-1,1,-1,-13,-1,0,-1,-2
116665341196,-2,0,-1,-13,-4,-1,0,-1
116665344325,-1,-1,1,3,0,-2,-2,-1
116665344325,0,1,4,0,1,0,-1,0
116665351105,0,-6,-1,7,1,-2,-2,-1
116665351105,-1,0,-2,-3,-4,-1,-3,0
116665358568,1,10,-1,-21,-5,-1,-1,1
116665358568,0,-1,0,5,1,0,2,0
116665367570,-2,-4,-2,-11,1,0,0,-1
116665367570,-1,2,-1,5,1,-2,-1,0
116665381092,-14,-5,-4,9,2,-2,-4,-3
116665381092,-3,-15,-9,-21,-5,-1,-1,1
116665390159,-2,-2,-2,3,-2,-3,0,-2
116665390159,3,1,0,-6,-2,1,0,-2
116665412446,-2,-9,-2,-5,-3,-2,-1,-1
116665412446,11,-2,-1,8,0,-1,0,0
116665414060,3,-2,-3,-29,-4,-2,-1,1
116665414060,-3,-1,1,-5,-1,0,1,-1
116665426763,1,2,1,10,1,0,-3,0
116665426763,-1,-1,-2,4,-2,-1,-1,-3
116665433791,0,2,1,3,-1,-1,-3,-1
116665433791,1,4,2,-8,-1,-2,-2,-1
116665450185,4,-2,-3,9,0,0,1,-1
116665450185,-2,1,0,-17,-4,-2,-1,-2
116665451655,-3,-5,0,10,2,1,-1,-1
116665451655,-5,-2,-2,-13,-3,-2,-2,-1
116665472689,0,-3,3,4,0,-1,0,-1
116665472689,-5,8,-1,4,1,-1,-3,-3
116665474171,-1,-10,0,9,-1,0,-2,-1
116665474171,0,-1,1,10,-1,-1,1,0
116665487004,3,2,-3,12,-2,-2,1,-2
116665487004,-4,5,4,10,1,1,0,-1
116665493897,0,-1,-3,22,-6,0,-1,0
116665493897,-1,-4,-5,0,6,-1,-3,-3
116665510189,-1,-5,2,9,2,0,0,1
116665510189,-3,-4,-7,-10,-8,-3,-3,-1
116665511626,2,2,5,7,1,0,1,2
116665511626,8,-11,-11,-35,-21,-4,-3,0
116665532697,5,10,-1,-18,4,0,1,1
116665532697,0,-3,1,28,4,1,-2,-2
116665534177,-5,-2,-3,-68,-5,-1,-2,-2
116665534177,-2,2,6,25,5,1,0,-2
116665547070,1,-2,3,8,1,-2,-1,-2
116665547070,-3,-4,-10,-61,-11,-4,-3,-3
116665553659,0,-1,3,28,4,0,-1,-1
116665553659,-6,1,-1,24,5,0,0,-1
116665570170,-9,-5,-4,-70,-7,-1,-3,-1
116665570170,13,4,5,47,0,2,1,1
116665571622,-4,0,-3,56,-6,-2,-2,-3
116665571622,-3,-2,-5,-1,7,0,-1,-2
116665592729,-2,-5,-1,4,6,0,1,-2
116665592729,-2,2,0,-17,0,-3,-3,-2
116665594079,0,1,-3,-22,-1,-1,0,-1
116665594079,-2,-3,-4,-12,-7,-2,-3,-2
116665607057,1,0,-1,49,3,-3,-1,-1
116665607057,-4,-3,2,17,6,1,2,1
116665613881,-3,-1,-3,-28,-8,-3,-2,-3
116665613881,-4,-2,-1,5,-6,-1,-2,-4
116665630708,-1,-2,-4,-52,-9,-1,-1,-2
116665630708,-2,-3,3,13,2,-1,0,-2
116665632119,-1,-3,-3,65,7,0,0,-1
116665632119,1,3,3,8,6,2,0,2
116665652659,-1,-1,-3,19,-9,1,-3,-2
116665652659,-2,11,0,-22,-6,-16,-2,-1
116665654078,-1,-5,0,2,7,4,-1,1
116665654078,-1,0,-6,-46,-11,0,0,0
116665666361,0,-1,4,24,8,8,-1,-1
116665666361,-4,-1,-3,7,-2,3,2,0
116665675177,-1,0,-6,-30,-8,-8,-1,-1
116665675177,-4,-1,-3,9,1,-3,-4,-1
116665690234,-3,-3,3,19,1,-2,-3,-1
116665690234,-2,-1,-4,-31,-7,4,-1,-4
116665691639,-12,-4,0,30,4,-1,-3,-5
116665691639,1,4,2,17,-7,-10,1,0
116665712729,0,-1,-5,-2,2,6,-4,-1
116665712729,-13,-5,-2,13,5,-1,-2,0
116665714144,5,2,1,-25,-4,1,1,2
116665714144,-5,-23,-4,18,-1,-5,2,-4
116665726264,-3,-1,-2,-9,-8,-5,1,-1
116665726264,-1,-4,-3,-31,0,3,-3,0
116665735148,2,6,1,-14,-2,0,-5,-8
116665735148,-2,2,-3,3,4,11,-8,-4
116665757483,4,-1,-2,-4,-3,-30,10,9
116665757483,1,-6,-1,0,3,18,-3,-4
116665759085,2,2,1,-2,-7,-20,3,5
116665759085,0,5,0,-17,4,-2,-7,-3
116665772598,-2,-3,-2,-4,-1,20,7,-2
116665772598,2,4,0,12,-3,7,0,-1
116665774091,1,-1,-4,-50,0,-6,-2,-3
116665774091,1,9,1,-13,-7,-3,1,-2
116665786313,5,10,3,15,1,-14,-11,-3
116665786313,-15,-8,-5,6,-4,0,2,-4
116665795226,2,3,-4,-30,-5,6,3,0
116665795226,2,2,0,4,3,-7,-10,-10
116665810102,-3,4,-3,-7,2,-8,6,10
116665810102,2,-5,2,13,-4,-1,2,8
116665811605,-9,-8,-5,7,-1,6,-15,-19
116665811605,1,3,2,-2,-1,-5,11,10
116665832690,-2,-10,-2,-3,-1,4,-8,-6
116665832690,5,-1,1,7,0,-18,8,2
116665834117,-3,-3,-1,14,3,37,4,0
116665834117,0,-1,1,-8,1,-15,2,5
116665846328,0,-2,-1,1,-6,-6,-12,-14
116665846328,4,0,-2,-1,3,-6,0,5
116665855236,0,1,-2,-12,-6,6,-2,0
116665855236,-2,-3,-3,10,0,-3,-13,-6
116665870222,-3,-4,-1,1,6,2,6,4
116665870222,1,16,0,-12,-3,7,-1,-13
116665871685,4,-2,1,18,-2,-32,5,14
116665871685,-4,-3,-1,26,9,27,-11,-10
116665893309,2,-1,0,-16,-5,-2,9,3
116665893309,8,0,-3,-4,-1,-13,-12,-5
116665894797,3,5,3,-2,0,10,3,9
116665894797,-1,-2,2,25,-8,-11,8,2
116665906142,-4,-1,-5,-14,-4,-11,-10,-10
116665906142,1,-4,3,-9,1,19,-4,-11
116665915229,-5,0,-6,-7,-14,-35,-24,3
116665915229,-6,-5,-4,-13,3,-3,4,1
116665929358,-8,2,0,27,13,30,0,1
116665929358,17,5,7,11,-2,-7,20,2
116665936289,-4,-14,-2,7,4,7,6,-1
116665936289,3,3,3,-31,-18,-18,1,9
116665952570,-3,-1,1,6,0,-12,-24,-24
116665952570,-6,1,-4,0,2,12,18,23
116665954106,-3,3,-1,13,2,-1,3,-17
116665954106,-14,-4,-2,-48,-9,-6,5,3
116665966251,1,-4,-1,-19,-7,18,-7,-20
116665966251,-8,-8,-3,30,5,-9,-16,-1
116665975076,3,1,2,16,6,4,-10,-10
116665975076,2,-4,-7,-65,-5,-4,13,9
116665989265,-1,0,0,5,-6,11,2,6
116665989265,-10,2,2,-2,-1,-4,-8,-10
116665996061,-2,-7,2,17,3,2,6,-1
116665996061,-1,8,1,11,1,13,4,-2
116666012439,0,-2,-2,10,-12,-25,-3,5
116666012439,1,-4,-6,-12,-6,-8,-9,-2
116666014033,-1,1,2,-8,-2,0,-3,-6
116666014033,2,0,0,20,25,2,0,-10
116666026108,0,-5,-3,-13,-3,13,5,-2
116666026108,-4,-7,-4,9,2,5,-5,8
116666035210,-3,2,-3,-34,-13,-9,1,-3
116666035210,4,-2,-4,18,-10,5,2,3
116666049341,-17,-2,-2,-4,2,13,1,-1
116666049341,15,-1,-1,-4,-1,-52,-17,-6
116666056106,6,2,3,16,13,36,27,27
116666056106,4,3,3,15,6,42,16,-12
116666072528,3,-2,0,-13,3,-22,-8,10
116666072528,-11,-10,-12,10,-3,-4,-14,-17
116666074081,-4,1,1,-3,-14,-15,-16,-7
116666074081,2,-1,-3,-11,-4,7,6,-1
116666086105,1,-3,-5,29,10,-2,10,11
116666086105,-6,-5,-2,-25,-12,22,-46,-21
116666095364,-12,4,1,30,2,-16,26,19
116666095364,5,2,9,-3,-2,-34,-10,-4
116666109271,5,2,-8,16,-6,4,9,5
116666109271,7,3,11,-7,4,-1,10,19
116666116118,-3,-3,0,11,13,30,-24,-25
116666116118,-4,-6,-7,-19,-10,-6,3,21
116666132542,1,2,2,5,-7,-21,10,-1
116666132542,-6,-1,1,-8,-7,-14,8,2
116666134131,6,-4,-13,-2,-12,25,-8,-2
116666134131,0,2,3,26,20,-11,-10,-1
116666155210,3,-4,0,-23,-8,10,-12,2
116666155210,-9,4,0,-43,-5,-8,19,-2
116666156609,2,-2,-8,0,12,11,-5,-20
116666156609,2,-2,-2,-5,-16,-1,5,15
116666169341,-2,-2,-1,-22,1,-2,-19,-14
116666169341,1,1,7,69,5,0,29,12
116666183644,2,-1,-3,-72,-14,-23,-11,4
116666183644,-7,-5,-3,29,-4,7,-24,-18
116666192463,-3,2,4,16,3,-12,11,12
116666192463,1,0,-5,-7,-5,10,4,1
116666194092,0,0,0,-8,11,7,0,4
116666194092,-1,1,-2,5,6,-11,-10,-13
116666215135,0,0,4,-22,-15,13,14,9
116666215135,-3,-6,-8,-8,1,-23,0,-2
116666216606,-1,-1,2,-9,-17,-24,-12,-11
116666216606,6,3,6,34,15,20,17,23
116666229599,-4,-4,-3,-1,-7,-8,-15,-15
116666229599,-1,-3,-9,-30,4,34,-3,1
116666236178,-1,1,7,62,-3,-48,-6,-2
116666236178,4,-25,-6,-40,-6,2,5,-12
116666252574,4,3,-2,17,14,22,22,17
116666252574,-2,-3,-10,-21,-7,-1,0,11
116666254133,0,-1,-2,-8,0,-6,-10,-2
116666254133,-3,5,-6,7,0,-3,-7,-6
116666275190,-6,-5,-8,-14,-8,-12,-25,-23
116666275190,1,-1,5,55,12,-4,8,-1
116666276562,-4,-2,-3,-8,1,8,23,27
116666276562,-2,5,-7,-2,-10,-1,-19,-14
116666288731,5,4,-6,-27,4,-11,7,15
116666288731,-1,0,-1,-4,-3,-23,-47,-2
116666297804,-1,-4,-1,5,-4,24,11,-17
116666297804,-5,0,0,-23,5,4,-8,-11
116666311330,0,-6,-3,10,-7,30,-13,-13
116666311330,-5,0,3,1,7,-18,22,-14
116666320235,5,-2,-6,-3,-7,-19,-3,7
116666320235,-4,-8,-11,-8,-5,6,-19,13
116666335135,-3,5,5,13,11,-5,3,20
116666335135,-11,-11,0,-9,-1,14,7,-1
116666336630,15,-8,0,-7,-8,27,-1,-26
116666336630,-3,3,-2,8,-5,-49,-25,-8
116666357668,-3,-4,1,-5,2,3,31,3
116666357668,2,2,2,-2,-4,12,-26,34
116666359140,16,2,3,-10,4,-8,23,-3
116666359140,-4,-1,2,-1,-7,4,-1,23
116666371270,-15,-1,2,2,3,-10,4,-68
116666371270,5,3,0,11,-3,21,-3,2
116666380240,21,4,3,2,3,-19,6,18
116666380240,-9,2,2,-3,-11,-25,-18,-11
116666395188,-15,11,9,7,1,-1,-2,-43
116666395188,8,-3,1,4,18,38,39,8
116666396623,9,7,-2,-11,-1,0,-9,87
116666396623,0,-4,-1,17,-1,-2,28,-6
116666417649,-4,4,2,5,-2,5,-31,11
116666417649,2,-6,-11,-24,-23,-35,-23,-26
116666419105,-20,-1,2,3,18,22,33,-52
116666419105,16,0,-3,-12,-3,-5,3,23
116666431284,2,-6,-7,-14,-10,-13,-9,30
116666431284,-9,0,2,4,-3,3,-2,-35
116666440175,-24,-4,-13,19,-10,-30,-45,-59
116666440175,-3,3,6,12,12,24,48,44
116666462615,9,-8,-10,-17,-10,-41,-8,-24
116666462615,-1,-10,-1,-1,8,31,38,-11
116666464121,0,7,-2,-12,6,12,1,-37
116666464121,-21,-9,-1,-1,1,-2,-21,-22
116666477701,-4,3,4,8,11,4,-10,12
116666477701,4,3,1,-4,-3,2,16,13
116666479116,-6,-7,-3,37,-1,13,1,11
116666479116,-4,-2,-4,-56,-15,-31,-19,-44
116666501441,-3,0,1,-22,2,8,-5,-38
116666501441,6,-6,-6,0,-7,-18,-41,9
116666502987,-5,1,1,5,3,17,57,35
116666502987,0,1,2,36,10,7,15,6
116666514599,1,-1,-7,-14,-15,-24,-4,-18
116666514599,-5,4,0,-9,1,14,-5,-14
116666521339,-10,-7,-6,-7,-3,-7,-33,5
116666521339,-13,-1,-1,2,4,1,-10,-14
116666537672,-8,-16,-2,-3,-9,-8,-1,-39
116666537672,-5,2,-3,-6,-1,-5,9,7
116666539128,0,2,4,-11,-5,33,-4,-7
116666539128,0,4,5,2,4,-21,-5,-12
116666551125,3,0,1,9,2,9,-14,18
116666551125,-2,2,-3,-8,-5,-10,1,-18
116666560261,-13,-6,-2,-13,-5,-3,-4,-26
116666560261,8,2,3,-5,-13,-2,-30,-5
116666574338,8,-1,-2,9,11,12,32,32
116666574338,0,2,7,10,6,-9,1,-13
116666588778,4,1,-2,8,-2,-29,4,27
116666588778,1,-2,-2,2,4,29,-8,4
116666597701,-4,1,-3,23,-3,8,-9,22
116666597701,3,-6,-5,-35,-16,-27,2,-4
116666599154,-5,-2,3,19,12,2,-9,1
116666599154,4,-10,-10,2,-7,3,25,-29
116666611269,4,2,1,1,-4,-4,16,32
116666611269,-8,-1,-1,-2,4,14,12,6
116666620144,3,0,-3,-6,-6,-28,-17,28
116666620144,6,5,6,0,1,11,15,2
116666635126,4,-3,-5,0,6,-8,-8,7
116666635126,-1,-1,-1,15,5,3,-3,10
116666636596,-16,-6,-1,-18,-8,-6,-18,-15
116666636596,6,4,-1,5,7,7,-4,14
116666657456,-3,-1,0,-10,-3,4,5,8
116666657456,0,1,-2,12,-5,11,-3,12
116666659030,-3,2,6,2,2,-15,1,3
116666659030,-1,0,-1,-20,1,25,6,1
116666679929,-2,-2,-2,22,1,-16,-17,-14
116666679929,2,3,2,-1,-2,-5,-9,6
116666681551,7,-2,-2,-9,-7,4,10,31
116666681551,-3,4,-6,-8,1,3,8,-5
116666694942,8,-2,1,-12,-4,0,-9,6
116666694942,-6,0,1,10,0,-10,-9,-3
116666696544,1,-3,-4,8,1,0,0,-7
116666696544,1,1,0,-7,-8,-8,-5,1
116666717442,-7,-4,-2,0,-3,-4,-5,0
116666717442,-2,0,-3,1,2,7,4,5
116666719083,4,2,2,-8,6,0,5,-4
116666719083,-2,-4,-4,6,3,-9,-2,-4
116666740001,1,0,-3,-6,4,16,7,-1
116666740001,-2,-2,3,13,-6,-7,-4,-3
116666741544,-1,0,-3,-31,-5,-5,-12,-15
116666741544,0,-2,-1,21,-4,-1,3,16
116666754930,0,-2,0,-4,-5,-3,3,2
116666754930,-4,-2,-2,18,-1,-8,-7,-13
116666756564,-1,-1,-1,-24,-5,-4,-6,-2
116666756564,-3,-2,1,6,-3,-10,-5,1
116666777455,-1,0,4,-14,-3,12,6,0
116666777455,-1,-1,0,2,8,5,-3,-10
116666779051,0,-2,0,11,-2,-4,5,-3
116666779051,-1,-3,-4,-13,-2,-3,-6,1
116666800015,2,-1,1,-9,-4,2,7,3
116666800015,-4,-1,0,3,-5,-10,-6,-8
116666801559,-1,-3,-3,1,-1,3,-6,-4
116666801559,1,2,1,5,6,0,0,-3
116666813571,-3,-1,-1,15,-2,-1,-1,0
116666813571,-2,-1,-3,-23,-8,-8,-5,2
116666822703,-1,0,-2,1,3,-2,0,-5
116666822703,-2,-1,1,-3,-1,3,-7,-5
116666837434,0,0,-1,-6,1,-2,3,2
116666837434,-1,-2,-3,0,-1,-4,-6,1
116666839065,-1,-1,3,-3,-4,15,5,-7
116666839065,0,-1,1,0,-4,-11,-7,7
116666859947,-3,6,1,8,3,-10,-6,5
116666859947,1,-1,0,-8,-5,1,-4,8
116666861590,1,0,-1,2,6,8,1,4
116666861590,-2,-3,0,0,-2,6,7,-1
116666873552,-1,-2,-4,-2,-2,-6,-3,2
116666873552,-3,-1,-4,-10,-8,-2,-3,3
116666882686,-3,-2,-4,-3,2,-11,-3,-2
116666882686,0,2,2,3,3,0,4,-1
116666897469,-2,-6,-4,-2,-4,5,0,-3
116666897469,-3,-2,-1,-8,-7,-4,-7,-8
116666899069,-2,-3,-4,2,-4,-15,-2,-4
116666899069,-3,-1,-3,-6,0,12,2,-3
116666919981,-1,-1,1,-7,-1,-3,-3,-7
116666919981,0,-2,1,11,-2,15,6,-5
116666921552,-1,2,0,0,-4,-29,-8,-3
116666921552,0,-2,1,-4,-1,-1,-5,4
116666933600,-2,-2,0,-3,-3,1,4,-12
116666933600,0,0,0,-9,-2,-10,-2,-2
116666942573,4,-1,2,4,9,30,17,8
116666942573,1,0,3,4,2,-13,-5,-1
116666957478,1,0,1,-13,0,19,2,-6
116666957478,0,-1,2,10,-3,-26,4,4
116666959038,-2,-1,-3,0,-3,8,-9,-5
116666959038,-3,-1,-4,0,-5,-5,-7,-6
116666979946,-2,-2,-3,3,0,1,-7,9
116666979946,0,0,-6,-10,2,-3,-5,0
116666981579,-3,-2,-2,-1,-4,15,0,1
116666981579,4,-1,-4,-2,-2,-7,0,12
116666993643,-2,-3,-5,5,7,-1,-3,6
116666993643,-4,2,-3,-5,2,16,4,2
116667002578,-1,-1,-2,6,-9,-25,-8,-2
116667002578,-4,-2,-2,-3,-5,7,0,-20
116667017859,3,-2,2,6,0,22,9,8
116667017859,-1,0,-3,-3,7,-43,-8,4
116667019514,-1,2,1,-1,-3,8,-1,-11
116667019514,-3,-2,0,-1,-1,6,4,-1
116667039979,-2,-2,-3,1,-4,-10,-1,-6
116667039979,-2,-2,-2,-6,-1,18,-7,-9
116667041558,-3,-4,-2,-2,-4,-18,-8,1
116667041558,0,-2,-3,2,-4,-9,3,-2
116667053573,0,-1,-3,4,10,13,-3,-2
116667053573,-1,-3,-3,-6,-1,4,7,3
116667062590,-1,-2,-3,3,-2,-13,-7,-2
116667062590,-1,-4,-2,3,-7,-2,1,2
116667077552,-1,0,0,-7,6,8,1,-3
116667077552,4,1,3,15,7,9,-2,-3
116667079054,1,-3,3,-14,-6,-7,17,9
116667079054,1,-1,4,13,5,10,1,9
116667099940,-1,-2,-3,9,-7,-20,-6,1
116667099940,-4,0,1,-14,0,11,-1,-7
116667101628,-2,0,-1,12,0,6,-8,-3
116667101628,-2,-1,-1,-11,-4,-27,-10,-7
116667113561,-3,-1,-1,-11,-5,-18,-3,1
116667113561,1,1,0,-29,0,12,0,-1
116667122601,-2,-1,-3,2,-2,-3,-2,-5
116667122601,0,1,3,-14,4,14,4,-2
116667137451,-1,-1,-4,-1,-5,-3,-3,-3
116667137451,-5,-4,0,1,0,-5,2,-1
116667139017,-3,-2,-2,-10,-7,-4,-6,1
116667139017,-2,0,-2,15,2,1,0,-4
116667159979,-4,3,2,-29,-2,-8,-3,0
116667159979,-1,-1,0,55,2,0,1,1
116667161542,1,0,-3,-25,10,5,4,-1
116667161542,1,-3,-6,-2,-8,-2,-4,-4
116667173599,2,1,1,16,1,-13,-6,-4
116667173599,0,-3,-6,-32,-10,7,3,1
116667182655,-1,-1,-3,39,3,1,0,-6
116667182655,-1,-1,-1,-8,1,7,4,4
116667197478,-1,1,-1,-12,-4,-2,-1,-2
116667197478,0,-3,-2,-8,-3,-12,-5,-6
116667199078,-15,-2,-4,-9,-6,15,-4,-5
116667199078,-5,-2,2,12,-1,-25,-3,0
116667220414,-3,-3,1,23,7,7,0,-1
116667220414,1,13,0,-36,-10,-1,-1,-1
116667222017,3,-2,4,49,18,5,2,2
116667222017,-1,-3,-4,-40,-18,-5,-4,-5
116667233594,-3,-3,0,0,-4,-1,0,-3
116667233594,-9,-2,-1,50,6,-6,-2,-3
116667242563,11,2,0,-21,-6,-2,-3,-5
116667242563,0,0,-3,-6,9,3,-2,0
116667257436,1,-1,0,11,2,-4,4,-1
116667257436,4,-1,-1,-36,-9,4,0,5
116667259085,-3,-4,-3,26,-7,-8,-5,5
116667259085,-20,-11,-5,-32,-3,-1,-2,-6
116667279951,5,5,-4,10,-10,-3,2,7
116667279951,-2,-7,-1,-10,6,-1,-9,-10
116667281592,4,26,5,-13,-1,0,6,18
116667281592,6,3,1,38,4,5,6,3
116667301760,-3,-2,-1,-5,-1,-2,-4,-6
116667301760,0,-6,-2,-11,-10,-6,3,-2
116667302510,4,-1,2,7,0,-3,-7,-11
116667302510,-4,-2,-1,6,5,9,5,-3
116667316780,29,13,4,-32,-7,-4,4,5
116667316780,17,0,0,23,5,0,-2,1
116667317523,-1,-2,-2,-24,-3,1,1,-1
116667317523,6,13,0,-11,1,3,0,3
116667339348,-12,-12,-4,-1,0,-2,-5,-11
116667339348,-2,0,-2,-8,-5,-5,-6,3
116667340014,0,-7,0,-11,-2,0,2,-1
116667340014,-5,-5,-3,8,-3,-2,-6,-6
116667361721,-4,2,-1,-6,-2,-2,5,8
116667361721,-3,0,-1,0,0,0,0,-1
116667362530,-6,-9,-1,-15,0,1,-2,-1
116667362530,2,4,-1,6,-2,1,-4,-5
116667376720,-5,-6,-4,4,-3,-1,-2,1
116667376720,-3,-3,1,13,5,-1,0,7
116667377519,-1,1,-1,0,1,-1,0,-7
116667377519,9,-21,-4,1,-4,0,-2,3
116667400725,-18,1,0,9,-1,-1,-2,-3
116667400725,-8,-2,1,10,6,0,-2,-5
116667401500,-8,-16,-7,-15,-13,-4,-4,-2
116667401500,6,4,0,8,5,-1,-2,-2
116667421944,-2,-5,0,-13,-2,0,3,0
116667421944,-2,-3,-3,22,-2,-2,2,-3
116667422584,-3,0,3,2,2,0,-3,1
116667422584,-8,0,-3,-8,-5,-2,-4,-3
116667436903,6,-26,-6,-4,3,-2,-4,-2
116667436903,9,20,5,-10,-4,0,3,2
116667437642,3,-1,0,-9,1,1,-1,1
116667437642,0,5,2,17,0,-2,-2,-2
116667459337,6,12,3,11,4,0,0,-1
116667459337,0,-10,-6,-11,-2,0,1,0
116667460297,-1,7,-7,-31,-6,-2,0,-4
116667460297,-8,-8,2,-3,-2,-1,-2,2
116667481872,-6,1,1,-1,-1,1,-1,-5
116667481872,-2,27,1,-6,3,1,-2,-6
116667482670,-2,-5,3,18,1,1,1,0
116667482670,8,10,2,-2,-2,-1,0,0
116667496999,-3,-2,-2,-14,-4,-2,-2,-6
116667496999,-20,-8,0,14,0,-1,-4,-6
116667497634,-2,-2,-3,-2,0,-2,-1,-2
116667497634,-1,-4,-3,-31,-3,-2,-1,2
116667519319,-3,1,0,38,-1,-2,-4,-4
116667519319,0,-10,-1,6,0,-3,-1,0
116667520164,2,5,0,-6,0,-2,-2,2
116667520164,-11,-22,-2,-6,-3,-1,-4,-6
116667550218,2,1,2,2,1,1,2,4
116667550218,0,-1,-6,-36,-8,0,0,-1
116667550813,-1,2,-1,9,0,-2,-3,-6
116667550813,9,14,0,-5,-2,0,1,7
116667556873,-5,-11,1,0,1,-1,-1,-1
116667556873,-4,0,1,13,4,1,0,0
116667557690,0,-3,0,8,-4,0,-1,-2
116667557690,-5,0,-3,-5,-3,-1,0,-3
116667579521,3,6,1,-3,3,-1,0,-3
116667579521,4,0,-1,-3,-3,-2,0,-3
116667580090,-6,-20,-4,-9,-2,-3,-2,-4
116667580090,-3,2,2,17,4,-1,0,-2
116667601811,-3,1,-7,-32,-8,-1,-1,-1
116667601811,1,-5,-1,15,1,-2,0,1
116667602583,1,3,-1,-2,-1,1,0,1
116667602583,-2,11,-1,1,0,-1,-2,3
116667616966,-8,-1,-1,-7,0,-1,-3,-16
116667616966,-2,-12,-5,-7,-5,-2,-2,1
116667617557,-1,-2,0,-5,-1,0,-1,-4
116667617557,-34,-8,-4,3,0,-4,-4,-2
116667639543,3,7,0,-13,-1,0,1,-8
116667639543,-3,-8,-2,8,0,-3,-4,3
116667640096,-6,1,-1,13,0,-3,0,2
116667640096,-1,-19,-3,-9,0,3,1,-9
116667661976,0,-1,-2,8,3,0,0,36
116667661976,1,0,1,6,0,0,0,-3
116667662613,-1,-7,-2,-4,0,-1,0,2
116667662613,12,2,1,4,-1,1,1,4
116667676882,-1,-3,0,-4,-5,-1,-4,-7
116667676882,2,-4,-4,-5,0,0,2,0
116667677642,-8,3,-1,11,4,-1,-4,25
116667677642,5,3,0,-5,-1,-1,0,-17
116667699448,-10,-13,0,6,-1,-3,-2,-1
116667699448,11,-8,-6,4,-5,-4,-2,8
116667700122,6,-1,3,-5,-2,-1,-3,-21
116667700122,-4,-3,-2,-14,-4,-1,2,23
116667721860,10,6,-1,13,0,-2,-1,3
116667721860,0,1,2,-4,1,0,-2,-19
116667722615,10,0,1,-2,-1,0,2,12
116667722615,10,1,-1,-4,-2,0,-1,-4
116667737024,-3,4,-1,-3,-3,-2,-1,-14
116667737024,-15,-1,0,9,-1,-1,-3,-37
116667737642,0,3,1,11,-2,-1,0,-1
116667737642,-3,5,3,-1,1,-1,-4,-5
116667759536,6,-1,-1,-5,0,-1,-1,10
116667759536,2,-3,1,-7,-5,-1,1,13
116667760135,-6,-3,-3,-2,3,-1,-2,-7
116667760135,3,-2,-1,4,-1,-2,-3,-21
116667781802,-4,-1,-1,-2,1,-1,-2,-2
116667781802,0,-1,-2,-8,-3,-1,1,7
116667782627,18,9,-2,-3,-2,-2,-3,42
116667782627,14,8,6,3,1,3,5,-2
116667796805,-1,-2,-1,4,2,0,-4,-8
116667796805,-14,0,-4,-15,-4,-1,-2,24
116667797734,0,2,0,3,-4,-3,-1,-8
116667797734,-3,-6,-4,5,-1,-2,-4,-1
116667827702,2,1,-2,-16,-8,-1,0,15
116667827702,0,-3,1,13,4,0,1,-1
116667828273,-10,-6,-3,-5,2,0,-2,-11
116667828273,-3,-4,-2,12,-1,-1,-3,3
116667849960,-6,-23,-3,-1,0,-2,-2,-8
116667849960,-1,1,-3,-6,0,-2,-2,-2
116667850871,-1,-2,-4,-10,-3,0,1,-10
116667850871,-4,-2,-3,-8,-1,-1,-2,1
116667857529,1,5,0,-3,-2,2,2,5
116667857529,9,-4,-3,4,-2,-3,-3,-5
116667858228,-5,4,2,4,2,1,0,-12
116667858228,6,14,0,-1,1,-1,-2,33
116667879461,-7,-1,-2,-1,-5,-2,0,-6
116667879461,12,6,5,-1,2,0,0,-8
116667880065,-3,-5,-3,-11,-3,-2,-2,0
116667880065,1,5,-2,-1,-2,-3,-2,-13
116667901840,-1,4,0,6,5,-1,-1,3
116667901840,-6,-1,-2,-8,-2,-1,1,17
116667902624,1,0,-2,-3,-4,-1,0,-25
116667902624,-2,-2,-3,-4,0,-1,2,-1
116667916950,14,-3,-3,7,0,-1,-1,-1
116667916950,-6,3,0,-7,-1,1,0,-3
116667917616,-1,-1,-1,8,-1,-2,-1,4
116667917616,0,-7,-3,-2,-1,-2,-2,0
116667939291,-2,0,-1,5,-2,-1,-1,-12
116667939291,-4,-2,1,-8,-1,0,-2,-6
116667940066,-4,-3,-2,-2,-4,-2,0,-3
116667940066,-4,-5,0,-4,-1,-2,0,-13
116667961792,-1,0,-3,-16,-3,-2,-2,13
116667961792,-1,1,-1,10,0,-2,-1,-3
116667962506,-5,-24,-3,-3,-3,1,-1,1
116667962506,-1,-3,1,2,0,-2,-3,-1
116667976751,-1,9,2,7,0,-2,-1,-5
116667976751,-1,1,-1,-15,-1,-1,-2,-3
116667977569,-10,1,-4,-8,-1,-4,-2,-2
116667977569,-3,0,-3,4,-3,-1,-3,0
116667999287,-7,-9,-1,8,0,-2,-2,-5
116667999287,-1,-1,1,2,-1,-1,-2,-2
116668000065,-7,1,-3,-4,0,-1,-2,-2
116668000065,-4,-5,0,-7,-2,0,1,3
116668021707,7,9,0,2,0,-1,0,26
116668021707,3,-3,1,1,0,1,0,-22
116668022570,3,2,-1,7,-1,-1,-2,2
116668022570,3,-3,0,-5,-1,1,-1,1
116668038257,-20,1,-1,-3,1,-2,0,-2
116668038257,-4,-3,-1,8,-5,-2,-2,-1
116668039051,2,11,2,-3,3,-2,0,4
116668039051,2,-1,-3,-1,-2,0,2,0
116668059218,1,1,-1,1,1,-1,-1,-17
116668059218,-3,-1,0,0,-1,-1,-1,-1
116668060004,-4,6,-2,-11,-1,1,-1,-5
116668060004,-18,-12,-3,29,-1,-4,-4,2
116668081710,0,-1,0,-4,-1,-2,0,-11
116668081710,-1,1,0,-2,-1,-1,0,4
116668082559,7,-3,1,-6,-1,-1,-1,3
116668082559,-5,-3,-2,-10,-2,-2,-2,-8
116668096730,4,-5,-3,4,-2,-1,-3,-5
116668096730,-2,1,-1,2,0,-1,0,3
116668097522,-9,-29,-4,-3,-2,-2,-1,0
116668097522,-1,1,-1,-3,0,0,-2,-3
116668127416,5,3,0,-5,0,0,1,28
116668127416,12,-6,-2,1,-3,0,2,-9
116668128216,6,10,4,3,1,1,0,-1
116668128216,1,1,-1,-5,-1,0,1,1
116668141743,0,-4,-1,1,-3,-2,-3,-1
116668141743,-3,0,-1,4,3,-2,-2,3
116668142533,-1,0,-2,0,-2,-2,-1,0
116668142533,4,1,1,-4,0,-2,0,-1
116668156766,0,2,-1,-5,-3,0,0,-8
116668156766,-5,-4,0,-5,-2,-2,-2,2
116668157540,-3,2,0,5,-1,-1,-2,-5
116668157540,-4,-3,-2,-3,-1,-1,-1,2
116668179267,-3,-4,-1,-2,-2,0,-1,-9
116668179267,-3,0,-2,3,-1,-1,-1,0
116668179990,1,-1,-1,0,2,-1,0,5
116668179990,0,-1,-2,-5,-7,-3,-1,-4
116668202439,-6,-4,-1,0,0,-1,-1,-6
116668202439,0,14,-1,-3,-2,0,-5,-27
116668203223,20,6,0,-1,0,0,3,23
116668203223,1,0,1,6,1,0,-1,0
116668216072,-6,-1,-2,-1,0,-2,-1,-8
116668216072,-2,0,-2,-9,-3,-2,0,2
116668224295,-7,-1,-1,7,0,-2,-2,-10
116668224295,4,-2,0,-3,0,1,-1,20
116668239203,-18,3,0,5,0,1,1,-25
116668239203,-4,-7,-2,-3,2,-2,0,8
116668240001,-4,-2,-3,-7,-4,-2,-2,-2
116668240001,3,-1,0,0,-1,-1,0,7
116668262491,2,-3,-3,-2,0,-1,-2,2
116668262491,-2,-4,-1,-9,-4,0,1,5
116668263220,-5,0,2,18,1,1,-1,-9
116668263220,-5,-2,-1,-5,-1,-1,-2,-15
116668276097,2,3,-3,-4,-2,1,0,5
116668276097,-4,-2,-1,3,2,1,-4,0
116668284246,1,0,-1,-8,-2,-1,-3,0
116668284246,-3,-4,-3,3,-1,0,1,-4
116668299308,5,0,3,-3,-2,0,-1,1
116668299308,-1,-4,-1,0,0,0,0,8
116668300091,-3,-2,-2,-1,0,0,-1,-3
116668300091,-2,4,-1,-4,-1,-1,-2,-7
116668322453,0,-2,-2,-2,-3,-1,1,-1
116668322453,-1,-3,-2,4,-1,-1,0,3
116668323236,-2,-2,1,-6,-2,-2,-3,-5
116668323236,0,-2,-2,-1,-1,-1,-3,-5
116668336060,1,-4,-1,-3,-3,-2,-1,3
116668336060,0,-3,-1,2,0,-1,-2,1
116668344270,-3,-1,0,0,0,0,0,-2
116668344270,-1,-1,-1,-5,-2,-1,-1,1
116668367397,0,-1,-1,1,-2,-2,-2,-1
116668367397,-1,1,0,-1,-1,-1,0,1
116668368209,-3,-1,-1,-5,-1,-1,0,-3
116668368209,-1,-1,0,1,-1,0,-2,-3
116668382400,-1,-3,-3,1,1,0,-1,2
116668382400,-2,-1,0,-2,-3,-3,-1,-1
116668383214,-8,-2,-1,-3,-2,0,0,-21
116668383214,0,0,-1,1,-1,-3,-2,-2
116668396077,-2,-2,-1,-1,-2,0,-1,-3
116668396077,-1,-2,-2,-3,-1,0,0,-4
116668404341,0,-2,-3,0,-1,-2,-2,8
116668404341,-1,-1,-3,-2,-1,-1,-1,-1
116668419252,0,-1,0,-1,-1,-1,-2,-3
116668419252,-1,-1,-1,-3,-1,-3,-1,5
116668420053,0,-2,1,-1,-1,-1,-1,-2
116668420053,-1,-1,0,2,0,-2,-1,-1
116668442504,0,-1,-2,-3,-1,-2,-1,3
116668442504,-1,-2,-2,0,-1,1,0,-1
116668443229,-2,0,-3,1,-2,-2,0,-1
116668443229,0,-2,0,-1,-3,-1,-1,5
116668456078,-2,-1,0,-2,-1,-2,-3,-1
116668456078,-1,0,-4,-1,-1,-2,-2,0
116668464288,-3,0,-2,-2,0,-2,-1,0
116668464288,0,0,0,-1,0,0,-1,-1
116668479213,0,-2,-1,-1,0,-1,-2,-2
116668479213,4,-1,0,-2,-1,0,0,29
116668480133,1,-1,-1,0,-1,-1,1,-16
116668480133,1,-2,0,-1,-2,-1,0,2
116668502451,-1,-2,-1,0,-1,-2,1,3
116668502451,-2,0,-1,-1,0,-1,-2,-3
116668503279,-2,0,-2,0,-1,-2,-2,6
116668503279,-1,-1,-2,-3,-2,-1,-1,-5
116668541229,0,1,-3,-4,-1,-1,0,-3
116668541229,-1,-3,-1,1,-2,-2,-3,-7
116668542027,-1,-1,-2,-1,0,-1,-3,3
116668542027,-4,-1,1,0,-1,-2,-1,-7
116668543634,-2,0,0,-1,0,0,-1,1
116668543634,-3,0,0,0,-2,-1,1,-8
116668546738,-1,-2,-1,0,0,0,0,1
116668546738,0,0,-3,-1,-1,-1,-1,1
116668562450,1,-2,0,1,-2,-2,-1,0
116668562450,-2,-1,-1,-4,-4,-1,-1,-6
116668563183,-1,0,-1,-1,0,0,-1,0
116668563183,-2,-2,-1,-2,-1,1,-4,1
116668584926,-4,-1,-2,0,0,-2,0,-2
116668584926,0,-1,-3,0,0,-1,0,-6
116668585712,1,-2,-2,-1,-3,-1,-1,3
116668585712,-1,-2,-1,-1,-2,-2,0,-2
116668599291,-1,0,-2,-2,0,-2,-1,0
116668599291,0,-3,0,-1,-1,-3,-1,-1
116668600019,-2,-1,-2,-4,-1,-1,-1,1
116668600019,-1,-1,-2,0,1,1,2,-1
116668622418,0,-2,-1,0,-3,0,-2,-1
116668622418,-3,-2,0,1,-1,-1,-1,-2
116668623217,0,-1,0,-1,0,0,0,1
116668623217,-1,-4,0,0,-1,-1,-3,-2
116668644980,0,2,-1,-1,0,0,-1,0
116668644980,-2,-1,0,-1,1,2,-2,-3
116668645745,-1,-2,-1,-3,-1,-2,-1,-1
116668645745,-2,1,-1,-2,0,-4,-2,1
116668667408,1,-2,-1,-1,-2,-3,-2,-3
116668667408,-1,-2,-3,-3,-1,-1,-2,-4
116668668208,-1,-1,-2,-2,0,-3,-3,0
116668668208,-2,0,-1,0,-2,-1,0,-1
116668682904,-2,-3,-1,-1,0,-1,-1,-1
116668682904,-3,-1,0,-3,-4,-2,1,-1
116668683662,-1,-2,-2,-2,-3,-2,-1,-1
116668683662,0,1,-1,-1,-1,-2,1,-1
116668704990,1,-1,2,0,0,0,-1,1
116668704990,0,-2,-1,-1,0,-2,-1,-2
116668705814,-1,-3,-2,1,-2,0,-2,-2
116668705814,-2,-1,-1,-4,-4,-1,-2,-2
116668719304,-2,-3,-2,-2,-2,-1,-1,0
116668719304,0,1,-1,0,-1,-2,-1,-2
116668720109,1,-1,-4,-2,-2,-2,-2,-2
116668720109,-2,0,-2,0,-1,-1,-2,-1
116668742441,-1,0,-2,-2,-2,0,-2,0
116668742441,0,-1,0,0,-2,1,0,1
116668743259,0,-1,0,-1,0,-2,0,0
116668743259,-1,-2,-1,-1,1,-1,0,-1
116668765048,-2,3,-3,-4,-1,-1,0,-1
116668765048,-1,-1,-2,1,1,0,-1,-1
116668765829,-2,-4,-1,0,-2,-1,-2,-1
116668765829,0,-1,-3,0,-2,0,-2,-1
116668779218,-1,-2,-2,0,-1,-1,0,-2
116668779218,-1,-1,1,-1,-2,-1,0,-1
116668779974,-3,-1,1,-1,-2,0,-1,-1
116668779974,-2,-1,0,-1,0,-2,-2,-1
116668802528,-3,-2,0,-2,-1,0,-3,-3
116668802528,0,-1,-4,-2,0,-1,-3,-1
116668803352,-1,-2,-2,-1,-1,-1,-1,0
116668803352,0,-1,0,-2,0,-1,-1,-2
116668824984,-1,-3,-1,0,-2,-2,0,0
116668824984,-1,-1,-1,-2,0,-1,0,-2
116668825692,-1,-1,-2,0,0,-2,-2,-2
116668825692,-2,-2,-1,-1,-3,-2,0,-2
116668839483,-1,-1,-1,0,0,-1,-2,-1
116668839483,-2,-2,-1,-3,-2,-1,-2,0
116668840065,0,1,0,-2,-1,0,-1,1
116668840065,0,0,-1,0,-1,-1,-1,-1
116668870011,0,0,0,1,1,0,-1,-1
116668870011,-2,0,-3,0,-1,-2,0,-3
116668870963,0,-1,1,1,-1,0,0,-2
116668870963,-1,-2,0,-2,-1,-2,-2,-1
116668884956,0,-3,0,-3,-1,-1,0,-1
116668884956,-2,-1,-1,0,-2,-2,-2,-1
116668885744,-1,-1,-1,1,-3,0,-1,-2
116668885744,0,-1,-2,0,-2,-1,0,-1
116668899304,-3,-1,0,-3,-2,-1,-1,-1
116668899304,-2,-2,-1,-1,0,-1,0,-1
116668900076,-2,-1,1,-3,0,-1,-1,-1
116668900076,-2,1,-1,1,0,-1,-2,1
116668922510,-1,-1,-1,0,1,-1,-1,-1
116668922510,-1,-1,-3,-1,-3,-1,-1,-2
116668923473,-1,-1,-2,0,0,-1,-1,-2
116668923473,0,-1,-1,-2,-2,-2,-1,-3
116668944960,0,-3,2,-2,1,-2,-1,-1
116668944960,0,-3,1,-1,0,0,0,-1
116668945729,-2,-2,-3,-1,0,-1,-1,-1
116668945729,-1,-2,-1,-2,0,-1,-1,-1
116668959303,-2,0,-3,1,-3,-2,-3,-2
116668959303,-1,-4,-1,-1,-1,1,-2,0
116668960062,0,-1,-1,-2,-3,0,-1,-1
116668960062,1,-2,-2,-4,-2,-1,-1,-1
116668982410,1,0,0,-2,-3,-2,0,0
116668982410,1,0,0,0,-1,-1,-1,-2
116668983174,-1,-1,-3,-1,0,0,-2,-1
116668983174,-1,-1,0,1,1,1,-2,-1
116669005070,0,-2,-2,-1,-1,-1,0,0
116669005070,-1,0,0,-1,0,1,0,1
116669005806,-2,0,0,-1,-1,-3,0,1
116669005806,-2,-2,-3,-2,-1,-2,-1,-1
116669019387,-2,0,-2,-1,-1,0,-1,-1
116669019387,-2,-1,-2,-2,-2,-3,1,-2
116669020019,-2,-1,-2,-1,-2,-1,-1,-1
116669020019,-1,0,-1,-1,-1,0,-2,-2
116669042596,-1,0,-2,-3,-1,0,-1,-1
116669042596,-2,-1,-2,0,-2,-1,-1,1
116669043281,0,-3,0,-1,-1,-2,0,1
116669043281,-2,-2,-1,-2,-1,-2,-2,-1
116669072722,-1,-1,-3,-1,-1,0,-1,-2
116669072722,1,-2,-1,-3,-1,-2,-1,-3
116669073254,1,1,0,-2,-1,-1,-1,0
116669073254,0,0,1,-2,-2,0,-1,1
116669079413,0,-1,0,0,-2,-1,0,-2
116669079413,-2,-1,-1,-2,-1,-1,-1,-1
116669080266,-1,-2,-1,-3,0,0,-3,-1
116669080266,0,-1,-2,0,1,-2,-1,0
116669102670,-1,-2,-2,0,-1,-2,0,-1
116669102670,-2,-1,-2,1,-1,-1,-2,0
116669103268,0,-1,-1,-3,-2,-1,-1,-3
116669103268,-1,0,-2,-1,-1,0,-1,0
116669124934,-1,-2,-2,-1,-2,0,-2,0
116669124934,0,-2,-1,-1,0,-1,-1,-1
116669125728,1,0,-2,-3,-2,0,0,-1
116669125728,-2,-1,-3,1,-1,-1,0,-1
116669138599,-1,-2,0,-1,1,-2,0,0
116669138599,0,-3,-1,-1,1,0,0,-1
116669147040,-2,0,0,0,0,0,0,-1
116669147040,0,1,-1,-1,-2,-1,1,-1
116669162694,0,-1,-2,-1,-1,-2,1,-1
116669162694,-2,-1,-1,-1,0,0,-3,-1
116669163259,-2,-1,1,-1,-1,-2,0,-1
116669163259,-1,-2,1,-1,-1,-2,-2,-1
116669185207,-1,-1,0,-3,-2,0,-2,0
116669185207,0,0,-1,-2,-3,-1,-3,-1
116669185769,-1,-2,-1,-1,0,0,-2,0
116669185769,-1,-1,-3,-1,-3,0,-1,-1
116669198665,-1,-1,-1,-1,0,-3,0,-1
116669198665,-2,0,-2,-1,-1,-1,-1,0
116669206940,-2,-2,-3,0,-3,-3,1,1
116669206940,1,-1,-1,-1,-2,-1,-1,-2
116669222486,-2,0,-1,-4,-1,0,0,0
116669222486,-1,-1,-3,-1,-1,-1,-1,-1
116669223333,0,1,-1,1,1,-1,0,-2
116669223333,-1,-2,-2,-2,-2,-1,1,-2
116669244973,-1,-1,-1,1,-1,0,0,-2
116669244973,0,-1,0,-1,0,0,-1,-1
116669245717,-2,0,-1,-2,-1,0,-3,-1
116669245717,-1,-2,-1,1,2,-1,-2,0
116669267698,-2,-1,-1,-1,-1,0,-3,-1
116669267698,0,0,-1,1,-1,-2,0,-3
116669268343,-1,-1,-1,-1,-1,0,-2,0
116669268343,-2,-1,1,-1,-2,-1,0,-3
116669282702,-1,-1,-1,1,-1,-2,1,1
116669282702,-1,-2,-1,-1,-1,-2,-1,0
116669283311,-1,-1,-2,0,-2,-1,-2,-2
116669283311,0,-2,-1,0,-1,1,0,-3
116669305066,0,-2,0,-2,-1,0,-2,-3
116669305066,-1,-2,0,-2,0,-1,-1,-2
116669305949,-2,-2,-2,-2,1,-1,-2,-3
116669305949,0,-1,-2,0,0,-1,-1,-1
116669318641,-3,-3,-3,-3,-3,-2,-1,-2
116669318641,-2,0,-3,-1,0,-1,0,-2
116669326815,-1,-1,-3,-2,-2,-2,-1,-3
116669326815,0,1,-1,0,-4,0,0,3
116669342422,-1,0,0,-2,0,-1,-2,-1
116669342422,2,0,-2,0,-2,0,-2,-1
116669343326,-1,-1,-1,-2,-2,0,-1,-2
116669343326,0,-2,-4,0,0,-2,0,-2
116669365054,2,1,0,-1,-2,-1,-2,-2
116669365054,-2,-3,-1,0,0,-1,-2,0
116669365923,-3,-6,-1,-1,0,-2,-1,0
116669365923,11,5,2,-2,0,1,0,-1
116669378620,-2,-2,1,1,-2,-1,0,-1
116669378620,-2,-1,-2,0,0,-2,0,-1
116669386791,-3,-1,-1,-1,-1,0,-2,1
116669386791,-6,-5,-3,-2,-2,-1,-2,-3
116669402618,0,0,-1,-1,-1,-3,-1,-1
116669402618,1,0,1,-2,0,0,0,-2
116669403392,0,-1,-2,1,-2,-2,0,-1
116669403392,-4,-2,-2,-4,-1,-3,-2,0
116669425193,-1,0,-1,-2,-2,0,-1,-2
116669425193,-2,-3,-1,-1,-3,-4,0,-1
116669425789,0,-1,0,-1,-2,-1,-2,-1
116669425789,-3,0,-1,-2,-1,-1,0,-3
116669438606,-2,0,-2,1,1,1,-1,-2
116669438606,-1,-2,-3,-2,-1,-1,-1,-1
116669446815,0,0,0,-2,-1,-1,-1,0
116669446815,-3,-2,-1,-2,-1,-2,1,-2
116669461417,0,-1,-2,0,-1,-2,-3,0
116669461417,-2,0,0,0,0,1,-1,0
116669470053,-1,-1,-3,-1,-1,-1,0,0
116669470053,-2,-2,-1,-1,-1,-2,-2,-3
