timestamp,emg1,emg2,emg3,emg4,emg5,emg6,emg7,emg8
116695934902,-2,0,-2,-1,-1,-1,0,-1
116695934902,-1,0,-3,-1,-2,-1,-2,-1
116695935695,-4,-1,-1,1,-2,-3,-2,-2
116695935695,-1,-1,0,-8,0,-1,-2,1
116695937555,0,-1,1,0,1,-1,-1,1
116695937555,-1,-1,-4,-4,-2,-1,-1,-1
116695938335,-2,-2,-1,11,-1,0,-2,-4
116695938335,1,2,2,4,-4,-4,-2,0
116695945033,-1,-2,-4,-15,0,0,-2,0
116695945033,1,0,-2,4,3,2,0,1
116695951223,1,3,0,2,-2,-1,0,0
116695951223,-1,0,1,1,2,1,-2,-4
116695966202,1,1,0,7,0,-3,-2,-2
116695966202,-1,-2,-2,-3,-1,-2,0,-1
116695975597,2,1,-3,-12,-1,-3,-1,0
116695975597,-2,-2,-3,-2,-3,-3,-1,0
116695988715,0,-6,-1,-1,0,2,1,-1
116695988715,3,6,3,-2,1,3,0,0
116696005051,1,0,-2,0,-1,-8,-3,-2
116696005051,-5,-3,-6,-7,-7,-4,-3,-5
116696006633,0,-2,0,1,1,-3,-3,-1
116696006633,-7,-16,-3,1,-5,1,-3,-2
116696018763,0,-1,-4,7,3,5,0,2
116696018763,4,0,0,13,-1,2,0,0
116696028793,-2,-3,-8,-44,-6,-1,-5,-3
116696028793,-2,-1,-2,8,-1,-7,3,-3
116696067840,-1,-2,4,-2,3,6,-2,2
116696067840,3,1,-3,-7,-7,-9,-1,-1
116696068671,-1,-2,3,4,2,1,0,-1
116696068671,-6,-3,0,-4,-5,1,-3,-2
116696071613,2,-3,-5,-3,-6,-5,1,1
116696071613,-1,-1,0,1,3,-1,-4,-4
116696072447,-4,-1,-4,-3,-3,-4,-2,1
116696072447,-7,-5,-2,2,-2,-2,-1,0
116696088136,-2,0,1,-5,3,14,-4,-4
116696088136,-3,8,-1,-1,1,-11,-9,-3
116696088953,3,-10,-4,0,-2,-5,-9,-1
116696088953,1,-1,1,9,4,7,-17,-1
116696102472,-1,0,-2,-7,-7,4,-19,4
116696102472,0,-1,-3,-4,-3,8,-18,-7
116696108527,-4,0,2,13,-1,-22,-11,1
116696108527,1,2,-2,-14,-6,-8,-6,3
116696117432,1,0,2,5,3,9,1,-1
116696117432,2,-2,-1,-1,3,9,9,0
116696139877,-2,0,0,5,-3,-11,0,-5
116696139877,3,1,3,9,5,23,8,0
116696141498,0,1,-3,26,2,-20,-3,-6
116696141498,0,-5,0,1,-2,-8,-13,4
116696153969,-20,-16,-2,7,-2,10,23,5
116696153969,-1,2,0,-2,6,7,4,-6
116696162499,-1,-2,-1,8,0,-3,9,2
116696162499,-1,-2,3,0,-4,-4,3,2
116696177334,3,1,-8,-18,-7,-27,-13,-4
116696177334,-3,-3,1,4,0,4,6,2
116696178978,-12,-18,-2,0,0,3,8,-9
116696178978,-1,0,1,-6,-2,16,9,-2
116696199848,4,2,-1,3,-5,-15,-6,-2
116696199848,-3,-4,-3,4,3,-19,5,-4
116696201448,3,6,-2,-17,-7,-4,-9,-2
116696201448,-2,-1,0,-7,-5,-11,12,-1
116696213497,5,11,6,-9,6,37,15,-1
116696213497,0,-8,-5,12,-3,-4,-7,-8
116696222544,2,0,-2,-10,-2,-22,3,11
116696222544,-13,2,-2,14,8,39,-1,0
116696237379,3,6,0,-2,-11,-32,-2,-5
116696237379,0,1,-3,-22,-7,0,9,1
116696238966,5,3,0,-2,0,8,-16,2
116696238966,-1,-5,-3,-18,-5,-35,9,-4
116696259849,1,-1,4,16,23,49,2,4
116696259849,-3,0,-4,-2,-2,28,-2,0
116696261449,-5,-3,-1,-9,-8,-42,-4,-5
116696261449,2,-3,-2,22,-4,5,-5,-5
116696289841,0,-2,-1,-10,-9,-18,-2,-9
116696289841,6,8,2,-2,6,11,-6,11
116696291468,-1,3,-2,4,2,9,5,-1
116696291468,1,1,-1,1,5,7,-10,-4
116696297360,2,-3,-3,-9,0,0,10,9
116696297360,-3,-1,1,3,-3,-7,-6,-10
116696298972,2,1,-5,-4,-4,15,7,3
116696298972,1,-2,-1,-7,-6,-31,-10,-14
116696319852,1,2,-3,-4,4,48,14,31
116696319852,0,-2,-4,3,-3,-36,-6,4
116696321449,4,3,4,8,-2,-17,4,-7
116696321449,2,-2,3,-10,0,5,-13,3
116696333500,-3,7,-4,-2,-1,6,1,-12
116696333500,0,0,2,2,2,9,0,-1
116696342570,2,-6,-2,-20,-3,19,2,1
116696342570,-8,-3,-7,1,3,-11,1,-8
116696357372,14,-1,-2,4,-3,-7,-7,-3
116696357372,-1,4,0,-2,3,-19,3,-7
116696359038,-3,3,4,11,-7,32,0,9
116696359038,1,-3,-3,-16,-9,-50,2,-2
116696379889,-9,-5,-2,6,-2,10,-18,-13
116696379889,2,-6,-9,-35,-3,5,14,2
116696381489,-1,0,5,5,11,2,-3,2
116696381489,-4,-4,-4,-5,-4,30,-1,2
116696393514,-5,-5,-6,-2,-1,-35,-12,-13
116696393514,0,-1,7,3,-18,-8,-4,3
116696402478,3,9,2,-6,7,9,19,-16
116696402478,-2,-7,-1,18,4,-6,7,24
116696417323,-8,-4,-1,-10,-8,16,-1,-12
116696417323,2,4,7,-3,7,-24,-13,10
116696418944,-5,-4,-11,0,-7,-19,-8,-10
116696418944,4,1,4,15,2,19,4,1
116696439850,-3,-4,5,5,-6,-26,-11,-8
116696439850,-8,-6,-7,-4,-10,4,20,-13
116696441467,-4,-3,2,10,23,21,0,9
116696441467,-2,2,2,9,8,-1,-19,-11
116696453560,-1,11,1,-29,-7,11,2,0
116696453560,-1,-12,-8,6,-15,-37,-33,-3
116696462537,-3,1,4,-1,8,19,30,-1
116696462537,2,-2,0,14,2,3,18,11
116696477320,2,-1,2,7,7,7,-21,-11
116696477320,-5,2,1,-3,-9,-39,-5,-21
116696478963,0,-4,-9,-17,-11,0,-10,-15
116696478963,-2,2,7,-14,6,15,4,0
116696507347,-5,-5,-9,32,-15,-11,-7,1
116696507347,2,2,0,-20,15,9,15,6
116696508983,-6,-5,-2,5,11,16,-1,-7
116696508983,2,3,1,-11,-17,-17,0,13
116696513473,-4,-9,-12,-20,-3,-19,-11,5
116696513473,3,-1,-4,23,5,53,22,4
116696522503,3,0,-1,2,-12,-71,-8,17
116696522503,1,-15,-7,-4,3,34,-2,-4
116696537389,-3,-2,0,-17,3,4,11,-5
116696537389,-2,-2,0,7,-12,-16,-6,5
116696538970,-2,-4,-2,-20,-6,4,-6,-7
116696538970,-5,0,-6,9,-3,-9,-14,-16
116696559894,6,0,2,-5,10,10,34,21
116696559894,-1,1,9,2,6,13,-5,9
116696561506,-4,0,-3,-11,-7,-9,-20,-17
116696561506,-3,3,-5,-42,-9,-20,3,-17
116696573494,-1,1,0,5,-5,7,-8,2
116696573494,-3,0,-1,8,12,-6,-6,-1
116696582528,2,1,2,-19,-8,7,1,11
116696582528,-3,0,0,34,1,-15,1,3
116696597360,-2,0,5,14,14,38,3,5
116696597360,-5,-4,-8,-35,-17,-24,4,3
116696598954,-7,-1,3,39,15,8,-10,-12
116696598954,10,4,-10,-10,-7,9,15,39
116696619853,2,-9,-1,-13,-6,-10,-3,-16
116696619853,-3,-1,2,12,8,18,-4,-10
116696621417,-2,-1,-4,11,-11,-19,0,0
116696621417,-12,0,-1,-52,-14,4,-34,-19
116696633494,0,3,6,33,25,-9,11,-2
116696633494,5,2,-4,20,11,8,6,13
116696642592,-6,-6,-5,-47,-7,18,-6,-17
116696642592,-2,-2,5,22,-9,-28,10,-8
116696656741,1,0,-5,-18,-7,-3,-11,2
116696656741,-9,-5,-5,19,11,16,28,-41
116696663450,6,6,11,25,1,-27,-1,3
116696663450,-2,-5,-4,-10,17,32,-39,-43
116696679881,-1,5,4,-5,-15,-16,56,44
116696679881,-10,-14,-11,3,-10,21,-22,-69
116696681448,6,-1,-7,-5,-10,-20,13,17
116696681448,12,9,3,10,11,-7,15,75
116696693474,8,0,3,18,8,15,-16,-5
116696693474,-3,-1,-6,-18,-6,-2,-49,16
116696702506,-15,-4,1,-1,-4,-9,-7,-28
116696702506,42,6,-7,-19,-21,-2,11,37
116696716684,0,-2,7,5,2,9,-2,60
116696716684,-20,5,6,6,11,-28,18,-58
116696723461,46,5,-1,-12,-6,-2,14,38
116696723461,-19,-4,0,15,3,20,-38,-41
116696739805,4,-10,-7,-5,2,-5,2,-15
116696739805,-36,-12,0,-12,-14,2,-9,-60
116696741444,20,-1,-8,12,11,11,18,35
116696741444,-15,3,4,6,-4,-14,26,-32
116696753512,-2,2,-1,-8,-10,-7,-7,-82
116696753512,25,6,-1,-11,0,21,44,78
116696762509,-14,-6,-7,7,4,16,-39,2
116696762509,11,-2,0,10,3,-15,11,67
116696776728,-26,3,1,-15,0,-3,-19,-66
116696776728,10,3,1,13,7,15,10,40
116696783569,-29,0,-3,-12,-24,-12,-12,-25
116696783569,10,0,1,6,-13,-30,3,-42
116696801248,-32,-4,-3,-3,6,6,-43,-87
116696801248,62,1,-1,6,19,0,-23,81
116696802804,-23,-3,-2,2,-1,15,84,-73
116696802804,-4,-9,-3,-1,-7,13,-13,12
116696813464,-2,4,1,2,-1,-15,-31,-14
116696813464,-18,-15,-4,-12,-14,-6,6,-20
116696822517,4,-1,3,2,14,7,-16,-3
116696822517,1,4,1,8,-12,-35,21,-23
116696836686,17,-6,-11,-27,-20,-5,7,18
116696836686,0,2,-2,1,5,-4,3,-15
116696843504,-9,-1,-2,1,8,7,-45,-29
116696843504,19,4,-2,-1,6,23,49,71
116696859863,-1,-2,-4,0,-15,-32,-45,14
116696859863,48,9,0,2,12,2,16,64
116696861452,2,0,-2,-3,-9,-4,-21,10
116696861452,-30,2,6,0,5,-6,-5,-96
116696882384,3,1,-3,2,-1,4,1,24
116696882384,3,2,1,-12,-6,5,39,41
116696883953,-6,-4,0,11,-12,-9,0,-18
116696883953,-18,-8,0,-2,16,3,-60,-61
116696896774,15,0,1,7,6,23,63,14
116696896774,-40,-1,2,-5,-25,-21,-27,-108
116696910977,4,1,1,0,2,-18,-8,11
116696910977,5,-2,-1,-6,9,12,32,63
116696919645,1,4,6,6,10,11,-7,19
116696919645,-4,-2,0,-2,0,8,-17,-35
116696925990,3,-2,-3,-8,-14,4,-16,-18
116696925990,13,-2,-6,0,-4,-6,21,16
116696942403,-14,-2,-1,-1,3,-11,-13,-28
116696942403,0,1,-2,-2,0,1,-12,5
116696943972,-5,2,2,-10,1,4,-14,1
116696943972,-8,-5,-4,9,-9,19,-1,2
116696957350,-18,-2,0,3,-1,-27,-8,-85
116696957350,-12,0,1,-2,-2,-8,-20,14
116696958939,26,-8,-4,-3,1,-2,24,17
116696958939,-16,-1,3,-10,-9,4,-24,-50
116696987348,29,-1,-7,2,5,-19,21,92
116696987348,-12,2,1,0,-7,4,3,-16
116696988942,-3,2,7,10,12,6,11,-1
116696988942,1,0,-2,-16,11,45,31,-11
116697002352,-9,-3,-12,-12,-24,-28,-22,13
116697002352,0,0,2,17,1,-10,10,-15
116697003948,-2,1,-4,-9,2,12,-2,27
116697003948,4,0,3,-3,6,-5,-31,-8
116697016751,2,2,2,-11,-6,-12,0,10
116697016751,1,2,-1,15,4,-12,-4,-11
116697023582,-11,-1,1,1,-3,17,3,-32
116697023582,-16,-5,-6,-3,-5,-30,4,1
116697038536,-1,1,4,1,-2,13,4,-12
116697038536,0,-1,1,-7,1,-3,-10,-29
116697047613,5,1,2,5,-1,-11,7,40
116697047613,-1,-15,-4,5,3,5,-30,-12
116697062379,7,-3,-1,-7,-4,-4,13,17
116697062379,-4,-4,-4,-2,-9,2,-15,-17
116697063973,-4,-1,-4,-18,-11,-17,-7,-5
116697063973,-4,-2,-8,1,4,-2,-5,-2
116697084849,-5,-2,0,21,5,9,-1,-11
116697084849,-2,-2,-1,-17,-4,5,-4,16
116697086430,-3,-2,-7,-7,-1,-8,2,-5
116697086430,-1,0,1,21,-6,-2,-2,1
116697098509,-4,0,1,51,12,7,1,-12
116697098509,-1,1,-5,-59,-13,-1,2,5
116697113525,1,1,5,-1,5,-2,1,-1
116697113525,-2,3,3,24,2,-7,6,-6
116697122298,-4,-4,-9,-36,5,11,-6,3
116697122298,-2,1,5,6,-9,-9,-5,0
116697123946,-4,-4,-10,-4,-5,-6,-6,-10
116697123946,-2,0,0,-28,-6,13,2,1
116697144884,1,1,1,-1,3,2,10,3
116697144884,1,-2,0,3,-1,3,0,23
116697146472,-2,-2,-3,-7,-5,-11,-1,-10
116697146472,-2,0,0,7,7,12,-16,3
116697158536,1,-3,1,29,-9,-9,1,5
116697158536,-2,-1,-1,2,5,7,8,-4
116697167502,-4,8,2,20,3,5,-2,-7
116697167502,1,-3,0,-5,-6,-8,1,-3
116697183191,-4,-3,-2,-44,-9,-1,-6,-1
116697183191,-1,-1,2,16,12,-4,-8,-2
116697188582,-3,-1,-3,14,4,2,-2,3
116697188582,-2,1,-1,-4,-1,-8,-6,-5
116697204853,-1,-1,0,-9,-4,4,5,-1
116697204853,0,0,-4,10,1,3,3,4
116697206464,-1,-3,-2,-22,1,0,-3,0
116697206464,-2,-2,-1,-11,-6,-14,-2,-3
116697218538,-1,-5,-2,-3,5,38,-10,-7
116697218538,-1,-1,-2,2,-8,-46,6,6
116697227468,-2,-1,-1,7,-3,24,-4,-4
116697227468,1,-2,-1,-13,6,-17,3,12
116697241699,-1,0,-1,10,5,10,2,2
116697241699,-4,-3,-2,-5,1,4,-8,-17
116697248518,-1,-2,-1,4,-10,-9,-3,5
116697248518,-5,-6,2,-6,-4,-6,1,-15
116697265340,0,-2,-3,3,-2,-8,-1,-3
116697265340,0,1,4,0,12,10,4,-1
116697266846,2,-2,0,9,5,-10,0,7
116697266846,0,1,3,-3,-5,16,2,-1
116697278516,-5,-1,6,-10,-6,-11,-2,-2
116697278516,-1,-3,-2,23,-12,-17,-8,-5
116697287490,-7,0,-1,-27,9,18,-2,-14
116697287490,3,0,-6,7,-9,-11,-2,16
116697301667,2,1,1,6,3,-9,15,3
116697301667,1,1,-3,-2,3,15,-2,8
116697308495,-2,-1,1,6,0,3,1,3
116697308495,4,-6,-3,11,4,-3,-3,-7
116697324847,0,-2,1,-11,-9,-13,-2,-3
116697324847,-1,-11,-3,2,-3,7,-5,-7
116697326483,-3,-1,-2,7,1,-19,-12,-2
116697326483,5,2,-2,-12,3,0,6,-4
116697347299,-3,-3,-7,13,-3,11,-7,1
116697347299,0,-1,-5,-13,-6,-15,0,2
116697348942,3,-1,-1,1,-2,-9,-2,-1
116697348942,-5,-1,-4,-4,-1,4,2,-5
116697361017,-1,2,1,-6,-5,-2,-4,-7
116697361017,-2,-2,-2,-8,-1,9,-7,-3
116697369995,-1,-4,-6,8,-5,3,2,5
116697369995,-1,3,2,-2,-1,-19,-3,0
116697384877,0,-1,-4,-6,1,6,-4,-3
116697384877,-2,1,-2,-2,3,16,10,1
116697386477,2,-1,0,4,-1,-19,1,1
116697386477,-4,-3,-1,11,-4,7,-4,-6
116697407348,1,8,-4,-13,-3,2,1,-1
116697407348,5,-2,0,-15,-4,-3,3,10
116697408949,4,-1,1,-8,-1,2,3,4
116697408949,-1,1,2,11,-1,-5,5,3
116697421654,-1,-2,-2,-9,1,-7,0,-2
116697421654,-11,7,-4,-6,1,7,-4,-5
116697428536,3,-4,1,-6,-9,-15,-4,2
116697428536,12,3,2,1,1,6,-2,7
116697444882,-1,-1,5,12,7,4,1,-18
116697444882,-1,0,-6,0,-3,-6,3,13
116697446491,-7,-5,-3,-2,0,12,-3,-4
116697446491,-8,-3,-2,-7,-6,-29,-5,-8
116697467362,-1,-9,-4,-9,0,4,-7,4
116697467362,2,0,3,3,3,4,7,4
116697469040,-15,-1,-1,12,4,9,0,-9
116697469040,13,3,0,4,-2,6,0,7
116697481012,-1,1,1,-3,-4,-13,-2,5
116697481012,-3,-6,-1,-4,-9,-17,-8,-8
116697489978,-1,-2,-4,-17,-4,-8,-4,0
116697489978,-5,-1,-1,8,11,15,7,7
116697504822,1,-1,1,-1,4,13,2,0
116697504822,-1,-1,0,10,-2,-3,1,-2
116697506456,6,12,2,-8,-2,-3,-5,-7
116697506456,-16,1,-2,-3,-4,-3,4,-1
116697527363,9,13,1,24,2,4,2,0
116697527363,1,-4,-8,-27,-7,-25,-2,4
116697528970,-3,1,3,9,6,13,4,-21
116697528970,-11,-2,4,17,0,14,-1,-6
116697541457,-4,-4,1,11,-1,-8,-4,2
116697541457,0,2,-5,-6,-4,-3,-10,2
116697550008,4,0,-1,-2,2,13,-2,0
116697550008,0,-4,0,-3,-1,-20,-2,-5
116697564893,-1,-5,5,16,1,3,5,2
116697564893,-6,-1,-2,-31,-3,8,-8,-15
116697566465,16,-4,-1,14,1,2,2,9
116697566465,-3,-2,-2,-14,-2,11,-2,3
116697587482,-14,-5,-2,33,-6,-21,-3,4
116697587482,-6,-15,-3,12,2,0,-3,-9
116697588959,4,12,-2,-17,-5,1,-2,0
116697588959,2,-14,-3,8,-1,0,4,3
116697600961,-2,-3,-3,-32,-1,-12,-5,-6
116697600961,-15,-6,-2,10,3,25,-1,3
116697610019,-5,-8,-5,-20,-8,-19,6,-2
116697610019,-4,-16,-7,3,-4,0,-10,-7
116697624870,0,-1,-4,-2,-3,-2,-2,-1
116697624870,2,2,0,8,5,2,-3,-5
116697626448,-15,-7,1,17,1,-2,-1,7
116697626448,0,7,-3,-15,-1,-2,-1,-3
116697647326,-3,-3,-6,-15,-5,0,-2,-8
116697647326,-2,4,3,29,3,0,-3,-3
116697648975,0,2,1,-49,0,-1,1,3
116697648975,-1,-15,-5,7,2,12,-2,-6
116697661095,3,1,0,-5,-4,-11,-1,1
116697661095,12,6,5,6,0,-4,-3,6
116697677491,6,0,5,46,10,0,7,2
116697677491,9,4,-2,-26,-4,3,-8,-19
116697684866,10,15,3,-14,2,5,7,20
116697684866,-6,-19,2,19,-2,-6,-2,-7
116697686460,0,0,-3,4,-2,-4,-1,10
116697686460,-12,10,3,-11,-2,-6,-5,-9
116697707337,2,-15,-1,15,4,5,0,7
116697707337,23,15,-1,-19,-2,-4,-3,-17
116697708923,-4,-6,-1,-1,-4,-3,-4,-10
116697708923,5,16,-1,6,1,0,2,2
116697729849,-2,-10,-1,-10,-2,1,-3,-9
116697729849,-12,-1,-2,4,2,0,3,6
116697731472,-1,-7,-3,5,-5,-5,-3,-1
116697731472,-8,2,-9,-13,-3,-4,-1,7
116697744833,-5,1,-4,5,3,3,-2,-7
116697744833,-20,-36,-1,-4,-2,-2,4,0
116697746472,-9,9,-4,-7,-6,-3,-4,-11
116697746472,2,-9,2,29,5,-2,-2,9
116697767320,-22,-4,-8,-59,-13,-2,-9,-29
116697767320,-11,-13,-4,-2,-4,-3,11,29
116697768933,-6,1,-6,-6,-1,-2,-2,0
116697768933,9,10,5,-11,-4,3,-1,-8
116697781005,-29,-12,0,13,1,-1,0,-23
116697781005,4,-3,-4,-3,-2,0,-4,-1
116697790042,-1,-3,1,0,-2,1,-1,-2
116697790042,3,-15,-1,3,1,0,-4,-1
116697804861,0,-4,-1,1,-2,-2,0,29
116697804861,1,16,-6,-12,-2,-3,-5,-26
116697806461,7,-7,-2,1,-1,-1,-1,7
116697806461,-2,1,-3,-7,-3,-1,-5,-4
116697827341,7,0,0,0,1,0,-3,8
116697827341,16,7,-3,-2,-7,-3,4,11
116697828941,-5,-23,-4,1,0,-2,-6,-15
116697828941,2,7,0,-5,0,1,3,20
116697841024,1,-2,0,2,-3,-1,3,-6
116697841024,-3,9,2,13,1,-1,-2,4
116697849960,-12,-27,0,-6,0,-2,0,-9
116697849960,-11,-4,-3,-6,-4,-2,-4,-4
116697864241,2,-7,-2,-2,3,0,0,3
116697864241,10,5,8,-5,-3,1,-3,-4
116697871016,-2,9,2,8,0,0,-1,1
116697871016,-11,-2,-1,-5,-2,-1,3,1
116697887382,14,-2,0,2,3,2,2,0
116697887382,-7,-2,-2,-7,-1,-2,-3,-7
116697888991,-10,-4,-1,-6,-4,-2,-1,1
116697888991,14,-4,0,-17,3,0,-1,1
116697901000,-5,12,3,39,-2,0,3,-3
116697901000,-7,4,1,-4,-3,-4,-5,0
116697909983,18,9,2,-5,0,0,1,25
116697909983,-1,-3,6,5,0,0,0,-25
116697932313,-3,-40,-11,-28,0,1,1,6
116697932313,-6,1,-4,4,0,0,-1,-2
116697933935,2,13,0,5,-3,-2,-1,3
116697933935,-3,-4,-3,-1,-2,-1,0,1
116697947377,-21,-13,-3,2,-1,-1,-1,-8
116697947377,1,-2,-3,-16,0,0,-1,-2
116697948981,-18,-5,-6,-3,1,-1,0,12
116697948981,13,10,0,1,-2,0,-1,0
116697961026,-7,4,-1,-7,-5,-2,0,-6
116697961026,25,17,1,2,2,-1,-8,-6
116697970031,2,-14,-4,6,-2,-2,6,-14
116697970031,-11,1,-1,0,3,-1,0,1
116697984826,11,17,0,7,-7,-4,-2,9
116697984826,-7,10,0,-30,-1,1,2,7
116697986467,-7,7,3,18,5,2,-1,-9
116697986467,-10,-3,-4,6,-10,-6,-4,-1
116698007327,-1,2,-1,-10,2,-1,-2,6
116698007327,-4,-5,0,10,-2,-1,-5,-52
116698008898,-5,1,-2,-17,-2,0,1,-6
116698008898,-12,-11,-6,-7,-1,-2,1,-7
116698020959,1,23,2,0,0,-2,-4,1
116698020959,13,-38,-2,2,2,0,1,-3
116698030022,23,14,0,6,1,-3,-5,-6
116698030022,-17,-6,-1,-7,-8,-3,1,-4
116698044864,3,-1,2,0,1,-1,-1,-13
116698044864,13,6,-3,3,0,-1,0,53
116698046488,-5,-17,-4,-4,-2,0,0,-7
116698046488,-9,1,0,3,2,-1,-4,14
116698067346,11,6,2,-6,-1,-1,0,-27
116698067346,-31,-5,2,2,-1,-3,-1,21
116698068967,11,12,3,1,-1,1,-1,-1
116698068967,1,-12,1,2,-1,-1,2,-24
116698081029,-12,-6,-6,-2,-2,0,0,14
116698081029,-7,1,-3,4,0,-1,-2,-18
116698089961,-5,-2,-3,-3,-5,-2,-2,24
116698089961,23,-1,-2,-2,2,0,3,15
116698104168,7,6,0,15,1,1,-1,-8
116698104168,5,25,3,-11,-3,-1,-1,2
116698111032,-20,-20,-11,-10,-7,-4,-1,-8
116698111032,7,6,3,6,2,1,0,-8
116698127134,-22,-11,-8,-3,0,-1,0,10
116698127134,19,18,3,5,1,0,1,-5
116698133487,3,2,2,-1,-1,-1,-4,-6
116698133487,-22,15,2,-4,-1,-2,-7,-28
116698140962,17,1,-1,1,-1,0,3,37
116698140962,-29,-15,-5,3,-2,-3,-3,-15
116698149978,1,3,0,-10,-1,-2,-1,-1
116698149978,8,12,0,-5,-4,0,4,3
116698164270,2,6,4,4,0,-1,-1,-5
116698164270,9,-10,-8,1,-2,-3,-1,43
116698171005,2,7,0,3,-1,-2,-3,9
116698171005,1,-3,-3,-15,0,-1,1,8
116698187379,1,-13,0,-3,-2,1,-4,-13
116698187379,-5,-6,-2,10,-1,-2,1,-10
116698189028,3,-11,-3,-9,-3,0,-1,-5
116698189028,1,-4,0,8,-1,-1,-3,21
116698200957,3,7,1,-17,-2,-1,0,-27
116698200957,9,-2,1,8,0,0,0,-10
116698209992,-8,22,-1,-15,1,0,0,18
116698209992,-5,-7,-3,0,-1,-2,-6,-9
116698224827,-7,-23,2,6,0,1,-1,4
116698224827,-2,0,-2,-7,-3,-2,5,-11
116698226440,-1,3,1,5,-1,-1,1,-13
116698226440,-21,-14,-5,1,-2,-3,-3,2
116698247346,7,16,5,0,0,0,-2,-3
116698247346,6,1,-2,-7,-2,1,-2,3
116698248991,-2,-3,-1,7,2,0,-3,-21
116698248991,1,14,-1,5,-2,0,-3,3
116698269810,17,9,-2,-2,-2,-1,-3,6
116698269810,-5,-3,-2,-8,-1,0,1,-3
116698271438,1,2,0,5,-1,-1,3,-7
116698271438,2,-5,-1,-5,-2,-1,1,-6
116698284846,-1,3,-2,-2,-2,-2,-3,-5
116698284846,-2,6,4,-8,-1,0,1,36
116698286436,12,-7,-3,4,-1,0,-3,-1
116698286436,5,8,1,-1,0,0,-1,-5
116698307376,0,-5,-2,-6,-1,-1,1,-2
116698307376,-7,-2,0,2,-2,-2,-4,-16
116698309029,-14,2,-2,1,0,-1,0,1
116698309029,10,-5,0,-8,-3,0,1,6
116698329861,-6,11,-3,-4,-2,-2,-2,1
116698329861,-2,2,-1,0,0,0,-1,-16
116698331441,-15,-25,-2,1,-3,-2,-1,7
116698331441,21,0,2,4,3,1,3,-5
116698344855,-4,-3,-5,-2,-1,-1,-3,0
116698344855,-2,-3,0,7,0,0,0,-5
116698346467,-1,2,-2,-19,-2,-2,-2,7
116698346467,-8,0,1,15,1,-3,-4,-10
116698374859,2,-14,-1,-2,0,-2,-1,7
116698374859,-5,-1,1,3,0,0,-2,1
116698376452,3,4,2,1,-2,-2,-2,-7
116698376452,-1,4,-3,-4,-1,1,-2,1
116698389843,3,4,-4,-5,-2,-2,0,1
116698389843,0,-1,0,-5,1,0,-1,-9
116698391445,7,3,-4,3,-3,-2,0,-6
116698391445,-3,-3,2,4,1,-1,3,22
116698404843,-8,-1,-2,-3,-3,-3,-2,-10
116698404843,-12,-7,-2,2,1,0,-2,-2
116698406447,3,1,1,7,0,-1,-2,-6
116698406447,-7,-4,-2,0,-3,-2,-2,5
116698427353,-2,12,1,1,1,-1,-1,3
116698427353,-11,-5,-3,-6,-5,-1,-2,-8
116698428966,-7,1,-2,-2,-1,-1,0,2
116698428966,-10,-13,-4,-4,-4,-3,-2,1
116698449820,-4,12,2,7,2,0,-2,-2
116698449820,2,0,1,-3,-2,-2,0,-4
116698451437,-1,-4,-3,3,-2,-1,-2,-6
116698451437,-4,0,-2,-7,-4,-1,-2,-4
116698464211,-12,-13,-7,-12,-4,-2,-2,-4
116698464211,1,-21,-4,9,0,0,0,-6
116698471014,-1,9,3,-1,-1,-1,1,7
116698471014,9,2,-2,-1,1,1,1,-12
116698487385,7,-19,-1,-6,-2,-2,-1,5
116698487385,1,2,1,-1,-2,-2,-3,-2
116698488999,0,4,0,1,0,1,-1,-2
116698488999,-6,-8,-2,7,2,-1,0,6
116698509843,-13,8,0,-14,-7,-3,0,-4
116698509843,-2,1,-3,5,2,-1,-1,-1
116698511484,0,-7,-1,-2,-1,-1,0,-3
116698511484,0,2,1,-5,-1,-1,0,-5
116698524232,-5,-2,-3,10,0,-2,-2,-6
116698524232,-4,7,-2,-3,-2,-3,-1,-6
116698531027,-7,1,-1,-3,0,-1,2,13
116698531027,-3,-6,-3,0,0,-2,-4,-34
116698547327,-2,13,2,-5,1,0,1,-13
116698547327,17,4,-4,4,-3,2,2,23
116698548937,5,-3,-2,2,2,-1,-1,-4
116698548937,-10,2,-1,-10,-7,-2,-1,-5
116698577306,2,0,0,6,0,-1,-3,2
116698577306,2,-7,-7,-14,-4,-6,-4,-10
116698578942,14,14,6,1,2,1,1,-3
116698578942,13,-18,-2,-2,0,-1,-4,12
116698584180,6,-3,1,2,-1,-1,3,10
116698584180,-8,-4,1,0,-1,-1,0,-3
116698590961,-2,-14,-4,-2,-3,-2,-1,1
116698590961,-3,4,-2,-4,1,0,-1,-2
116698607325,6,-6,-3,1,-1,-2,-1,-3
116698607325,-9,-16,-3,-5,-1,-1,-3,25
116698608909,-5,1,-3,-3,-3,1,-2,-10
116698608909,0,-9,0,9,1,0,3,-8
116698629874,-3,-12,-3,4,2,-2,-2,4
116698629874,-1,10,0,-4,-6,-1,-1,-7
116698631448,-11,-6,-5,2,-2,-3,0,3
116698631448,-9,-5,-7,-6,-3,-2,-4,10
116698652322,6,11,1,3,1,0,-2,-2
116698652322,-8,-3,3,-5,4,-1,1,-13
116698653947,-4,-15,-2,-3,-1,0,-2,0
116698653947,-2,2,-2,1,-1,0,0,-2
116698667314,-4,-3,-3,0,0,1,-1,2
116698667314,6,-1,0,1,0,-1,0,-1
116698668936,16,10,5,2,1,0,0,-2
116698668936,4,5,-1,0,-2,1,-3,-17
116698689881,6,13,3,-1,-1,0,4,8
116698689881,0,23,0,-3,-2,-1,-4,-16
116698691438,9,-4,-3,1,-2,-4,2,4
116698691438,10,-3,-2,-5,1,-3,-5,-4
116698704223,-8,-14,-1,-2,-6,-1,0,4
116698704223,-8,0,0,2,1,-1,-1,-9
116698710965,-3,6,0,-5,1,-1,-3,-4
116698710965,-1,3,-2,0,-2,-3,-1,9
116698727304,-1,-7,-3,-4,-2,-2,-1,-5
116698727304,2,0,-3,7,1,0,0,4
116698728938,-9,-8,0,-6,0,-1,-1,-2
116698728938,-1,1,-2,-6,0,-2,-1,8
116698749875,-4,-1,-1,-7,-1,1,-1,-1
116698749875,-2,-5,-1,0,0,-3,-1,-4
116698751519,-4,2,-2,5,-3,-1,-3,-9
116698751519,-4,19,4,-2,-1,3,0,-2
116698763474,-18,-6,0,-3,-3,-1,-2,-2
116698763474,-1,-3,-3,-5,-1,1,2,-3
116698772500,1,-2,-4,-11,-1,-2,-2,31
116698772500,-3,4,-2,1,-2,-3,1,3
116698787348,4,-13,-2,6,-1,-3,-1,-4
116698787348,-1,5,4,0,1,1,2,0
116698789014,-11,-3,-5,0,-3,-1,-4,-12
116698789014,-1,-5,-2,-6,0,-1,-1,3
116698809821,8,3,-3,1,-3,-2,-1,2
116698809821,-7,-5,-3,-1,-2,-3,-1,12
116698811439,1,-3,0,-1,0,-1,-2,-12
116698811439,-7,-27,-2,4,-2,-2,-1,-3
116698832350,23,2,-4,-2,1,-2,-3,2
116698832350,2,6,1,1,-1,-1,-5,-3
116698833969,-5,-15,1,1,-4,-1,1,-3
116698833969,0,4,-1,-8,-1,-1,1,1
116698847347,-7,-1,0,-11,-1,0,-3,-22
116698847347,-3,-11,-4,7,-4,-2,-4,0
116698848951,0,4,0,1,2,0,-2,-1
116698848951,-3,0,0,4,-1,-1,0,-1
116698869859,7,4,-1,-7,1,0,1,14
116698869859,0,3,-1,-5,-4,-1,-1,-3
116698871493,-5,1,-3,1,0,-2,-2,-10
116698871493,-4,0,-1,-4,-8,-1,-2,0
116698883443,-13,3,-3,3,2,-1,-2,29
116698883443,-3,-2,-4,-3,-1,-2,2,-1
116698892498,4,4,2,1,-2,-2,0,-2
116698892498,-1,-5,-4,0,2,0,0,-1
116698907372,1,-3,-3,-4,-2,-2,-6,-7
116698907372,-9,-7,0,-1,-2,-2,-2,-3
116698908962,-4,14,-1,1,0,-1,-1,2
116698908962,15,14,7,5,1,1,0,14
116698929820,-2,-3,2,-1,-4,0,3,-20
116698929820,1,-6,-2,-1,0,1,-2,1
116698931392,4,4,-1,-2,1,0,-1,-6
116698931392,-11,-20,-6,-5,-2,-2,-1,1
116698951668,-4,3,-3,6,-1,-2,0,0
116698951668,6,1,0,-10,-1,-2,-1,-2
116698952485,-7,-15,-2,7,0,-2,-1,-7
116698952485,2,6,-1,-10,0,-2,0,-1
116698966687,-3,-5,-1,4,2,1,-1,0
116698966687,-2,-1,-4,2,-2,-1,0,1
116698967495,1,5,1,-3,-4,0,-2,-6
116698967495,9,7,-2,-3,0,-1,-3,-1
116698989186,1,8,3,0,-1,-1,1,-1
116698989186,1,4,2,-2,-2,-2,-2,2
116698989959,3,-5,-3,-5,-1,0,0,4
116698989959,1,0,3,3,-2,-1,2,-2
116699011674,-9,-7,-1,2,3,0,-2,-5
116699011674,10,14,1,0,-1,1,0,-2
116699012454,-2,-3,1,-5,-3,-3,-1,1
116699012454,-6,-1,-1,-1,2,-2,-1,-5
116699026671,-4,-3,-2,-4,-1,-2,-3,21
116699026671,-9,-7,-2,6,2,-1,-3,-10
116699027470,-1,-1,-3,4,0,-2,-2,-2
116699027470,-2,1,3,-2,-2,0,-3,0
116699049198,-2,-1,-3,-5,-2,2,3,2
116699049198,5,6,0,-3,0,-2,-1,2
116699049954,4,-14,-5,-5,-1,-1,-1,-3
116699049954,-9,7,0,2,-5,-1,-1,-1
116699071639,2,0,-2,-12,-3,-2,-3,-8
116699071639,-15,-12,-4,10,-2,-3,-4,-3
116699072442,-5,-2,0,-1,-2,-2,0,1
116699072442,-3,-1,3,3,2,0,-1,-3
116699086666,1,-1,0,-1,-2,-2,-3,-5
116699086666,3,-3,0,-1,-1,-3,1,3
116699087451,-1,4,-3,-14,-5,-1,-1,2
116699087451,1,-1,-2,7,0,-1,-1,-2
116699109213,-10,-3,-3,5,0,-1,-5,-10
116699109213,-2,-7,-2,2,3,2,3,2
116699109905,6,7,2,2,-1,1,-1,1
116699109905,-5,0,-2,-10,-3,-2,-1,-4
116699131646,-1,-7,-2,5,-2,-1,-1,-1
116699131646,-1,1,2,-3,1,0,-4,-2
116699132423,2,-5,-6,-3,-4,-3,-2,-11
116699132423,-1,8,3,1,1,2,1,0
116699145995,1,8,1,4,1,-1,1,-2
116699145995,-3,-4,-3,-6,-1,-3,-4,-4
116699154225,18,9,5,3,2,1,2,11
116699154225,3,-4,-4,-1,-2,-3,-1,5
116699169189,-4,-3,-4,-1,-3,-2,-3,-5
116699169189,-3,-3,-2,2,0,1,-1,7
116699169932,-14,-15,0,-2,3,0,-1,-6
116699169932,-1,-3,-3,-3,0,-4,-1,-2
116699191648,2,3,1,-1,-1,-1,0,-1
116699191648,1,-1,0,6,0,0,0,-3
116699192417,-6,2,1,-4,4,-1,-1,-4
116699192417,-27,-17,-4,-4,-7,-1,-5,-9
116699208222,-3,-5,0,-7,-2,-1,-1,-6
116699208222,3,3,-1,-4,-3,-3,-1,-2
116699208937,-8,-5,-3,-1,-3,-2,-4,-4
116699208937,-12,-8,-4,3,-1,-2,4,5
116699229198,3,4,0,-1,0,1,-2,1
116699229198,-1,0,-2,-3,-4,-3,-3,-7
116699229985,-1,0,-2,-6,-3,-2,-1,-2
116699229985,3,-1,-1,2,1,-1,-3,6
116699251670,12,-17,-3,-1,-2,-1,3,-8
116699251670,-1,-1,-2,-2,-1,1,-1,0
116699252445,1,1,1,6,2,1,-2,1
116699252445,9,7,-2,-2,-5,0,-2,-1
116699268171,-5,-5,-2,3,3,-1,-3,0
116699268171,0,1,1,-7,-3,-3,5,6
116699268979,-4,-3,-2,4,-1,-1,-1,-5
116699268979,14,-5,1,-2,2,1,-3,-4
116699289167,2,8,1,-8,-3,-1,1,4
116699289167,-3,-3,-1,6,-3,-1,-4,-4
116699289979,3,-1,-1,2,-1,-3,0,3
116699289979,5,7,0,-6,0,1,-3,-5
116699311646,-1,-19,-3,-5,-2,-3,3,0
116699311646,4,0,-1,8,5,0,0,3
116699312421,-3,1,-1,-1,-4,-2,-1,0
116699312421,-4,-4,-6,-11,-10,-2,-1,2
116699326620,-1,-6,-2,-6,-2,-2,-4,-6
116699326620,-4,1,-1,-11,-4,0,-1,1
116699327450,-3,-5,-3,10,-1,0,-2,-3
116699327450,1,2,1,1,3,-2,-1,-6
116699349181,9,7,0,3,-3,-3,-1,12
116699349181,10,-15,-3,-4,-2,-1,4,-13
116699349983,2,1,1,-8,-1,0,-4,-10
116699349983,-3,5,-1,3,2,1,4,13
116699371625,-2,7,1,-1,-2,0,1,4
116699371625,-3,-2,0,5,-1,-1,-4,-1
116699372431,7,5,1,-9,-1,-1,2,2
116699372431,-4,-11,-3,4,-1,-3,-3,-7
116699386708,-4,3,-1,4,0,-1,-3,-6
116699386708,-6,10,0,-17,-3,0,-2,4
116699387419,-11,-10,-4,1,-3,-1,0,-2
116699387419,5,21,6,8,3,1,-2,-4
116699409083,-28,-8,-5,-4,1,-2,2,5
116699409083,1,8,3,0,1,-1,0,-4
116699409920,-2,-3,-5,2,1,-2,-5,-2
116699409920,0,1,-1,1,-2,0,0,0
116699431649,1,5,-2,-1,-4,-2,-4,-2
116699431649,-7,-11,-3,0,1,-2,-2,-7
116699432495,15,-2,-2,-4,-1,-1,1,1
116699432495,-12,10,3,3,1,-1,1,1
116699446670,6,-19,-2,1,-1,-1,-4,-10
116699446670,-4,-4,0,-3,-3,-2,-1,4
116699447426,1,2,2,-1,-1,0,-1,1
116699447426,4,-4,-7,-3,-1,-1,-3,-6
116699470686,-2,6,-2,1,2,-1,2,1
116699470686,-11,-1,-4,-20,-6,-3,-4,19
116699471455,9,6,1,7,-2,0,2,-7
116699471455,-6,-12,-2,0,-2,-1,-2,-2
116699491652,12,3,3,7,2,0,0,-2
116699491652,4,-4,-3,7,3,-1,-3,-8
116699492435,-4,-9,-3,-9,-4,-1,-2,7
116699492435,6,-13,-2,0,-1,-1,-1,-1
116699506667,8,0,-1,1,-2,1,1,-1
116699506667,6,11,2,-3,-1,0,1,-2
116699507420,-8,4,4,-1,1,2,1,3
116699507420,24,5,3,-1,1,-1,1,-4
116699529251,18,0,-1,-2,-2,-2,0,3
116699529251,-10,-2,1,4,-1,1,1,-6
116699529925,-10,1,-2,-3,-1,-1,-3,-1
116699529925,-1,4,-3,1,-1,0,-2,-1
116699551606,1,10,1,-2,0,1,0,-1
116699551606,6,1,-5,0,0,0,-1,-5
116699552410,6,-11,-3,-1,-1,-4,-3,0
116699552410,1,2,0,0,2,1,-1,1
116699566653,-11,1,-1,-6,-5,-1,-1,-4
116699566653,5,0,0,7,-2,-3,-2,-7
116699567422,-10,-2,-2,-5,-1,-3,-2,-1
116699567422,-10,-8,-6,-3,-1,-3,-3,-6
116699589186,-4,1,0,-2,-1,-1,0,2
116699589186,2,1,-5,1,0,1,-1,-1
116699589905,4,3,1,-4,1,1,1,4
116699589905,-4,7,-1,-8,-2,-3,0,-5
116699611644,-7,4,-2,7,-1,0,-1,-3
116699611644,5,4,-1,-2,-1,0,-2,1
116699612412,-5,2,-2,-1,-1,0,-2,-4
116699612412,-18,-14,-4,-4,-3,0,1,2
116699626610,0,0,0,-5,-2,-2,-1,0
116699626610,-6,-5,0,-2,-2,-1,0,-2
116699627462,10,-15,2,5,2,0,-2,1
116699627462,-12,-23,-11,-10,-5,-3,-4,-1
116699649165,-9,-3,-2,3,-1,-3,-4,-4
116699649165,3,6,0,0,0,-1,-1,-2
116699649910,-10,1,-1,-5,-4,-2,0,-1
116699649910,3,2,-1,0,0,-2,-2,0
116699671605,-3,-7,0,2,-6,-3,-5,-4
116699671605,-1,2,-1,20,2,-1,2,1
116699672410,-4,-1,-2,-5,-2,0,1,5
116699672410,-14,-12,0,-7,-1,0,3,0
116699694845,-6,12,-3,-8,3,-1,-1,-2
116699694845,2,-16,-7,-11,-5,-2,-1,-2
116699695634,-11,-1,1,4,0,1,-5,-17
116699695634,4,-19,-4,1,-2,-2,0,-3
116699709161,15,16,3,-1,1,2,0,1
116699709161,-21,-37,-3,-7,-4,-3,-2,-5
116699709920,-8,-3,-3,0,0,-1,0,3
116699709920,9,12,1,2,0,-1,-1,2
116699731701,2,-4,-2,-2,1,-1,1,1
116699731701,18,13,5,0,2,1,-1,3
116699732448,11,10,0,-3,-2,-1,-1,-10
116699732448,3,-9,-1,-7,0,-1,0,5
116699746665,-21,-26,-4,5,-3,-4,-3,20
116699746665,14,18,-2,-41,-9,-1,2,-9
116699747442,-17,-2,1,11,3,1,2,5
116699747442,6,12,0,-1,-4,-2,-6,-5
116699769195,-29,-35,-5,22,5,1,-9,-74
116699769195,-13,-13,-4,9,-3,-2,5,23
116699769939,8,1,-2,-31,-5,-3,-1,-2
116699769939,20,7,-3,0,1,1,4,13
116699791652,-13,9,-2,-12,-5,-1,-4,-12
116699791652,-31,-4,0,1,-2,-5,-10,-23
116699792444,7,-15,-4,6,1,-3,-2,1
116699792444,-12,2,3,-12,-5,-2,1,-7
116699806648,6,6,-1,-40,-3,1,4,13
116699806648,-12,12,3,37,-1,-4,-8,-1
116699807452,-3,6,-2,3,1,-2,5,21
116699807452,-2,-4,0,11,-1,-2,-6,-9
116699829181,7,5,-1,-8,0,-2,1,-4
116699829181,-6,-8,-4,-10,1,0,0,33
116699829952,4,18,2,19,-1,-1,-9,-75
116699829952,7,0,0,-30,-2,1,8,38
116699851629,8,6,0,5,-2,0,0,11
116699851629,-14,-21,-4,1,2,-2,-7,-26
116699852443,0,-13,-2,14,-1,-4,-1,-10
116699852443,-5,2,-3,-4,-1,-2,-2,-24
116699866697,-13,-2,5,5,1,0,1,19
116699866697,20,10,0,-14,-3,-2,-1,-11
116699874195,-3,-8,-4,-3,-3,0,2,78
116699874195,9,2,0,7,0,-2,-5,-10
116699889158,4,1,-1,13,4,-3,-4,-7
116699889158,0,0,0,-1,-4,1,0,8
116699889914,8,3,0,1,1,0,-5,-2
116699889914,-7,-5,0,10,-1,-1,0,-3
116699911628,-19,-15,-7,2,-4,-3,-6,-11
116699911628,22,4,3,7,3,2,2,36
116699912419,2,8,2,-16,-2,0,-2,-35
116699912419,-4,0,1,8,0,-2,-6,-26
116699925985,10,0,2,1,0,1,7,37
116699925985,8,18,1,-1,2,1,1,-2
116699934201,-4,-1,0,-3,-1,0,0,-10
116699934201,-6,4,0,4,0,-1,-3,18
