timestamp,emg1,emg2,emg3,emg4,emg5,emg6,emg7,emg8
82426115884,2,3,-1,-1,-1,-1,-2,-2
82426115884,-1,0,-2,-2,-1,-1,-2,-2
82426116759,-1,0,-3,-2,0,0,-2,-1
82426116759,-2,-3,-1,-2,0,1,-1,0
82426120142,0,2,-1,0,0,0,0,0
82426120142,-1,-1,-1,0,0,-1,0,-3
82426121731,-10,-3,-3,-1,-1,-2,-2,3
82426121731,12,6,1,-1,-2,-1,-2,0
82426134468,1,-3,-2,-1,1,-1,0,-1
82426134468,-2,-1,-1,-2,-1,0,0,-2
82426142415,1,-2,-2,-3,-2,-1,-1,-1
82426142415,1,0,-1,0,-1,-2,2,-1
82426148795,-2,12,-2,-1,0,0,-2,-5
82426148795,-6,-22,-1,-3,-4,-3,-1,5
82426163730,3,4,2,-1,-2,-1,-1,-1
82426163730,-3,-2,-2,-1,-1,-1,-1,-2
82426172408,-3,0,0,1,-1,1,0,-1
82426172408,-4,-25,-4,-3,-1,0,-1,-2
82426187424,-1,-2,-1,-2,-2,-2,-3,-3
82426187424,-7,-3,-2,0,-1,-2,0,-4
82426194563,2,-7,1,-1,-1,-1,0,1
82426194563,-2,12,1,2,-1,-1,-2,-1
82426208559,2,-4,-2,-1,0,0,-1,-4
82426208559,0,-2,-4,-1,-3,-1,-1,-3
82426249497,-2,-3,-3,-3,0,-1,-1,-1
82426249497,1,0,0,0,0,-1,-2,0
82426250285,-2,-3,1,-1,-1,-1,-1,-2
82426250285,1,0,-3,-2,-1,2,0,-1
82426251110,-3,-2,0,0,0,0,-1,-2
82426251110,-1,1,-1,-1,0,-1,-2,0
82426253557,0,0,-2,-2,-2,-2,-1,-1
82426253557,-1,0,0,0,1,0,-1,-2
82426262555,-2,0,-1,-2,-2,-1,-2,0
82426262555,0,13,1,-3,-2,0,-1,-1
82426268605,-2,-7,1,-1,-1,-2,-1,-2
82426268605,-2,0,-1,1,-1,-3,-3,-1
82426277535,0,1,0,-2,0,-1,-2,-1
82426277535,0,1,1,0,1,1,0,-1
82426291103,-2,2,-1,10,-1,0,-1,0
82426291103,-2,-1,-1,-6,-2,-2,-1,-1
82426300057,0,-1,0,-1,-1,-2,-1,-1
82426300057,-2,-4,-1,14,0,-2,-2,-1
82426329973,-2,0,-2,-9,-2,-1,-1,0
82426329973,-1,-3,-1,3,1,0,0,-2
82426331549,-2,1,0,5,-1,0,0,-2
82426331549,-14,-7,-2,-20,-5,-3,-1,-4
82426336776,1,1,-1,-4,1,-2,-1,0
82426336776,-3,0,-3,-7,-2,-2,-2,-1
82426343597,4,1,2,9,3,0,-1,0
82426343597,-1,-6,0,-1,-2,0,-2,-1
82426359950,-2,-1,-2,1,-2,-2,-2,-3
82426359950,1,-2,-4,-15,-2,-2,-1,0
82426361573,-4,-2,-4,-2,-2,-1,1,-1
82426361573,2,-3,-4,6,0,-1,-1,0
82426382407,1,0,-1,-4,-2,0,-1,0
82426382407,2,8,-1,0,0,-1,-1,1
82426383997,-2,-12,-3,-10,-3,-2,-1,0
82426383997,3,2,0,10,-1,-3,1,-1
82426396821,-1,0,-3,-8,-3,-1,-1,-3
82426396821,-2,1,1,0,0,-2,-2,-1
82426403618,-1,1,-2,-16,-3,-4,-3,-2
82426403618,0,-3,-4,0,2,1,-1,-2
82426419994,-1,-5,-3,-19,-2,-1,0,0
82426419994,-1,-5,-1,8,-4,-2,-2,-2
82426421533,0,-1,-2,3,2,-3,-1,-2
82426421533,-1,-3,-1,-1,-4,-2,-2,-1
82426442415,-2,0,0,5,-1,-4,-1,-1
82426442415,-1,-1,0,-8,2,0,0,0
82426444039,-2,2,-3,8,3,7,0,0
82426444039,0,0,-1,5,2,-2,-1,0
82426456130,-1,-1,0,-16,-2,-3,-2,-3
82426456130,-1,-1,0,-2,-5,-5,1,-2
82426465102,-2,2,-2,-1,-1,6,0,-2
82426465102,-4,-25,-3,15,0,-5,-2,-3
82426487479,-2,-1,-2,7,-1,-8,-4,9
82426487479,-2,-3,0,-4,-1,0,-2,-2
82426489053,1,0,-2,14,-3,2,2,-3
82426489053,2,8,-4,-12,-5,3,0,0
82426502392,-6,-3,-2,8,2,2,0,-2
82426502392,-1,-7,-3,1,0,-2,-1,-2
82426504033,0,1,1,-11,-5,-6,-6,4
82426504033,-1,2,1,-14,2,0,-1,-4
82426524963,-4,-4,0,-10,-1,4,2,-5
82426524963,1,2,0,8,-1,-2,-1,0
82426526621,16,2,1,-2,-5,-7,-2,-3
82426526621,-1,1,0,6,-1,4,-2,-2
82426539966,-5,5,-2,-6,3,-10,-4,-9
82426539966,3,6,0,10,-1,1,3,9
82426541572,-4,-1,-4,-5,-6,-3,-3,-2
82426541572,-3,-2,-2,-9,-2,-8,3,-1
82426562436,5,3,-3,8,6,16,3,0
82426562436,-4,0,-1,11,5,4,1,-4
82426564048,-3,-4,-3,-17,-11,-18,-4,2
82426564048,8,8,0,-10,4,6,-1,-4
82426576293,-4,-3,-6,1,-12,-3,0,7
82426576293,-6,-7,-1,14,-1,0,-4,-6
82426585080,-2,-1,-3,3,3,1,7,3
82426585080,1,0,-3,4,-2,5,-3,-2
82426600146,-1,0,-1,-10,0,-2,-4,0
82426600146,-4,-10,-5,-14,-7,-20,6,2
82426601572,-2,3,3,7,2,5,0,-6
82426601572,0,7,0,-1,-3,-8,1,6
82426622736,2,0,1,5,8,19,-6,1
82426622736,0,4,0,-18,-7,5,5,2
82426624160,-5,-4,-1,5,0,-12,2,1
82426624160,-3,2,0,1,-1,5,-1,-6
82426636351,-1,-5,-4,12,-3,-4,-3,-7
82426636351,0,-3,0,-1,-3,-6,-9,-5
82426645160,-4,-1,-2,-14,1,10,6,-1
82426645160,12,-2,0,-1,-2,-21,-9,-1
82426660142,0,5,4,2,-8,-3,-8,0
82426660142,-4,-2,-1,5,1,19,6,-5
82426661580,-7,-3,-1,-2,0,-18,-3,-8
82426661580,2,14,0,1,12,46,2,-1
82426682689,1,-3,5,7,-3,-29,-4,-8
82426682689,2,1,0,-2,-6,-14,4,40
82426684170,6,-4,-3,-29,-4,18,4,6
82426684170,-6,-4,0,0,-5,-23,-5,3
82426696296,2,1,-6,-10,-5,0,-5,-4
82426696296,-1,-4,1,7,-4,2,-1,-11
82426705171,-5,17,-1,-3,-8,-5,-1,-5
82426705171,-6,-15,-2,-2,-4,-13,-6,-4
82426720050,0,0,1,-2,1,-1,2,13
82426720050,0,-2,-1,4,4,-9,-14,-20
82426721609,3,18,4,5,14,13,9,16
82426721609,-1,1,3,-10,1,14,1,-14
82426742470,-4,-4,-1,-4,-9,0,10,3
82426742470,4,3,-2,1,-6,-10,-4,14
82426744072,-4,-9,1,3,-2,-15,-22,-17
82426744072,-9,-6,-5,2,-9,-2,-5,-13
82426756094,3,-4,-10,-15,3,-11,1,22
82426756094,-4,2,3,13,7,18,-8,-12
82426765191,1,-11,-7,-13,-4,-7,6,14
82426765191,1,2,6,16,1,1,2,7
82426779986,-3,-2,4,-28,0,20,8,-15
82426779986,-3,-5,-9,-23,-5,0,-4,-9
82426781621,1,-3,-3,6,5,4,-2,-3
82426781621,-4,-19,-10,-7,0,6,-7,1
82426802629,1,1,3,18,6,-1,1,-12
82426802629,0,0,0,-19,-22,-35,-6,0
82426804100,0,-2,-3,-3,-1,-12,-12,3
82426804100,-21,2,2,7,-5,-5,4,3
82426816140,-4,1,2,31,10,29,2,1
82426816140,3,-4,-1,-9,15,22,7,2
82426825108,-2,-4,2,9,-2,-6,-2,-8
82426825108,5,3,3,10,-8,-4,7,16
82426847687,-7,-6,-4,-51,-2,-23,-22,-7
82426847687,-3,6,-5,57,2,0,-7,-37
82426849104,-1,-3,-2,-22,1,12,12,15
82426849104,3,3,3,-3,-3,-2,5,8
82426862572,-1,-4,-5,9,-6,-19,-17,-14
82426862572,1,2,2,-5,-5,12,27,8
82426864102,-3,-3,1,11,-1,-7,-10,-12
82426864102,4,-1,-2,9,-2,-6,-1,3
82426876359,0,1,3,4,9,14,-8,3
82426876359,-5,-5,-5,-10,-4,-6,0,1
82426885145,-2,-2,1,-30,-2,5,-6,-5
82426885145,-3,0,-2,-15,-7,-4,1,0
82426899516,0,-5,-3,6,-7,-2,3,5
82426899516,-4,-4,0,0,-7,-5,-21,-22
82426906366,3,-5,-4,69,-1,-10,21,26
82426906366,3,-1,2,0,11,-8,-16,-12
82426922672,1,0,5,26,14,14,27,4
82426922672,0,-4,-13,-16,6,17,5,1
82426924126,1,4,11,37,-4,13,3,6
82426924126,0,-2,-13,-30,-9,-6,-7,-8
82426936208,-2,-2,-6,-2,-19,-35,-7,3
82426936208,-1,0,9,-5,12,-4,-2,-7
82426945096,-3,5,-4,21,6,5,-2,-8
82426945096,0,-6,0,-36,5,29,1,1
82426959380,3,4,5,-14,-7,-33,-7,5
82426959380,-1,-2,-3,-1,-11,9,5,5
82426966343,-5,-1,-3,-7,-6,-4,-21,-20
82426966343,9,7,10,37,0,-2,17,4
82426982467,-3,-1,-5,-23,-4,-5,4,-6
82426982467,-1,0,8,22,10,-1,-30,3
82426984083,0,-5,-4,-27,-16,-16,15,-4
82426984083,-2,2,5,41,18,19,-6,-3
82426996384,-1,-2,8,-13,-5,3,2,0
82426996384,1,-2,-8,-8,-6,-4,-6,5
82427005033,-5,-3,-1,-31,5,4,-20,-28
82427005033,-9,4,-1,-4,-9,-48,17,38
82427019336,11,2,-2,24,4,38,6,-27
82427019336,-3,-5,-6,-23,-2,0,-5,-7
82427026399,6,-1,2,-9,-7,33,2,40
82427026399,-2,1,1,-6,-2,-51,-6,-17
82427042646,0,2,2,15,21,37,-7,12
82427042646,-3,-1,-1,-38,-10,-22,12,-7
82427044121,-10,-5,0,-10,6,12,-11,-17
82427044121,1,-3,-7,22,2,17,5,-38
82427056195,7,2,2,8,-8,-26,-8,63
82427056195,2,1,1,-4,-5,7,2,12
82427065108,-22,4,-7,-16,3,11,-13,-77
82427065108,-36,-25,-7,-13,7,8,-1,17
82427079554,-12,6,-3,13,-14,-23,-11,-113
82427079554,13,4,-5,-6,8,15,38,67
82427086137,-2,3,4,-1,-13,-9,32,-39
82427086137,9,-6,1,-5,-2,4,-6,20
82427102486,-61,3,-8,-17,-6,-4,-48,-38
82427102486,-8,-24,8,16,-7,-38,27,18
82427104094,47,25,7,15,16,7,10,14
82427104094,-46,-10,-11,-25,-8,34,-25,-59
82427124943,-18,-1,0,0,-3,-16,-11,-70
82427124943,-1,-7,2,11,7,15,0,-108
82427126518,5,-3,-6,-10,-15,-17,-6,114
82427126518,16,-6,-4,-8,6,-23,-15,-41
82427139335,-9,-19,0,5,4,10,36,-14
82427139335,-22,15,-13,-2,-11,3,14,63
82427146312,18,-4,0,0,9,21,15,76
82427146312,-11,10,-1,-7,-15,-25,-53,-43
82427162688,17,-20,-12,-2,-1,-11,1,36
82427162688,11,-3,-9,-13,5,39,-6,-25
82427164105,-26,-7,3,6,-8,-34,-16,64
82427164105,29,13,-5,-6,-10,12,-3,-5
82427185019,-36,-3,-5,-7,0,-19,3,-27
82427185019,-10,6,10,9,13,4,-33,-40
82427186610,20,-12,-10,-12,-22,-19,-21,-37
82427186610,1,-1,5,6,7,8,19,16
82427199509,19,15,0,-10,-15,14,9,37
82427199509,27,5,-2,-5,0,4,-19,47
82427206326,-27,-11,1,11,33,-5,7,-75
82427206326,22,5,6,-7,-4,7,38,59
82427221302,35,1,5,4,-3,10,8,25
82427221302,-3,-1,-3,-6,-1,-17,-34,-10
82427230179,-14,-2,2,-5,-17,-32,-36,-44
82427230179,-5,3,-7,-2,11,24,61,31
82427245120,17,3,2,13,7,-4,-7,97
82427245120,-3,-1,-1,-7,-12,17,22,-22
82427246560,-7,-3,-3,4,3,-22,-1,-25
82427246560,3,-1,-4,0,4,6,14,-2
82427267674,-19,-3,-4,0,-6,22,-20,-39
82427267674,29,-3,2,5,0,-45,34,54
82427269103,-7,2,-6,4,6,39,20,-15
82427269103,7,2,-6,-5,-5,10,-28,15
82427290235,-1,-5,-8,-5,0,-19,-5,-18
82427290235,-23,11,-2,0,-13,-15,-5,-21
82427291804,-11,2,1,6,6,19,7,-46
82427291804,4,-3,0,-5,0,-5,-7,4
82427304386,27,5,9,8,-4,-5,3,40
82427304386,-4,-7,-2,-10,7,5,-7,30
82427311318,7,-1,-1,0,-7,-19,-22,24
82427311318,11,-1,-2,0,10,26,18,76
82427327516,-11,1,-3,-6,-2,2,-3,-16
82427327516,-4,8,5,12,-9,-3,-4,-28
82427329123,-4,-3,-4,-25,4,-12,-6,20
82427329123,19,-6,-3,2,-7,-15,-26,-20
82427341108,-1,1,-1,9,-1,0,2,-20
82427341108,-3,-1,1,4,-2,0,-9,-15
82427350179,1,-3,0,1,-1,13,7,-6
82427350179,0,1,2,-2,-8,-21,-9,13
82427365283,4,-1,0,2,1,-1,2,-6
82427365283,-1,-1,-2,-36,1,7,-9,-1
82427366610,-5,-2,-1,2,1,15,7,-7
82427366610,9,0,-1,-9,-17,-16,-9,-5
82427387647,8,0,2,-7,2,-7,5,10
82427387647,-4,-2,5,15,8,4,-9,-9
82427389105,2,-2,0,-5,-11,-18,-19,-14
82427389105,-9,1,0,4,9,17,-2,-14
82427401141,3,-10,-5,-10,7,31,18,-3
82427401141,-8,-3,-2,12,-4,-21,-9,-15
82427410169,1,0,-1,-4,-3,2,-1,-5
82427410169,-2,-4,-1,-2,-11,-13,17,2
82427425013,-5,1,0,28,5,0,-9,2
82427425013,2,-1,-2,-32,6,9,5,-3
82427426620,2,-4,-8,10,-3,0,8,14
82427426620,-13,1,0,-6,-1,-9,-9,-24
82427447679,6,-1,-4,-3,3,-8,-1,-2
82427447679,-5,-4,0,26,1,6,6,1
82427449101,-1,-1,1,11,-1,0,-6,-5
82427449101,-4,0,1,-6,-1,-6,-2,-20
82427461318,-4,-1,-2,-12,-4,0,5,-1
82427461318,-3,-4,-4,-6,-11,-3,-6,-3
82427470106,-2,-1,0,-10,0,-12,-4,-1
82427470106,-6,-4,-6,8,1,8,3,-10
82427485158,1,0,-6,-14,-1,6,4,11
82427485158,0,0,0,-8,-4,-6,-4,-5
82427486599,2,-1,1,25,3,4,2,-1
82427486599,-6,-2,0,13,-10,-1,-8,-13
82427507520,-2,4,-3,-14,-10,-39,-6,6
82427507520,-1,2,-1,1,11,16,-3,-4
82427509090,0,1,1,-14,-1,9,6,2
82427509090,-3,-2,2,-43,3,5,3,-6
82427521169,-3,-2,-4,27,3,13,3,-3
82427521169,-2,-3,1,0,-4,-16,-9,-2
82427530107,3,-1,-3,-5,-2,-5,3,4
82427530107,-8,3,5,10,0,3,-5,-14
82427544325,-1,-3,-3,-17,-2,3,2,-1
82427544325,5,-3,-5,-3,-3,-8,-3,3
82427551125,-3,-4,-6,1,-2,10,5,-3
82427551125,-1,0,2,7,3,-16,-4,2
82427567490,-2,-9,1,-10,-6,3,0,-16
82427567490,-2,-1,3,15,1,0,-4,-2
82427569088,-1,-2,0,-6,0,3,2,3
82427569088,1,-3,-1,4,-7,-14,-2,0
82427581171,9,0,4,-27,1,8,9,5
82427581171,-4,2,-1,5,4,6,-4,2
82427590242,6,-1,0,16,3,-2,1,44
82427590242,-6,1,-8,-23,-9,-1,-2,-8
82427604355,-5,-1,3,27,8,8,3,-1
82427604355,2,-1,-1,-2,-6,-2,1,1
82427611143,-1,0,-2,-9,-1,-12,-4,-6
82427611143,-1,-1,3,13,2,-10,-6,-2
82427627574,-4,-1,-7,-2,0,-4,-1,5
82427627574,-5,-3,0,-2,2,12,3,-4
82427629127,-4,-3,7,0,-10,-11,-5,-15
82427629127,-2,-1,7,-4,2,-3,-1,7
82427649992,0,0,21,0,1,2,-4,-12
82427649992,-5,-1,11,10,5,6,9,-6
82427651567,0,-4,-5,-17,-1,30,1,9
82427651567,-5,0,-6,6,-9,-41,-15,-6
82427663606,2,2,-15,1,-7,-7,4,6
82427663606,1,-2,-15,-1,3,-2,-4,-4
82427672646,-4,2,-11,2,3,10,2,-10
82427672646,-3,-4,-4,-8,-1,8,3,-10
82427687527,-4,0,-2,0,-2,7,-9,3
82427687527,-1,1,3,0,-5,-28,-3,-1
82427689180,-2,-3,4,11,-4,-10,-4,-10
82427689180,-1,0,-4,-4,7,13,1,7
82427709998,0,-1,-4,-5,1,5,4,-7
82427709998,0,-1,-4,9,-3,11,2,3
82427711518,-2,0,-6,-6,0,-9,-7,-7
82427711518,6,-13,-7,7,-5,-17,-3,1
82427724485,-6,-1,-2,3,0,7,-2,5
82427724485,19,2,-2,1,-1,-10,-20,-13
82427731205,-3,0,1,-2,-1,-3,21,2
82427731205,-2,5,3,4,9,14,-6,-14
82427747506,10,-3,-7,4,-3,-2,9,32
82427747506,-9,-4,-4,-4,1,-6,-5,-3
82427749012,3,-1,1,0,-4,-6,-6,-9
82427749012,-3,0,-4,-7,-8,9,2,-18
82427769951,-8,-1,-1,2,1,-9,2,1
82427769951,-5,-1,-4,-11,-2,-10,-2,5
82427771624,-2,0,-2,-8,-1,5,-2,-5
82427771624,-3,-1,0,6,2,0,7,19
82427783707,-2,1,0,-2,-3,7,-9,-42
82427783707,-3,-3,0,0,-4,2,7,25
82427792671,-4,4,-2,-10,-8,-21,-8,0
82427792671,1,-7,0,-2,3,17,-2,-10
82427807478,-2,-1,-4,-9,-3,-15,-3,-4
82427807478,0,1,-1,4,3,13,4,-8
82427809064,-2,-1,0,17,1,-4,-4,-6
82427809064,0,4,-1,-2,-9,0,1,8
82427830145,6,-4,-1,-4,-5,-2,-6,20
82427830145,-3,-4,0,1,-8,-27,3,0
82427831642,-1,-4,-1,-4,3,14,-8,-1
82427831642,-5,-2,-3,2,-2,-1,7,-6
82427843905,0,-1,1,8,5,11,3,-6
82427843905,-4,-2,-4,-4,-6,-4,-2,-11
82427852629,-1,1,2,13,-1,1,1,2
82427852629,-3,1,-1,-24,2,6,-4,-9
82427874966,-6,1,-1,-14,-13,-2,-7,-8
82427874966,-4,2,-2,-2,-2,-4,-2,-4
82427876533,3,-9,-4,0,0,-8,-3,-20
82427876533,-2,0,-5,2,-3,-2,-15,42
82427889971,-4,2,1,2,0,-3,18,0
82427889971,-3,1,0,-7,0,13,3,-1
82427891526,-3,0,-3,-11,-8,2,-4,-6
82427891526,0,-1,5,4,0,-2,-3,-29
82427903825,6,-3,5,5,1,-27,-15,4
82427903825,3,-4,2,-6,2,5,-3,3
82427912659,-4,0,4,11,3,-4,5,4
82427912659,2,-2,1,-15,-2,5,-2,-1
82427927510,3,2,2,-4,0,0,1,-4
82427927510,4,-2,2,10,6,4,4,-1
82427929118,4,0,2,4,5,5,1,2
82427929118,7,-15,-2,10,-1,-5,2,-2
82427950153,-8,-5,-5,-23,-2,3,-2,-11
82427950153,20,4,2,-14,-2,-4,0,10
82427951566,-3,-2,-2,11,3,2,0,3
82427951566,-11,5,1,18,4,-8,0,-3
82427963830,-12,-1,-4,-7,-3,-7,-6,-11
82427963830,-15,-6,-2,3,-4,10,-3,-5
82427972571,-8,4,0,-8,0,-18,1,5
82427972571,-1,3,-1,7,5,12,9,0
82427987510,-4,-4,-5,-1,0,1,-4,-4
82427987510,-6,3,-4,3,-3,0,0,-4
82427989155,4,0,-4,3,-5,1,-2,3
82427989155,-9,14,-7,-37,-11,-10,-4,3
82428011435,10,2,1,-1,0,2,-1,7
82428011435,0,0,-4,-15,-5,-8,-1,1
82428012990,-3,0,1,2,0,6,-5,3
82428012990,0,-10,-2,6,2,-4,-4,-6
82428023705,-1,0,3,5,-3,6,4,1
82428023705,-1,-1,5,-3,-3,-11,-6,-3
82428032633,5,7,4,-4,2,-6,-2,-2
82428032633,4,3,6,7,2,4,3,-13
82428047427,2,-2,0,5,2,-2,-2,-7
82428047427,-4,-8,-1,-1,0,4,-1,-7
82428049074,1,-5,-1,-10,-1,1,-1,-6
82428049074,0,-3,0,-6,-1,-6,-2,-1
82428070181,-6,-6,-2,3,1,-1,-3,2
82428070181,-3,4,3,28,7,-8,-3,-1
82428071573,-3,9,-5,-23,-2,9,0,2
82428071573,2,-3,-3,-2,0,-3,-2,-14
82428083579,0,4,-2,0,-2,1,4,8
82428083579,7,-2,-3,-10,-4,0,-2,-3
82428092606,-21,-7,-3,7,0,-3,-2,-5
82428092606,1,-3,-4,5,-2,0,3,7
82428107639,-4,-6,-4,-2,-5,-7,-3,-9
82428107639,-5,-1,-3,-7,1,6,1,3
82428109092,1,-5,-2,-2,-3,0,-1,-6
82428109092,0,2,2,6,-2,-2,2,5
82428130158,-3,-4,-4,0,-2,-4,-3,1
82428130158,-1,-3,-1,2,-2,0,0,2
82428131679,5,-3,-2,-7,-3,0,0,2
82428131679,-3,0,-3,2,-1,-3,-3,-3
82428143843,2,3,0,5,0,-1,-2,1
82428143843,-5,-3,-2,-5,-2,0,-2,-7
82428152659,3,-2,-1,-1,-2,0,1,3
82428152659,-4,0,-3,1,-1,-4,-2,2
82428167695,-1,0,0,1,0,1,-2,1
82428167695,-2,3,0,-5,-1,1,-1,-5
82428169110,-3,-8,-4,-4,-2,-2,-1,2
82428169110,3,-2,-3,16,0,0,-1,9
82428190036,-2,-3,-2,-12,-4,0,-1,2
82428190036,15,7,1,1,1,0,1,2
82428191577,2,2,0,-2,-3,-3,0,-1
82428191577,-2,-3,0,3,2,-1,-1,-3
82428203646,10,4,1,1,1,-1,-2,0
82428203646,-27,4,-1,8,-2,-2,-2,-1
82428212613,-5,-5,-1,-5,0,-1,0,11
82428212613,2,2,0,-5,-3,-1,-1,-3
82428227503,-1,9,1,17,7,-1,-1,-2
82428227503,-1,-20,-5,-30,-9,-3,1,-1
82428229109,15,11,2,10,1,-1,-2,-3
82428229109,-5,-2,0,-7,-1,-2,-1,-1
82428249985,-4,9,-1,-3,-1,-1,-2,0
82428249985,-3,-2,-3,12,3,-1,-1,-2
82428251502,-7,-8,-5,-2,-1,1,1,-2
82428251502,4,-3,0,-7,-2,-3,-1,2
82428272580,4,10,2,1,0,0,-2,-4
82428272580,2,-1,1,14,2,0,-4,0
82428274130,-4,-10,-3,-20,-6,-2,-2,-4
82428274130,-2,5,0,4,0,0,-1,-2
82428287663,-9,-10,-7,-6,-3,-3,-3,-6
82428287663,-5,-14,-5,-4,-3,-2,-1,0
82428289134,1,5,-1,0,-2,-2,-1,-2
82428289134,-6,0,-3,5,-1,-1,-1,-2
82428309924,-16,-25,-2,-12,-3,-1,0,-5
82428309924,19,-13,2,8,1,0,2,4
82428311606,1,-2,1,-3,2,0,-1,-1
82428311606,4,-3,-3,-13,-3,-2,-1,0
82428323813,-3,5,0,14,-2,-2,-2,-3
82428323813,-6,-21,-1,-4,-2,-2,-2,-1
82428332638,-2,0,-2,-2,-2,-1,0,-1
82428332638,-9,-5,1,2,1,0,0,-2
82428347488,10,10,-2,-14,-8,-3,1,2
82428347488,-5,16,1,-10,-1,0,-3,-2
82428349076,-5,-19,0,-1,-1,-1,-3,-2
82428349076,-2,-6,-2,-10,-2,1,0,1
82428370135,1,-7,-1,24,-2,-2,0,-1
82428370135,1,9,0,6,5,-1,-1,-2
82428371564,-2,-1,-1,-8,-3,-2,-1,-3
82428371564,-1,0,0,-4,-8,-3,-2,-2
82428383591,2,-5,-3,-9,1,0,-1,0
82428383591,-2,3,-1,3,-1,-2,1,-2
82428400092,12,8,0,12,4,-1,-1,-1
82428400092,0,2,3,10,3,-2,-1,-2
82428406764,-1,-1,-6,-14,-5,-2,-3,-1
82428406764,0,1,0,3,0,-1,0,-1
82428413582,-3,0,0,-1,0,-1,0,-3
82428413582,2,3,-2,-6,-5,-3,-3,-2
82428429963,2,-5,0,2,-1,1,-1,0
82428429963,-5,0,-4,-7,-1,0,-1,-1
82428431638,-4,-1,1,3,-2,0,0,0
82428431638,10,-2,-1,0,-3,0,-1,2
82428443855,-2,0,-1,0,3,-1,1,-1
82428443855,-2,6,-5,-4,-1,0,-3,-3
82428452572,-5,-18,1,5,-2,0,-2,3
82428452572,-2,-3,-3,-1,-1,0,1,1
82428467416,-1,-1,-2,-4,-1,-1,0,1
82428467416,4,5,1,2,-1,0,0,0
82428469011,-4,3,-4,-1,-2,-1,-1,-3
82428469011,-37,-5,-4,-5,0,-2,-3,-4
82428489987,3,-1,0,1,-3,-1,2,-1
82428489987,-1,-1,-1,-9,-3,-4,-3,-3
82428491586,-4,4,-3,-2,0,-2,-2,-3
82428491586,4,-2,-1,0,1,0,-1,-1
82428503582,-4,0,-2,1,0,-1,-1,-2
82428503582,-6,-4,-3,-1,-3,-2,-4,-1
82428512611,3,3,-2,2,-2,-3,-1,-2
82428512611,7,1,-2,-6,-1,-1,-2,-1
82428526813,-4,14,4,-1,1,-2,-2,-1
82428526813,-13,-24,-5,-4,-2,-1,-3,-1
82428533607,7,-1,-2,0,0,0,-3,-10
82428533607,9,6,6,6,2,1,2,14
82428550254,0,-1,1,-1,-2,-1,-1,1
82428550254,-3,3,1,-3,-2,-1,0,4
82428551558,1,2,2,-2,-1,-2,-2,-1
82428551558,0,-1,3,3,3,-2,-2,-4
82428572634,-1,-9,0,-4,-2,-1,-2,-1
82428572634,0,5,1,-2,-1,0,0,-3
82428574107,3,-2,1,0,0,-1,-1,1
82428574107,4,-2,-4,-1,0,1,-1,-6
82428587455,-3,-7,-1,-2,0,-1,0,0
82428587455,-19,0,-2,-1,0,-2,-2,-5
82428595147,-1,5,-2,-2,-1,-1,0,1
82428595147,-3,-27,-7,-6,-3,-2,0,0
82428609989,-7,-4,-3,-1,1,-1,-4,-4
82428609989,14,10,1,1,0,0,1,2
82428611603,-6,1,-3,-2,-1,1,-1,0
82428611603,2,3,-3,1,-3,-2,-1,0
82428632454,-5,-5,-2,-1,-1,1,0,-2
82428632454,3,-4,-1,-1,-1,1,-1,-2
82428634106,1,0,1,-2,0,0,1,3
82428634106,-1,-14,-4,0,-1,-1,-3,-4
82428646906,2,-1,1,0,1,-1,0,1
82428646906,1,1,-1,-3,0,-2,-2,1
82428653821,-2,-2,-2,-1,-3,-1,-1,-3
82428653821,-4,5,0,1,0,-1,0,-4
82428670038,1,-1,-1,-2,-3,-2,0,-2
82428670038,0,-1,-2,0,-1,-2,-1,-2
82428671568,-5,-2,-4,-3,-1,-2,-1,0
82428671568,-14,-12,-6,-4,0,-2,-1,-2
82428692490,0,3,2,-1,0,0,-2,3
82428692490,3,2,-3,-2,-3,-2,-1,-2
82428694074,-3,-5,0,3,1,1,-1,-1
82428694074,7,10,2,0,-1,0,0,0
82428706325,-13,3,0,-1,0,-1,-1,-4
82428706325,-3,-4,1,2,-1,0,-2,-6
82428715133,-2,1,1,-1,-1,-3,-1,3
82428715133,4,5,3,1,-1,-1,0,-2
82428730156,1,-6,-2,-1,-3,-1,-2,-1
82428730156,2,2,-4,-1,0,-1,0,-1
82428731530,-3,1,0,-1,-1,-1,-1,-2
82428731530,2,4,-1,0,-2,0,-1,-2
82428752457,-1,-7,-3,-1,-2,-1,-1,-3
82428752457,10,16,2,-1,-1,-1,0,2
82428754073,2,-42,-4,-1,-2,1,1,2
82428754073,8,3,-5,-5,-3,-2,-1,-1
82428766283,2,1,2,1,0,0,0,1
82428766283,-13,-4,-3,-2,-4,-2,-2,-1
82428775207,-5,6,-1,0,0,0,1,0
82428775207,13,12,2,0,-1,0,-2,-2
82428790166,7,-12,-3,0,-2,-3,-3,-1
82428790166,3,-4,-3,-4,-4,-2,-1,1
82428791600,32,46,3,0,-1,0,-1,0
82428791600,-15,-18,-1,1,0,0,-1,1
82428812695,-7,2,-1,-1,-2,-2,-3,-1
82428812695,2,1,2,1,0,0,0,2
82428814113,-4,-18,-6,-3,-2,-1,-1,-5
82428814113,1,9,0,0,-1,0,-1,3
82428826146,-3,-1,-5,-1,-2,-1,-2,-1
82428826146,-1,-4,0,0,1,-1,0,0
82428835086,-13,-7,-3,-3,-3,-1,-3,-2
82428835086,1,-2,-3,-3,-2,-2,-1,-7
82428849998,3,-3,1,-2,-1,-1,1,0
82428849998,-6,-6,-1,0,-2,1,0,0
82428851604,2,7,-1,0,0,-3,-2,0
82428851604,-6,-1,1,-1,0,-1,-1,-5
82428872454,7,14,-2,-2,0,-1,-1,3
82428872454,-1,8,-2,-2,-1,0,-1,-2
82428874031,-11,-7,-1,-2,-2,-1,-3,0
82428874031,0,17,5,6,2,0,0,2
82428886103,-3,-7,-3,-2,0,0,-2,-3
82428886103,-3,-7,-1,-1,-1,-1,-1,0
82428894437,-1,-3,-2,-4,-2,0,0,0
82428894437,2,-7,-2,1,0,-2,0,0
82428909503,0,6,1,1,0,-1,0,-1
82428909503,-5,0,-1,-2,0,-1,-1,-3
82428910103,-16,-10,-2,0,-1,-3,-2,-5
82428910103,-5,-35,-6,-4,-3,0,-2,-1
82428931765,-1,0,-2,-2,-2,1,-1,-3
82428931765,4,-6,-2,-2,0,-1,0,-1
82428932551,0,-2,1,2,0,-2,0,-1
82428932551,-2,28,-4,-5,-2,-1,-4,-4
82428954924,2,-11,0,1,-1,-1,0,1
82428954924,-1,-2,0,-1,-2,-1,-3,-1
82428955730,0,10,2,2,0,0,-2,0
82428955730,13,26,2,1,0,-1,0,-1
82428969183,2,-2,-3,-4,-4,-1,-2,-2
82428969183,2,3,-4,1,0,-3,-1,-2
82428970035,-2,-1,-1,-1,-1,-1,0,-2
82428970035,-1,-5,1,-1,-1,-3,-2,1
82428991758,-5,-4,-2,0,-2,-1,-1,-1
82428991758,-3,-6,-4,-2,-2,0,0,-1
82428992537,1,6,-2,-2,-2,2,1,-1
82428992537,-3,-7,0,-2,-1,-1,-1,-3
82429006030,-2,2,-1,0,0,-2,-2,5
82429006030,0,-2,1,0,-4,-2,-3,-5
82429014297,-31,-1,-3,0,-3,-2,-2,6
82429014297,-5,-7,-1,-3,0,0,0,0
82429029305,-1,0,0,0,0,-2,-2,-2
82429029305,-6,-2,2,1,1,-1,-1,1
82429030036,10,-6,0,-2,-1,-1,-3,-3
82429030036,-3,12,-2,0,-2,-2,-1,-3
82429051825,9,1,2,-1,-2,0,1,0
82429051825,3,-1,2,1,-2,0,-1,-1
82429052614,4,0,-4,-3,-2,0,0,-3
82429052614,2,19,-1,0,0,-1,-3,0
82429066310,2,-29,-2,-2,0,0,1,-1
82429066310,0,3,0,-1,-1,-1,-1,2
82429081933,4,-5,0,-1,-1,-1,-1,1
82429081933,-4,-8,-2,-5,-4,-2,-2,-1
82429097492,-3,6,-2,-1,0,-2,-2,-2
82429097492,2,-5,-2,-4,-4,-2,-1,-2
82429098282,-1,6,-2,-2,-1,-2,0,-1
82429098282,0,-13,1,-1,-2,-1,-2,-1
82429111761,-6,3,-1,0,-1,1,-3,-2
82429111761,-4,1,-5,-3,-1,1,1,-2
82429112601,5,2,1,-2,-3,0,-2,-6
82429112601,-2,-9,-1,0,-2,-2,0,5
82429126096,-3,1,-1,-5,-5,-2,-2,-1
82429126096,-6,-10,-2,0,0,0,-2,-2
82429134331,4,2,-1,-1,-1,-1,-1,-4
82429134331,-2,-3,-3,-1,0,1,-3,-2
82429149272,-23,-33,-4,-3,-2,-3,-1,-2
82429149272,-1,3,-2,0,-1,-3,-1,-2
82429150099,-2,-1,-2,0,-3,-3,-4,-2
82429150099,2,-2,1,0,2,0,0,-4
82429171770,-11,36,0,2,0,-2,-3,-2
82429171770,-9,-5,0,-1,-1,1,-1,1
82429172570,0,-5,-3,-3,-1,-1,-2,-1
82429172570,-9,-5,0,-1,0,-1,1,0
82429187604,18,5,-1,1,1,1,1,-1
82429187604,3,0,4,0,-1,-1,-2,1
82429194522,0,1,1,0,0,-2,0,0
82429194522,-2,-6,-4,-2,-1,-2,-1,-3
82429209476,0,0,0,-1,3,0,-1,-3
82429209476,3,0,-1,-4,-1,-1,0,-1
82429210110,2,-2,0,-1,0,0,2,1
82429210110,-2,-3,-6,-5,-2,-2,-2,-2
82429231750,3,0,2,1,-2,0,-1,-6
82429231750,-6,5,-1,1,-1,-2,-2,-1
82429232511,-1,3,1,-1,-1,-1,0,-1
82429232511,2,-4,0,0,-3,0,0,-1
82429246041,-9,-5,-4,-4,-4,-2,0,-1
82429246041,3,3,0,2,-1,0,-2,-2
82429254221,-2,-5,-3,-1,-3,-2,-1,-1
82429254221,-2,-3,0,-2,-2,0,-1,-1
82429269217,1,0,-2,-2,2,2,0,2
82429269217,3,-3,-1,-2,-2,0,1,1
82429269986,5,4,-1,1,-1,-2,-2,0
82429269986,-7,-4,-5,0,0,-1,-1,-1
82429299906,0,1,-3,-7,-5,-1,-1,-3
82429299906,4,1,-3,-4,-2,-2,0,1
82429300707,2,-29,-3,0,-1,-3,-1,-4
82429300707,-22,4,4,2,-1,-1,1,8
82429306060,5,0,-4,-1,-2,-1,0,3
82429306060,4,16,1,0,0,-3,-2,-3
82429314243,18,25,3,-1,1,2,-1,0
82429314243,1,-5,-2,-1,-1,0,0,-3
82429329297,-5,-6,1,3,-1,-1,-1,-3
82429329297,-4,2,-3,0,0,0,-2,0
82429330053,-4,4,-2,-1,-2,0,-1,-2
82429330053,4,-2,-2,-2,0,-1,-2,-2
82429351877,2,6,2,1,0,-1,-2,0
82429351877,0,-8,-2,0,-1,-1,0,-2
82429352614,-9,-5,-1,-1,0,-1,-1,-1
82429352614,9,-5,0,-2,-1,-1,-1,-1
82429366182,1,0,1,1,-2,-3,-2,-1
82429366182,-1,-7,-1,0,-1,-1,-2,-3
82429374265,-5,-5,-2,1,0,1,-2,-1
82429374265,2,5,-1,-3,-2,0,-2,-2
82429389260,-1,-2,1,-2,-1,-1,0,-2
82429389260,-4,-7,-2,1,-1,-1,0,-1
82429390020,1,4,1,-1,-1,0,0,-1
82429390020,-6,-9,-6,-6,-4,-3,-2,-11
82429411825,8,-47,-4,1,1,2,1,9
82429411825,-8,-1,-1,-4,-1,-1,0,-1
82429412548,-7,-5,-3,-1,-2,-2,0,-2
82429412548,2,-3,0,1,0,0,0,0
82429426304,17,14,3,0,1,0,-1,-1
82429426304,9,4,-3,-2,-2,-1,-2,-8
82429434574,13,0,2,0,0,1,1,6
82429434574,0,5,1,1,0,0,-1,-2
82429449288,-8,6,-2,0,-2,-2,0,-3
82429449288,0,-1,-1,-1,0,-2,-2,0
82429450235,-5,9,-2,-1,-2,0,-2,-4
82429450235,1,-13,1,-2,-1,0,-1,-1
82429471941,-1,9,1,-1,-1,0,-1,0
82429471941,-2,-5,-1,-1,-1,-1,-2,-1
82429472529,-3,-5,-5,-1,-1,-2,-2,-2
82429472529,0,5,1,-1,-1,-1,-2,1
82429494962,-7,-5,-2,-2,-1,-2,-1,-3
82429494962,-2,8,-1,0,-1,-1,-1,-5
82429495787,-3,-18,-1,-1,1,0,-1,3
82429495787,4,3,1,2,1,-2,-1,-1
82429509454,-3,9,-1,-2,0,-3,-3,-4
82429509454,-16,-8,-8,-4,-2,-2,-2,-2
82429510105,0,6,0,-2,-2,0,0,-2
82429510105,2,-1,-2,0,-2,-1,1,0
82429531922,-11,19,-2,0,-1,-2,-1,0
82429531922,3,-9,1,2,-2,-1,-3,3
82429532648,-2,4,-2,-1,-1,-2,-2,-3
82429532648,-10,-5,-1,1,1,-1,-1,1
82429554930,5,5,-2,-2,-1,-2,-1,-1
82429554930,3,-3,-1,-1,0,0,0,1
82429555684,-7,1,-3,-1,0,-2,-1,-4
82429555684,15,10,-3,-4,-2,-1,-3,-4
82429569225,-4,7,5,2,2,0,-1,1
82429569225,-20,2,2,2,1,0,0,-2
82429569985,8,-8,-4,-4,-3,-1,0,1
82429569985,-6,-5,-2,0,0,-3,-1,-4
82429591974,-2,-5,-1,-2,-2,-1,0,-3
82429591974,5,-5,1,-1,1,0,1,0
82429592510,0,7,-3,-1,0,0,-1,-2
82429592510,-1,6,1,1,0,-1,-2,2
82429614916,1,14,0,0,-2,-1,-3,-2
82429614916,3,-5,-7,-3,0,-3,-1,0
82429615669,-5,-5,0,1,-1,-2,-1,0
82429615669,-1,-9,-2,-2,-3,-2,0,1
82429629304,7,-5,-2,-3,-2,-1,-1,-1
82429629304,-1,1,2,1,-1,-1,0,-2
82429630131,-4,-2,-1,-3,0,0,-2,-5
82429630131,12,8,-3,-4,-1,-1,1,9
82429651939,-7,-9,-3,-1,0,0,-1,-1
82429651939,4,9,1,1,-1,-1,-1,0
82429652626,1,-3,0,1,-1,-1,0,-2
82429652626,-5,-22,-2,-3,-1,0,-1,-3
82429675128,-4,-8,-2,-2,-3,-3,0,0
82429675128,9,4,1,1,0,-1,-1,2
82429675798,-3,1,-3,-4,-2,-2,-1,2
82429675798,-5,1,1,0,-1,-1,-2,-3
82429689325,2,-2,-1,-2,-2,0,-2,-1
82429689325,-4,-6,-3,-4,-1,-1,1,0
82429690087,5,24,1,2,1,0,-1,1
82429690087,-1,-9,0,-1,1,0,0,0
82429711858,-4,-7,-2,1,0,-1,-1,-3
82429711858,7,-2,0,-1,-1,0,0,-6
82429712598,-7,-1,1,0,-1,-2,0,15
82429712598,-4,2,-4,-1,0,0,-1,-3
82429735180,-3,-6,-2,-1,-1,-1,0,-2
82429735180,-1,-4,-3,-2,-1,-1,0,-1
82429735801,-3,-6,-1,-2,-1,1,-3,-4
82429735801,-8,2,-4,-2,-1,-1,-2,-3
82429749485,-2,-3,0,-1,-3,-2,-2,1
82429749485,-10,-10,-2,0,-1,-1,-1,1
82429750131,9,4,2,-1,-1,-2,-2,-2
82429750131,2,1,0,0,0,0,1,1
82429771929,1,1,-3,-1,-2,0,-2,-5
82429771929,-5,2,1,-1,0,-1,-1,2
82429772649,-4,-11,-3,-1,1,-2,-2,-4
82429772649,1,0,-1,-1,0,-1,-2,-3
82429794994,5,4,2,3,2,0,0,2
82429794994,-1,-12,-1,2,1,-1,-2,-2
82429795782,15,4,-2,-2,-4,-2,-1,0
82429795782,-8,1,0,1,1,-1,0,1
82429809264,-5,-5,-1,-1,-1,-1,0,1
82429809264,-2,0,1,-5,-2,-1,0,1
82429810071,-1,-4,0,0,0,-1,-1,-6
82429810071,-5,0,-1,-2,-2,-2,-2,5
82429831975,14,-18,-1,0,1,1,1,1
82429831975,1,16,-5,-4,-3,-3,-2,-1
82429832562,2,-4,0,0,0,-1,0,-2
82429832562,4,5,0,-1,0,-1,-1,-2
82429855250,-5,-1,1,-1,1,-1,0,0
82429855250,-13,-7,-3,-2,-2,-1,-2,-3
82429855741,-5,-4,0,-1,-1,-1,-1,-1
82429855741,0,-2,-2,0,-3,-1,-1,-2
