timestamp,emg1,emg2,emg3,emg4,emg5,emg6,emg7,emg8
59357479537,1,0,-2,-2,3,-2,1,-2
59357479537,-1,-10,0,0,0,-1,-2,-1
59357481338,-3,0,-2,-2,-1,-3,3,0
59357481338,-1,3,1,0,-1,1,0,2
59357502032,-2,-3,-3,-2,-2,0,-1,-2
59357502032,2,1,-4,2,-2,-1,-1,0
59357503674,3,-5,-5,-9,-4,-2,-2,-4
59357503674,-3,1,-1,-1,-2,0,-1,-1
59357515658,2,3,-1,0,-1,-1,-2,-1
59357515658,0,1,0,-2,1,-1,-3,0
59357525310,0,-3,1,2,-1,-2,0,-3
59357525310,-7,-1,-3,-2,-2,-3,-3,-2
59357539497,-5,-3,3,-3,-1,-1,-2,-3
59357539497,0,-1,0,-2,-1,-1,-1,2
59357541110,-4,-2,1,-2,-1,2,0,-1
59357541110,5,1,-1,3,-1,-2,0,2
59357561990,-6,-15,-3,-2,-1,-1,-1,-1
59357561990,0,1,-2,-2,-2,-1,2,0
59357563609,0,2,-2,0,1,0,-2,-2
59357563609,-1,3,-3,2,0,0,0,-1
59357575685,1,3,0,-3,-1,0,-2,-1
59357575685,0,-2,-1,-2,-2,1,0,-1
59357584724,1,-1,1,-3,-2,-2,-2,-3
59357584724,-5,-8,0,1,1,0,-1,0
59357599562,-2,7,-2,-6,-1,-1,-4,-1
59357599562,-2,-2,0,0,-2,-2,-1,-1
59357601134,-2,2,-1,0,1,-1,0,1
59357601134,-1,1,1,-1,-3,-1,-1,-1
59357622095,0,-1,0,0,0,-2,-2,-2
59357622095,0,1,0,-2,-1,-1,0,-1
59357623623,-9,-13,-2,-2,-1,-2,-2,0
59357623623,5,3,-1,-1,-1,-2,-2,-2
59357644657,1,0,-2,1,-1,-1,0,0
59357644657,-3,-3,-2,1,-1,-2,-2,-3
59357646223,1,1,0,0,-2,1,-1,1
59357646223,-1,-2,-3,-2,-2,0,-2,1
59357667074,-1,-1,-1,-4,-2,-1,1,2
59357667074,-11,-2,-1,-2,0,-1,-2,-2
59357668678,-1,1,0,1,-2,-2,0,-1
59357668678,-3,-1,0,0,1,-1,-1,-3
59357682208,0,0,0,-3,0,0,1,-3
59357682208,1,0,1,-3,-1,1,-2,0
59357683737,3,1,-4,0,-2,0,-1,0
59357683737,0,-1,-3,-1,-1,-1,1,-2
59357695746,-2,-5,-1,0,-2,0,-1,-2
59357695746,2,2,-3,-7,0,0,-1,-1
59357704733,-2,1,1,1,0,-1,-2,0
59357704733,-3,-14,0,-4,-3,-1,-2,-2
59357719634,-2,1,-1,-2,0,-2,-2,0
59357719634,-1,0,-1,4,0,-2,-3,-3
59357721154,3,2,2,2,-1,-1,0,-1
59357721154,0,1,-2,-1,1,-1,-3,0
59357742025,-2,-1,-2,-1,-2,-3,-1,-2
59357742025,1,-2,-1,1,-1,-1,-3,0
59357743557,-2,2,0,2,-1,-1,0,-1
59357743557,-1,-1,-1,-5,-3,0,-2,0
59357764505,1,-2,0,1,-1,-1,-1,-2
59357764505,2,2,1,0,-5,0,-1,-1
59357766140,1,-1,-2,0,0,-3,0,-3
59357766140,1,2,0,0,1,-1,-1,-2
59357779552,-3,3,-1,2,-2,0,1,-1
59357779552,0,-13,-2,-3,-1,-1,1,2
59357781298,-1,-1,-1,-1,-3,-2,0,-1
59357781298,-2,-1,0,-2,-2,-1,-1,-2
59357802021,-1,2,-1,0,-1,-2,-3,-1
59357802021,-9,-1,-1,-1,0,-3,-1,-2
59357803631,-1,-3,1,-2,0,-1,-5,0
59357803631,4,6,1,0,0,-2,0,0
59357824575,-3,-4,-1,5,0,-1,-1,-2
59357824575,1,0,-1,-4,-2,-3,-3,-3
59357826150,2,-1,1,-3,-1,-2,2,1
59357826150,3,10,-1,-1,-1,-1,1,-1
59357839576,-4,-5,-2,-4,-1,0,-1,0
59357839576,2,2,0,0,-1,-1,1,-2
59357841152,-2,-1,0,-3,0,1,-3,-4
59357841152,3,-1,-4,3,-1,-1,-2,0
59357862173,0,1,-1,-3,0,-2,1,-1
59357862173,-1,-2,-1,0,-1,-2,-1,0
59357863709,-1,2,-2,-1,-1,-1,-1,1
59357863709,-4,-6,0,1,-2,0,-2,-2
59357884839,-2,-2,-1,-3,-1,-1,-1,-2
59357884839,2,0,-1,-2,-2,-1,-1,-1
59357886227,-2,-3,-4,-2,-3,0,1,-1
59357886227,-3,-1,-2,1,0,-1,-1,-2
59357899130,-2,1,0,0,0,0,-2,-2
59357899130,-1,3,1,-2,-1,-2,0,1
59357905964,2,-2,-1,-3,-2,0,-2,-1
59357905964,-6,-4,-3,-1,-1,-2,-2,1
59357922128,6,2,-2,-3,-3,-1,1,-1
59357922128,-3,0,-3,-1,0,1,-1,-1
59357923640,1,11,-1,-1,0,-1,-3,-2
59357923640,-2,-5,-3,-1,-2,-1,0,-2
59357952279,-13,-2,-1,-3,-3,-2,-2,-1
59357952279,-2,-1,0,1,1,0,-2,-2
59357953720,2,0,-2,-3,-1,-2,-2,0
59357953720,0,0,-1,-4,0,-1,0,-1
59357959174,2,0,-1,-1,-1,0,-2,-1
59357959174,-2,0,0,0,-2,-1,1,-4
59357965948,-4,-4,-3,4,1,-3,-2,-1
59357965948,-4,-4,0,-4,-1,0,-1,-1
59357982011,5,-2,2,-1,-1,-1,1,3
59357982011,2,1,0,0,-2,-1,-3,0
59357983880,-1,1,-1,-6,-2,0,-1,-3
59357983880,-3,-10,-2,1,-1,-2,-5,-4
59358004529,0,0,1,-1,-1,-1,-1,-1
59358004529,-1,0,-3,0,0,-2,-2,-2
59358006163,-3,-1,-3,-1,-5,0,-1,-3
59358006163,0,1,-1,-4,-3,0,0,-2
59358018899,1,-3,0,-2,-1,-2,-2,-1
59358018899,-4,-4,-1,-3,-1,0,-3,-2
59358025661,2,-6,1,4,1,-2,-2,-1
59358025661,1,2,-2,-1,-2,-1,1,-1
59358042009,-2,-1,-2,-6,-3,-2,0,-1
59358042009,1,2,1,-3,-2,-1,1,2
59358043644,-2,-2,-2,-1,1,-2,-2,-2
59358043644,1,0,0,2,0,-1,0,-1
59358080914,0,1,0,0,-2,-1,-2,-2
59358080914,1,-2,-1,-2,-2,0,-3,-2
59358082467,-3,4,-1,-2,-3,-1,1,-1
59358082467,2,4,0,-1,-1,-1,0,-1
59358083367,0,-1,-2,-1,-1,-1,-4,0
59358083367,-1,-2,-4,3,0,-1,-1,1
59358087151,-1,-1,0,-9,-1,0,1,-1
59358087151,0,0,-1,-2,0,-2,0,-2
59358101998,-3,-3,-1,0,0,-1,-2,0
59358101998,1,2,1,4,1,-2,2,-1
59358103619,-1,-3,-1,-1,-1,0,-1,-1
59358103619,-3,0,-2,-4,-1,-1,-1,0
59358124582,-2,-3,0,0,-2,-2,-3,-3
59358124582,-2,-3,-3,1,-1,0,-3,-2
59358126113,0,-3,-1,1,-1,0,-2,-3
59358126113,0,-4,2,-3,-1,-1,-2,1
59358138924,-1,-2,-1,0,-1,0,-3,0
59358138924,-2,-1,0,-2,0,-3,-1,0
59358145717,-1,-15,-3,-4,-2,-1,-3,0
59358145717,0,3,0,6,-1,-2,-1,-2
59358162008,0,-1,-5,-3,0,-1,0,0
59358162008,-2,-3,-2,-4,-1,1,0,-2
59358163586,4,2,-1,0,-1,-2,-1,0
59358163586,0,-6,-4,0,-1,-2,0,-2
59358184566,6,3,1,0,-2,-2,2,1
59358184566,0,0,1,-1,-2,-2,0,0
59358186176,1,-3,-2,-1,-3,-2,-2,1
59358186176,2,5,1,-4,-1,0,-2,-2
59358198888,-2,0,-2,1,-1,-1,0,-4
59358198888,-2,0,-1,1,0,-2,-1,0
59358205640,-5,-1,-1,-6,-2,-1,0,-1
59358205640,3,-3,1,1,0,-1,0,0
59358221995,-3,-2,1,0,0,0,0,-1
59358221995,1,1,-1,-1,-1,-1,1,0
59358223667,-9,-17,0,-2,0,0,0,0
59358223667,-1,1,-1,-2,-2,-1,-2,0
59358244547,-2,-2,-4,0,0,-2,-3,-1
59358244547,-2,-1,0,-1,0,-1,-2,-2
59358246188,0,5,-2,0,-1,-1,2,0
59358246188,-3,-3,-1,-3,-1,0,-1,0
59358258178,3,-2,-1,0,-1,0,-2,-4
59358258178,-1,-3,-2,-3,-3,0,-1,-3
59358267205,0,2,-1,1,-1,-3,-2,0
59358267205,5,3,1,1,1,-1,2,0
59358281993,-6,-1,0,0,-2,-2,0,-1
59358281993,5,0,0,0,-1,-2,0,1
59358283652,3,2,-3,-4,-2,1,-2,-1
59358283652,-4,-3,-3,0,-2,-2,-3,-2
59358304489,1,3,-1,-6,0,0,2,2
59358304489,1,-3,0,-1,-2,1,-2,-1
59358306125,-3,-1,0,3,-2,0,-3,-1
59358306125,-2,1,0,-3,-2,-2,0,-1
59358318154,0,0,-3,1,-1,-2,-2,-1
59358318154,-4,-1,-2,-1,-1,-2,-2,-4
59358327234,-2,0,-1,-4,0,-1,-1,-1
59358327234,-2,-4,-2,-2,-2,-2,-1,-2
59358349487,-3,-7,-2,-2,0,0,-4,-3
59358349487,0,-2,-2,-3,-1,-2,2,-2
59358351165,-1,0,0,1,0,-1,-1,-3
59358351165,-2,-2,1,-2,1,-1,-1,-1
59358364537,0,-2,0,1,-3,-1,0,-1
59358364537,-2,0,1,-1,-1,0,-1,0
59358366122,0,4,2,2,1,-1,-4,-3
59358366122,-3,-3,-2,-4,0,-1,-1,-1
59358378194,-3,-3,-2,-1,-1,-1,-2,0
59358378194,1,8,-1,-3,-2,-1,-1,0
59358387155,-4,-6,0,2,-1,-2,2,-1
59358387155,2,-1,0,-1,-2,0,-2,-1
59358402001,12,9,3,3,1,-2,1,0
59358402001,-1,-2,-2,0,-1,-1,0,-1
59358403634,2,-1,-1,-2,-2,1,-1,-1
59358403634,-1,-3,-1,-1,-3,0,-1,-1
59358424546,-6,-3,-2,0,-1,-1,-1,-2
59358424546,-2,-4,0,-2,0,-1,1,-3
59358426158,3,1,0,-1,0,-2,0,-1
59358426158,-4,-2,-3,-1,0,-1,-2,-4
59358438209,-7,-3,0,-2,-3,-1,-1,-1
59358438209,2,-2,1,-2,0,-2,0,1
59358447157,-3,0,0,0,0,-1,0,-4
59358447157,-4,3,-2,3,-2,-1,-2,-1
59358462019,-7,-18,0,-3,0,0,-1,-2
59358462019,-1,-1,-3,-4,-1,-2,-4,1
59358463630,7,-2,-4,0,-2,0,-2,2
59358463630,1,2,3,0,0,-2,-3,-1
59358484587,2,3,-1,0,-2,-1,-1,-2
59358484587,-2,-4,-1,-1,-2,0,-2,0
59358486170,-2,-2,-2,0,-1,0,-2,-1
59358486170,-4,-6,-1,-1,0,-2,-2,-2
59358498130,0,1,2,-4,-2,0,1,-2
59358498130,-2,-2,0,0,0,0,-1,-2
59358507214,-10,1,1,-2,-3,-1,-4,-3
59358507214,-1,0,-2,-1,-1,-1,-1,-1
59358522031,-1,0,0,-2,-2,0,-1,-2
59358522031,-3,-1,0,-3,-2,-1,-2,-2
59358523626,0,3,-1,0,-2,-1,-3,0
59358523626,-1,1,-2,-2,1,-1,-1,0
59358551130,-3,-2,-3,-2,-1,-2,2,-2
59358551130,2,-1,-1,-2,0,1,-2,-2
59358560356,0,2,2,2,1,-2,-2,0
59358560356,0,-2,-1,-4,-3,-1,0,-3
59358561153,1,2,-1,-2,-1,-2,-2,-2
59358561153,-3,0,-1,2,-2,-1,-1,0
59358567187,-2,-2,-4,-3,-1,-1,3,-1
59358567187,-2,-2,-1,5,0,1,-3,0
59358582023,-2,-1,-1,-1,-2,-2,-3,1
59358582023,-1,-5,0,-1,-2,-1,-1,2
59358583656,1,-1,-1,-3,-1,-2,0,-2
59358583656,-1,-3,-2,-2,-1,-2,-1,-3
59358604456,-1,1,-3,-1,1,-2,-3,-2
59358604456,-2,-1,-1,-1,-1,-2,-1,-2
59358606129,5,8,-1,2,-2,-2,1,-1
59358606129,0,3,-3,-2,-2,-2,1,1
59358618182,0,0,-1,-1,-1,-1,2,0
59358618182,0,1,-2,-3,0,1,-1,-3
59358627194,-4,-2,-2,0,-2,0,1,0
59358627194,-1,0,-2,-4,0,-1,-1,-3
59358642534,-2,-4,-2,2,0,-1,-2,-3
59358642534,-1,0,-3,2,-3,-3,-2,0
59358644128,-1,-1,-3,-2,0,-1,0,-1
59358644128,-2,-2,0,-2,-1,-1,0,0
59358664500,3,6,2,-2,-1,0,0,-1
59358664500,-3,1,1,-2,0,1,-1,-1
59358666139,-12,-6,-5,-2,1,-1,-3,-4
59358666139,-1,-1,1,0,-2,-1,-2,0
59358687067,1,1,-1,-1,-1,2,-1,0
59358687067,-2,-2,0,1,-2,-1,-1,0
59358688656,-2,-3,-1,-3,-1,-2,-1,2
59358688656,0,-2,-3,0,0,-1,-2,-1
59358702022,1,-2,-1,-2,-1,-2,0,-2
59358702022,-2,-1,-1,-3,-1,-3,-2,-2
59358703714,1,-5,0,0,-3,1,0,2
59358703714,1,-1,1,-3,-2,2,-2,0
59358724537,-1,-4,-3,0,-2,-1,-4,-1
59358724537,1,-1,-1,-2,-1,-2,-1,0
59358726127,2,3,2,-4,0,-3,0,-3
59358726127,0,0,-2,2,0,-4,-1,0
59358747060,-2,-3,0,3,-1,-2,-1,-1
59358747060,-2,0,-2,-4,-2,0,-1,-1
59358748664,-2,-3,-1,-1,-2,0,-2,-1
59358748664,-5,-3,-2,1,-3,-1,-5,0
59358761160,3,10,1,0,-1,-2,0,0
59358761160,1,-1,0,2,-3,-2,-1,0
59358769681,3,-2,0,0,1,0,0,1
59358769681,1,0,-1,-3,-2,1,0,-1
59358784534,-2,-1,-1,-3,1,-1,-2,-1
59358784534,-4,-2,-1,0,1,0,-2,-3
59358786147,0,-2,-1,-3,-5,-3,-2,-1
59358786147,2,1,-2,-2,-3,-2,0,-1
59358807045,-4,-5,-3,-3,-1,1,0,-1
59358807045,0,-2,-2,2,0,0,0,-2
59358808651,0,-4,-2,1,0,-1,-2,-2
59358808651,-10,-4,-1,-4,-3,-3,-2,-2
59358822020,-1,-3,2,1,-3,-1,-2,-2
59358822020,-1,-3,-2,-3,-2,-1,0,1
59358823685,1,10,1,-1,0,-1,0,-1
59358823685,0,1,0,2,1,1,1,1
59358844489,-4,-2,-1,1,-2,-2,-2,1
59358844489,0,-2,-1,-4,-1,0,-2,1
59358846112,0,0,1,2,-1,0,-1,-2
59358846112,9,2,-4,-1,0,-1,0,-3
59358867050,-3,-3,-1,0,0,-1,1,2
59358867050,0,2,0,-1,-2,-2,-1,0
59358868661,-1,-2,1,-1,-1,0,-1,-1
59358868661,-1,-3,-1,-1,1,0,-3,-4
59358880659,3,-6,2,0,-2,-1,-3,-1
59358880659,0,-1,-1,-3,-2,-3,0,-2
59358889689,-2,-3,-2,-3,0,-1,0,0
59358889689,1,-1,0,-1,0,-2,-1,-3
59358919505,-4,-3,-4,0,-2,-2,-4,-5
59358919505,-2,0,2,1,-4,0,0,0
59358921170,4,10,-1,-5,0,0,0,0
59358921170,-9,-6,-2,5,-1,0,-1,-1
59358927051,-1,1,-3,-4,0,0,0,-2
59358927051,0,-2,-2,-1,2,0,-1,-2
59358928655,-4,-1,0,3,2,-2,-1,-1
59358928655,-1,0,-1,-4,-1,-2,0,1
59358941370,0,0,-1,1,-1,0,-1,-2
59358941370,-1,0,-2,1,-1,-1,-1,-4
59358948198,-1,-5,-4,-1,-1,-2,-3,-1
59358948198,-4,-4,-1,-7,-2,0,1,1
59358964537,5,-1,0,-1,1,-2,0,-1
59358964537,1,0,-1,-7,-1,-2,0,-1
59358966173,-3,-5,-1,2,-1,-2,-3,0
59358966173,1,3,0,0,-2,0,-2,0
59358986993,4,1,-2,-2,0,0,0,-2
59358986993,-4,-4,-2,2,-1,1,-1,1
59358988633,3,5,-1,-4,-3,0,0,-2
59358988633,-3,1,-1,2,-1,-2,-1,0
59359001404,-3,-2,-2,-3,-1,-2,0,-1
59359001404,2,-1,-1,-6,-1,-2,-3,0
59359008154,0,-5,-1,-1,-1,-1,-2,-1
59359008154,7,4,2,1,0,0,1,0
59359024567,-4,-3,-2,-2,-2,-1,-1,-2
59359024567,-2,-1,-3,2,-3,-1,0,-3
59359026161,-4,-6,-4,-3,-3,1,1,0
59359026161,-3,-3,0,-3,-3,-2,-2,0
59359046980,-1,-4,2,3,1,-1,-1,1
59359046980,2,0,1,-2,0,-2,0,-1
59359048647,-3,4,2,5,-1,-1,2,-2
59359048647,1,-2,0,-6,-1,2,-1,-3
59359061412,-2,1,-1,2,-1,-4,-1,0
59359061412,-8,-18,-2,0,0,-1,-2,-1
59359068162,-3,-3,-1,2,-1,-1,-2,-1
59359068162,-5,-3,-3,1,-2,0,-1,-2
59359084558,-4,1,-3,-3,-2,0,-1,-1
59359084558,-1,2,1,4,0,-3,-2,-3
59359086117,-3,-5,-3,-11,-2,-1,-2,2
59359086117,-3,-2,0,4,0,-1,-1,0
59359106127,1,-3,-3,-6,-4,0,-2,-1
59359106127,1,3,2,0,0,-1,-3,-1
59359114662,-1,-3,-3,-1,-2,-2,-2,0
59359114662,4,2,-2,-3,-2,-3,-2,-4
59359121369,-4,-1,1,0,0,1,-3,0
59359121369,0,4,-2,0,-1,0,-1,-1
59359128142,-2,-3,2,-4,-2,-1,-2,-2
59359128142,4,3,-2,-5,-2,-2,-1,0
59359144533,-2,-11,-2,5,0,-1,1,0
59359144533,-1,2,1,-2,0,1,-1,-1
59359146124,0,1,0,-4,-1,-1,-1,-3
59359146124,-1,-1,-2,1,-1,-1,-2,-2
59359166380,-1,2,-3,-4,-1,-1,1,0
59359166380,0,2,0,0,1,-3,-1,1
59359167039,-2,-5,-4,9,-1,-1,-2,0
59359167039,1,-4,0,-5,-1,-1,-1,1
59359180606,-1,2,2,3,-1,-1,-4,-1
59359180606,-2,-4,0,3,-2,0,0,1
59359196378,3,2,-1,5,-2,-1,1,-2
59359196378,-3,2,-2,-4,0,-1,-2,-1
59359203899,-5,0,-1,-1,0,-3,1,-4
59359203899,-3,0,-1,1,-1,-2,-2,-3
59359204653,0,0,-2,-6,1,-1,0,0
59359204653,-1,-1,-1,1,-5,2,-3,-2
59359226381,1,0,-3,0,3,3,-1,-1
59359226381,-2,0,2,0,-2,-1,-2,-1
59359227160,-1,-4,-1,-6,-4,-4,-4,-3
59359227160,-4,-1,-2,-3,1,2,-1,0
59359240651,4,7,4,-3,-4,-10,-3,-2
59359240651,0,-3,-4,-8,1,-2,-2,2
59359248250,-1,1,3,12,0,0,0,-1
59359248250,0,-3,-2,-4,4,4,-3,0
59359263804,-1,-3,-2,1,-1,4,0,0
59359263804,1,3,3,1,-2,-3,0,-2
59359264607,-5,-3,0,3,-1,-7,-4,-2
59359264607,5,0,1,4,-2,-7,0,-2
59359286379,-3,-1,-5,-10,-3,-2,-3,-2
59359286379,0,-1,-2,1,5,4,1,-2
59359287045,-6,-16,-4,-16,-1,3,-2,0
59359287045,-7,-6,-2,21,-4,0,3,-6
59359308879,1,2,-2,-13,-4,-5,-8,-1
59359308879,1,-2,1,-4,-3,-5,1,2
59359309677,4,5,4,9,6,0,-1,-2
59359309677,-4,-4,-3,-5,0,-3,1,1
59359323833,-3,-2,-2,1,-4,0,-1,-3
59359323833,-2,1,-4,-7,-3,-3,-1,-2
59359324621,-3,-1,-3,-2,-4,-8,-1,2
59359324621,5,0,1,3,6,-5,0,0
59359346377,-4,-3,0,-1,-1,3,2,-1
59359346377,1,-3,-3,0,-7,3,1,-4
59359347184,0,0,-2,-22,-5,4,0,-1
59359347184,-1,4,0,2,4,-12,-3,-2
59359368838,-1,-11,0,6,7,14,1,-1
59359368838,-1,0,-3,1,-7,-4,3,1
59359369634,4,0,1,8,8,2,-2,0
59359369634,3,5,-1,-17,-23,-15,-2,-1
59359383876,-2,0,-3,7,6,-16,-1,-4
59359383876,-5,-5,-2,0,-1,16,1,-2
59359384656,-1,-1,2,-11,3,9,-7,-4
59359384656,-6,-5,-1,-5,8,1,5,0
59359406367,-3,1,0,-4,-9,3,-5,2
59359406367,0,-3,-4,-3,-7,-6,-1,-3
59359407177,2,3,-3,11,-2,-2,2,-1
59359407177,-1,-1,4,3,-10,-19,-6,-1
59359428833,1,3,2,-6,0,4,3,-2
59359428833,-3,3,-2,-2,9,13,4,0
59359429673,-2,-4,-4,14,-5,-18,-8,1
59359429673,-2,-1,1,-3,-7,5,-3,-8
59359443856,2,-2,-2,12,-7,-12,4,-1
59359443856,4,5,0,-41,-11,-2,-3,5
59359444626,3,3,-1,15,14,28,3,-2
59359444626,0,-2,-1,-10,0,-21,-10,1
59359466380,0,-1,0,1,-17,-6,-2,-2
59359466380,-6,-6,-7,9,-3,-11,-2,-5
59359467126,-5,-3,-6,-13,-1,9,-5,1
59359467126,-4,-3,-3,-6,-3,-8,4,0
59359488821,2,2,3,24,-1,-8,1,1
59359488821,0,4,-7,-22,6,27,0,-5
59359489628,-5,-1,-5,-30,-7,-14,2,-6
59359489628,-3,-2,-1,-5,-8,10,0,4
59359503851,-2,2,-2,7,19,-8,-5,-5
59359503851,3,1,5,32,6,7,-2,3
59359504624,-8,-8,-8,7,-9,-5,-1,-8
59359504624,-2,-3,-2,0,5,7,-1,-2
59359526373,-1,1,-2,-21,-17,-15,-5,2
59359526373,-2,-3,3,7,7,-16,-8,-3
59359527140,-3,-1,1,-1,1,2,4,-1
59359527140,-1,-6,-7,10,3,23,9,1
59359548830,-1,-2,1,8,6,-3,-2,0
59359548830,-1,-2,2,-1,10,12,5,1
59359549586,5,9,3,17,-15,-24,-1,-1
59359549586,-4,-6,-2,-19,-4,11,-3,-4
59359563825,-7,-5,-4,19,-1,-17,-9,-2
59359563825,-3,-4,-9,-13,-13,3,3,-3
59359564627,2,4,9,13,8,-5,-18,6
59359564627,4,4,5,-2,9,-1,11,-2
59359586373,2,2,3,-6,2,-2,3,0
59359586373,-1,-2,4,4,-13,4,-18,-3
59359587132,-2,-4,-2,-9,-6,2,9,-6
59359587132,-3,3,0,28,18,-7,-5,4
59359608804,2,-1,0,-38,-6,13,-1,0
59359608804,-1,-1,-4,4,0,-24,-6,4
59359609613,-5,-1,-1,13,-4,7,2,-3
59359609613,2,1,-2,-33,0,-3,-6,-1
59359623827,-9,-14,-5,22,11,24,4,2
59359623827,-1,1,6,1,-14,3,1,0
59359624619,0,-3,-6,-16,-7,2,4,-3
59359624619,-5,-6,-8,17,5,-27,-6,0
59359646382,3,1,-1,-21,-11,2,-7,-3
59359646382,-2,-3,-3,-9,9,7,9,1
59359647132,3,3,9,19,0,-6,5,-1
59359647132,3,1,2,18,-10,18,-3,-3
59359668898,-3,-4,-10,-11,-17,-24,-12,-1
59359668898,-4,-5,-8,-5,8,20,8,6
59359669693,6,5,3,-3,8,1,2,-1
59359669693,-2,-3,-3,-1,-8,-2,-6,-6
59359683825,0,1,-1,25,13,-8,4,6
59359683825,-3,-2,1,2,-28,-14,-2,-3
59359684611,2,-3,-3,-19,7,4,1,-5
59359684611,-2,-1,-1,14,-4,6,3,0
59359706300,2,2,0,4,9,13,-1,-6
59359706300,4,2,0,-9,4,-23,-2,-2
59359707098,-6,-5,-2,8,-3,-1,1,2
59359707098,0,1,-6,-70,-22,-10,-7,-2
59359728861,1,2,3,11,22,25,10,-1
59359728861,1,0,-3,-16,-3,-9,-6,-2
59359729662,0,0,1,-11,1,7,0,1
59359729662,-2,-1,4,6,1,-7,-1,0
59359743805,1,1,-3,-22,-12,0,-4,-1
59359743805,-4,-1,-2,-4,7,3,3,-3
59359744654,-3,-3,-2,11,7,-5,-7,3
59359744654,1,-1,-3,27,-6,7,2,-2
59359766367,-1,-2,3,-26,-1,1,6,1
59359766367,3,1,0,25,10,-6,-7,-5
59359767150,-11,-13,0,-5,-1,-7,-4,2
59359767150,-4,-1,-1,33,5,2,-4,-7
59359788850,1,3,1,0,-3,-1,8,8
59359788850,0,0,6,6,-2,-7,-1,-6
59359789652,-1,-1,-4,3,2,1,-2,-1
59359789652,-2,-2,1,36,9,2,-2,0
59359819491,-3,-3,-5,6,-2,-2,-5,-8
59359819491,-3,-2,-3,-4,0,-2,-2,2
59359820389,-1,2,0,-3,0,-2,4,2
59359820389,0,-2,-4,19,-3,4,-3,-1
59359826524,1,3,-1,-20,-3,4,-2,-3
59359826524,-5,-3,-2,38,14,-5,-1,-2
59359827365,4,5,-5,-56,-28,-2,-3,-4
59359827365,-8,-10,0,0,1,-3,0,-1
59359848832,-4,-3,3,48,18,2,-2,4
59359848832,2,-3,1,-88,-16,-3,-1,1
59359849625,1,2,-7,25,4,-1,-4,-5
59359849625,3,3,1,-28,-5,1,0,-1
59359863850,-2,1,-1,6,-7,-1,0,-4
59359863850,-3,-2,4,15,8,-2,-1,-1
59359864626,-6,-5,-5,1,5,-2,-2,1
59359864626,8,3,0,-27,-10,2,6,6
59359886379,-5,-4,-4,18,-9,-5,-2,-7
59359886379,-1,0,-6,-41,-11,-4,0,-2
59359887110,-3,-3,-4,4,-3,-3,-3,-5
59359887110,-3,-1,-6,-30,9,-4,0,0
59359908876,0,1,-13,-24,-7,-3,4,3
59359908876,-1,-4,9,-4,-9,0,7,4
59359909612,-2,0,-4,7,5,5,2,1
59359909612,3,-2,5,32,12,0,-1,1
59359923855,0,0,1,-25,-5,1,0,1
59359923855,1,4,-2,-3,-9,-6,-9,-3
59359924660,-8,-11,2,9,8,-2,-1,2
59359924660,-1,6,-4,-35,-14,1,-1,-3
59359946741,2,-1,-4,4,4,0,-5,-2
59359946741,-4,-2,-7,37,10,-1,-2,-3
59359953930,6,7,10,9,0,3,-4,3
59359953930,1,3,2,-56,-15,2,2,2
59359968836,0,4,8,-6,-4,-1,-7,-2
59359968836,1,2,-3,-21,7,2,-3,0
59359969664,5,3,-1,-2,5,-2,-2,-1
59359969664,-3,0,1,4,2,1,-6,1
59359983804,1,-1,6,-3,-4,0,-6,-2
59359983804,9,9,8,24,8,4,-1,3
59359984603,0,8,-14,-23,-22,1,-8,1
59359984603,-3,-5,3,26,9,-1,0,-2
59360006363,-2,-3,-1,10,-6,-3,-1,-1
59360006363,-1,-2,-1,11,0,0,-2,0
59360007112,-2,0,1,-5,-9,-3,-3,-3
59360007112,6,4,-1,10,9,1,-1,-3
59360028807,3,0,2,15,0,0,-4,0
59360028807,1,5,-9,1,-4,0,-3,-2
59360029608,5,2,9,22,3,1,2,2
59360029608,1,1,-1,-14,-1,1,-1,0
59360043897,-7,-2,1,-10,2,4,1,1
59360043897,1,1,3,11,-1,-2,-4,-1
59360044699,0,-2,-4,-37,1,1,1,-2
59360044699,2,-2,3,-9,-2,-1,-2,2
59360066379,-12,3,-5,20,9,1,-1,-4
59360066379,-4,-4,-2,-16,-6,-2,0,-2
59360067083,0,-3,2,14,-3,-1,0,1
59360067083,-2,-2,-6,11,1,-2,-3,-3
59360097029,4,1,2,-12,-11,-3,-2,1
59360097029,-3,0,-2,24,4,-2,-2,-1
59360097812,-10,-11,5,-19,-3,-1,4,-2
59360097812,-2,3,-2,26,0,0,-3,0
59360103828,0,-6,-2,-23,-3,-2,-2,-1
59360103828,-1,-4,5,-16,-1,1,2,4
59360104622,7,6,-1,4,-4,-1,1,1
59360104622,-3,0,0,1,0,2,0,-2
59360126289,5,1,-13,-7,-1,-2,-2,-2
59360126289,-6,-3,-5,-19,-2,1,1,-5
59360127141,6,-3,2,8,-2,-1,0,9
59360127141,2,1,-1,-4,-1,0,0,-1
59360148849,-5,-5,-2,-27,-9,-3,1,0
59360148849,0,2,0,41,9,0,-3,-2
59360149680,0,-2,16,10,8,2,-1,-4
59360149680,-2,-7,0,-41,-8,1,1,-1
59360172000,1,-3,5,14,-1,-3,2,2
59360172000,-1,-1,-4,-21,-10,-3,-2,-1
59360172774,-3,3,-2,-3,-4,-4,-3,-5
59360172774,-9,0,-13,10,2,4,-2,-3
59360186407,4,-3,8,-20,6,1,0,-2
59360186407,10,1,-3,-4,-13,-4,-2,1
59360187120,-2,2,8,7,2,-3,-4,-2
59360187120,0,3,-15,-7,-5,-4,-3,-1
59360208819,-1,-3,34,13,6,4,5,2
59360208819,-7,-6,-18,19,-2,-2,-3,-1
59360209612,1,2,-9,-20,-3,1,-1,-1
59360209612,-10,-13,2,7,1,-1,-2,-1
59360224658,-3,-2,-11,-6,-1,1,0,-2
59360224658,8,6,0,-3,2,-1,-2,-1
59360231374,-9,-8,-3,5,-2,-4,-1,-2
59360231374,-1,1,-1,30,-3,-5,-2,0
59360246306,-4,3,-21,-9,0,-3,-4,-2
59360246306,-14,-3,13,-18,-8,0,-6,-3
59360247084,4,4,-29,27,5,0,-5,-1
59360247084,6,2,9,-10,2,-2,-2,-2
59360268841,-4,1,-6,-2,-4,0,3,0
59360268841,-16,-12,0,-4,1,-2,0,0
59360269632,15,4,1,-1,-4,0,1,0
59360269632,2,-4,-5,-22,-1,-1,-1,-3
59360283205,11,6,6,-14,-5,-2,2,-1
59360283205,-13,-10,-40,19,0,-3,7,-4
59360291365,-17,-27,68,8,-7,-10,8,-2
59360291365,-8,-8,-4,25,1,-2,5,-1
59360306332,0,-3,-32,-31,-13,-9,-8,-7
59360306332,11,6,-4,-4,-4,-2,-2,0
59360307153,-22,-8,-35,-21,-2,1,3,0
59360307153,30,12,14,-2,0,3,3,4
59360328849,-15,0,40,48,5,-1,-5,-1
59360328849,14,4,6,-24,-9,-3,-7,-2
59360329638,-30,3,-26,-6,7,3,-9,-6
59360329638,9,3,35,-5,-2,-1,5,6
59360343206,-10,0,-28,-14,-4,4,-1,-1
59360343206,3,6,66,67,14,0,-2,3
59360351377,25,-6,-1,-58,-15,-6,-6,-1
59360351377,2,8,-13,7,10,1,-3,-1
59360366378,3,-12,-39,36,-10,-4,-9,-2
59360366378,26,6,-1,28,1,-1,-1,-5
59360367122,-24,-5,-1,-16,0,7,6,3
59360367122,-27,-16,-82,-12,-2,-8,-8,4
59360388848,10,7,24,-39,-14,0,-1,7
59360388848,-6,-4,-24,-10,5,5,6,0
59360389643,52,16,26,1,-9,-5,2,-2
59360389643,-19,1,-18,-14,2,-5,-10,-10
59360412052,-37,-28,-6,41,4,-4,-3,1
59360412052,-5,3,48,-10,-1,3,0,-2
59360412833,-24,-4,46,-15,-2,4,1,10
59360412833,5,8,28,23,5,0,2,-11
59360426370,-21,1,-4,-4,-1,-4,-9,-33
59360426370,9,-6,-28,-25,-1,-4,1,12
59360427162,11,-5,-15,28,7,-4,-5,-6
59360427162,-9,-2,6,-18,-8,-6,-5,-15
59360448793,15,11,-3,-21,10,16,11,11
59360448793,11,-10,-40,-3,-2,6,-5,-1
59360449608,-5,8,1,0,-14,-22,-10,-3
59360449608,11,0,-21,-20,-2,-14,2,2
59360463151,2,-1,65,58,6,9,6,3
59360463151,3,8,-31,-20,5,1,-2,-2
59360471353,-7,-4,-40,-2,0,5,0,2
59360471353,-4,5,54,36,9,1,2,0
59360486301,6,-2,-23,-58,-11,-5,1,-3
59360486301,-12,1,3,0,-17,2,-3,-8
59360487122,-6,-2,-5,19,3,-13,-10,-3
59360487122,-2,-6,-4,-10,-19,-1,0,4
59360508754,11,8,-16,42,22,2,2,3
59360508754,-7,-2,-2,-19,-16,-10,-5,-2
59360509597,1,-1,54,-10,2,4,3,-2
59360509597,-3,0,1,11,8,1,3,-1
59360533450,28,4,12,6,-3,-4,-2,1
59360533450,-9,-1,0,-6,1,-2,2,-1
59360534270,-3,0,-29,24,5,3,0,-3
59360534270,3,5,17,-16,-1,8,0,2
59360554543,0,-4,-5,13,4,-2,1,2
59360554543,-16,-1,-23,-48,-10,-5,-6,-5
59360555361,0,-3,11,7,5,5,0,-1
59360555361,8,0,1,7,-5,0,-1,0
59360568788,-22,-5,-6,-20,-2,-3,0,3
59360568788,24,9,8,34,8,-1,-2,1
59360569593,2,-8,31,-4,5,7,11,-1
59360569593,4,-4,-7,-6,-10,-2,-4,-1
59360592068,-8,-3,-28,0,3,-4,-6,-4
59360592068,-4,1,-7,8,5,1,1,-1
59360592809,9,4,-20,32,-1,-1,-4,1
59360592809,0,-2,-14,-2,0,1,2,-1
59360606350,-6,2,22,-11,-4,0,3,2
59360606350,16,4,20,17,9,0,3,0
59360607143,-9,-4,-26,-13,-11,-1,-2,-2
59360607143,2,-1,10,9,8,2,-1,3
59360628854,3,9,7,-33,-8,-3,-2,1
59360628854,-19,-9,5,17,1,-3,1,-1
59360629626,17,2,-21,-21,-1,-3,-2,-2
59360629626,-6,-2,-7,0,1,4,-2,0
59360652023,3,0,5,-14,-3,-3,-1,-1
59360652023,0,0,5,7,6,-4,-2,0
59360652803,-3,2,-5,-35,-9,0,0,-1
59360652803,-5,-3,0,25,1,2,-3,-1
59360666382,7,2,-2,12,3,-1,-2,-2
59360666382,-17,-6,5,-13,-8,-6,1,-1
59360667111,20,11,-20,6,2,1,-2,-1
59360667111,-4,-6,1,-24,-2,2,6,7
59360688761,-4,-2,-8,11,-5,-5,-9,-7
59360688761,-1,-4,-5,-5,0,-3,-3,-2
59360689562,-8,4,0,-13,2,6,1,0
59360689562,-14,-5,-2,24,1,2,1,0
59360712035,20,3,3,-47,-12,-7,0,1
59360712035,-3,-6,3,18,6,1,0,4
59360712806,-2,-1,-4,16,3,-2,1,-4
59360712806,-14,-8,-1,-22,-6,-5,-5,-2
59360726377,8,4,-7,17,3,1,-2,1
59360726377,-5,-6,-3,-4,-11,-3,-3,-3
59360727146,-8,2,-1,22,4,0,-1,1
59360727146,3,1,-2,-19,-8,0,-3,-2
59360757043,-2,-3,-3,15,-2,-3,-1,-4
59360757043,-6,-2,-1,-12,0,2,1,0
59360757829,4,-1,4,22,4,0,-2,1
59360757829,4,-2,-8,-38,-10,-4,-2,0
59360772036,-2,-1,0,12,1,-2,0,-4
59360772036,-6,1,7,7,5,3,2,-2
59360772834,4,-2,-8,-29,-10,-4,0,-1
59360772834,6,2,5,9,-3,-3,-3,0
59360786290,-21,-4,-4,-14,4,2,-1,-2
59360786290,16,-4,-7,-2,-4,-2,-3,-4
59360787112,-10,-7,-3,-4,-1,0,-4,-3
59360787112,2,1,-3,-6,2,-3,-2,0
59360808805,6,3,1,3,1,4,3,3
59360808805,-15,-4,3,4,3,3,1,1
59360809625,9,3,0,-9,-9,-7,-2,-2
59360809625,-1,-1,3,-1,-4,-3,0,-3
59360832022,-10,-2,-8,15,2,8,-7,-2
59360832022,0,0,4,-7,2,-4,1,-3
59360832761,13,2,-7,-13,-7,-2,1,1
59360832761,2,-3,-4,10,7,-2,-2,-6
59360854261,3,1,6,-21,-4,0,-4,-1
59360854261,0,0,-1,14,-2,4,0,0
59360855066,-7,-3,-4,-4,-2,-5,-6,0
59360855066,-2,-3,1,5,2,0,4,-2
59360868852,0,-1,-3,-4,-1,-4,0,-2
59360868852,-1,-1,-4,-2,-1,0,-3,-2
59360869605,-14,-4,-2,20,3,3,0,-2
59360869605,-2,-1,-1,5,-2,-11,-5,-1
59360893485,-1,-2,0,-13,-2,-1,0,3
59360893485,0,2,0,-13,-4,-1,0,-1
59360895553,1,1,2,9,9,5,2,-1
59360895553,1,2,1,16,0,4,1,0
59360907597,3,-4,-6,-37,-8,-5,-1,-3
59360907597,-6,-2,-3,1,-3,-4,-2,-2
59360909707,-1,-3,-2,-7,2,-4,0,-2
59360909707,3,-1,-1,13,0,1,-2,-1
59360928842,-5,-1,1,22,1,-3,1,-2
59360928842,-12,-4,-3,-42,-12,0,-1,1
59360929606,7,0,2,-2,3,0,0,-1
59360929606,-9,-5,-3,-3,1,-1,1,0
59360959479,2,-2,-9,19,-4,-5,-1,-4
59360959479,0,0,1,-1,1,-1,3,-2
59360960347,-9,-4,-5,18,-7,-4,-1,-2
59360960347,1,-2,-4,-22,-1,2,-1,1
59360966384,-8,-3,-3,3,5,1,5,-2
59360966384,3,-2,-3,-1,-6,-5,0,-4
59360967111,-5,-4,-10,-24,-3,-2,1,-3
59360967111,-8,-4,-6,57,-2,-4,-3,-2
59360988776,0,-1,-1,-40,-5,-2,-1,-1
59360988776,1,-1,-5,27,6,0,4,2
59360989582,-5,-3,-3,-21,0,-2,3,-3
59360989582,-19,-3,-5,4,5,1,2,-3
59361012010,22,1,-9,-21,-12,-10,1,-1
59361012010,-3,-6,-8,22,-2,-2,-3,-3
59361012791,-3,-4,-2,-22,-3,-4,-4,0
59361012791,4,3,-4,6,4,3,1,-1
59361026338,-11,-5,-2,12,3,1,4,-1
59361026338,-1,-1,-3,-15,0,-1,3,2
59361027118,-5,-2,-2,-11,-4,-6,3,-1
59361027118,5,0,1,15,-9,-3,1,1
59361048568,0,1,0,6,4,8,0,1
59361048568,5,2,1,8,7,2,1,2
59361056327,-5,2,1,-11,-6,3,-2,1
59361056327,1,0,0,-11,2,-4,-3,-3
59361071995,3,2,5,-9,-9,-1,-2,1
59361071995,-5,2,1,11,10,4,-2,1
59361072753,13,3,0,-10,-7,0,-2,-1
59361072753,-5,-1,-1,-12,-4,4,-2,2
59361086305,2,1,2,6,1,-1,-5,1
59361086305,-5,0,-3,4,-1,0,-3,-1
59361087150,-8,3,7,12,0,1,-1,3
59361087150,13,8,3,-25,-3,4,0,0
59361108819,-3,0,4,1,5,1,-5,1
59361108819,4,5,-1,26,2,-2,-3,-3
59361109687,-16,-7,2,-7,-5,2,-9,2
59361109687,4,5,15,-8,7,1,-2,3
59361131998,-4,4,-6,24,2,-1,-5,2
59361131998,5,5,15,-6,4,2,-3,2
59361132779,4,3,4,-4,-8,2,-3,1
59361132779,1,2,-2,-9,3,1,-6,0
59361146387,-3,-3,13,17,1,2,-3,1
59361146387,6,6,-1,-25,-5,1,-3,1
59361147120,2,6,2,42,17,5,-4,4
59361147120,1,-1,5,-39,-6,0,-4,-1
59361168827,-6,2,1,2,-5,-2,-4,-2
59361168827,-1,-1,2,8,4,1,-5,-2
59361169607,-3,-1,0,-31,-3,-3,-4,-3
59361169607,-3,-2,-4,9,4,-4,1,-3
59361192024,-5,-3,-5,6,2,0,-1,-3
59361192024,10,1,3,0,-3,-2,2,2
59361192814,-3,-4,-2,5,5,0,1,-2
59361192814,-1,-1,-5,-14,-6,-1,0,-3
59361205594,-2,-3,-4,8,8,-1,0,0
59361205594,-5,-2,-4,-1,-4,-3,-1,0
59361213839,-2,-2,-5,1,0,-3,-1,-2
59361213839,-7,-6,-7,-6,-5,-4,-2,-3
59361228863,-2,-1,-1,3,-4,-2,1,-2
59361228863,1,-4,-3,-15,-3,-3,-1,-2
59361229627,3,2,2,19,5,-1,-2,1
59361229627,-1,2,2,-9,0,2,-3,1
59361252036,0,2,0,-19,-3,2,-5,0
59361252036,3,0,-3,15,1,-1,-3,-3
59361252857,1,1,-1,-53,-10,0,-2,-4
59361252857,4,0,5,14,-1,0,-1,2
59361274497,3,2,-1,-2,1,1,0,1
59361274497,-2,3,2,-10,-3,0,-2,-1
59361275327,1,-1,-1,25,-5,-3,-4,-1
59361275327,3,1,6,8,1,2,3,1
59361288795,3,1,2,-15,-4,0,-3,-1
59361288795,-7,-2,-1,-15,-4,-2,-2,-2
59361289559,-2,1,1,10,2,-2,-1,-1
59361289559,3,0,0,-13,-3,-1,-4,1
59361319558,0,-1,-1,17,-3,-1,-4,-2
59361319558,0,-4,-4,-9,-4,3,-3,-1
59361320422,6,7,7,4,6,3,-6,2
59361320422,0,-1,-4,-3,0,-5,2,0
59361325656,1,0,3,12,6,3,6,3
59361325656,0,-2,2,-13,-11,-5,-3,-3
59361334622,-2,-4,-3,8,0,-7,-2,-3
59361334622,12,7,-1,1,2,8,0,-3
59361348202,-1,-1,-4,-4,-2,-5,-8,0
59361348202,-5,-1,3,-20,-1,-2,6,1
59361357161,1,0,-2,1,-2,3,0,-4
59361357161,-9,-4,-7,4,-4,-2,4,-2
59361371986,-4,-2,3,-4,5,-5,2,-1
59361371986,5,3,0,6,2,4,3,1
59361373603,-5,-2,-3,5,-1,-6,-1,1
59361373603,-4,-5,-2,1,-6,0,-5,-2
59361385655,-5,-2,-5,-15,-7,15,0,-5
59361385655,-7,-3,0,9,7,-39,-9,0
59361394683,1,-1,2,1,-1,5,5,-2
59361394683,-5,-4,-8,-13,2,11,-3,-1
59361417049,1,-2,1,4,-7,10,1,2
59361417049,3,4,4,2,5,15,-1,-1
59361418597,3,-1,2,0,4,13,5,1
59361418597,1,2,4,8,-4,-21,-8,0
59361431949,-4,-1,0,-11,-5,-16,-4,-4
59361431949,4,-3,-4,-2,-6,3,-2,-3
59361433628,6,5,0,9,3,-1,1,0
59361433628,8,3,3,-6,0,6,1,1
59361462037,-4,0,-2,2,-2,-5,-1,-1
59361462037,-2,-1,0,0,-2,-4,-3,0
59361463645,-2,0,3,5,-1,5,-6,-1
59361463645,1,0,1,-3,0,-1,-2,0
59361468842,5,3,1,-2,-1,-7,1,2
59361468842,-4,-3,-2,-13,-4,3,-2,1
59361475640,-3,-2,-2,18,3,-8,4,-1
59361475640,-2,1,3,-2,4,4,-2,-1
59361491961,-1,-1,0,-3,0,2,-2,-3
59361491961,-7,-4,-5,4,-5,5,3,-3
59361493601,-9,-6,-9,-10,-5,-14,-3,-2
59361493601,-17,-18,-10,0,-2,-13,1,-3
59361514533,-8,-5,-7,13,1,4,6,-1
59361514533,-10,-6,-6,0,-1,2,4,-3
59361516153,-4,-5,-10,-6,-2,-10,6,-3
59361516153,-8,-2,-8,-2,-3,1,7,-4
59361528854,-8,-7,-12,-5,-4,-2,3,-2
59361528854,-7,-4,-6,1,-5,-17,-4,-3
59361543098,-4,-3,-4,-4,0,2,-3,-1
59361543098,-1,2,1,6,1,1,-7,-2
59361551999,2,-1,3,-6,0,0,-4,0
59361551999,3,2,2,-1,-1,3,-6,-2
59361553628,4,-2,2,2,-3,13,5,1
59361553628,6,2,5,-1,1,-6,-8,0
59361574547,6,4,7,3,7,-6,-5,3
59361574547,1,-2,2,1,-3,8,-1,1
59361576163,0,0,1,-1,1,1,-2,0
59361576163,3,2,0,0,-5,8,-1,-1
59361588819,0,0,-1,-14,-9,-11,-1,-3
59361588819,0,-3,-3,17,9,-4,-5,-1
59361595663,1,2,5,-3,2,8,3,1
59361595663,3,1,1,-7,-3,0,2,0
59361612029,0,-2,-1,9,-2,-14,0,-2
59361612029,-1,-1,-4,-8,-6,6,1,-3
59361613633,-5,-1,-1,2,2,3,-6,-2
59361613633,5,3,1,4,3,-12,1,3
59361634503,-2,0,-2,-11,-3,4,-1,-1
59361634503,-2,-2,-2,-4,-4,0,1,0
59361636160,-1,-3,-4,0,0,-1,-5,-4
59361636160,-4,-4,-2,0,-4,6,1,-1
59361664500,3,3,4,-4,0,0,-9,-3
59361664500,-4,-6,2,3,5,-1,4,2
59361666118,1,2,1,-4,-2,0,2,-2
59361666118,0,1,0,-3,-3,-7,-4,0
59361671979,-1,-1,-1,2,1,7,2,-1
59361671979,-2,1,-1,-8,-2,-2,-3,-2
59361673584,-4,-4,-4,-1,-3,-7,-5,-1
59361673584,-4,-3,-1,-1,2,3,5,-1
59361694482,-2,-2,-4,9,-1,2,1,0
59361694482,-3,-1,-3,0,-2,-5,-2,-2
59361696039,-2,-3,-2,-9,-3,-2,3,-4
59361696039,-5,-5,-2,4,-4,-4,-4,-2
59361708135,-5,-8,-5,8,1,-7,-3,-4
59361708135,2,1,-2,10,2,6,1,3
59361717177,2,0,-3,-14,-4,-4,0,-2
59361717177,-3,-1,-5,-7,1,-6,-3,-4
59361732035,-2,-1,3,-14,1,3,-1,0
59361732035,9,3,4,1,1,2,-2,0
59361733665,1,0,6,1,-1,-5,-4,0
59361733665,1,1,3,1,0,2,-4,1
59361762031,2,-2,0,0,-1,2,-4,-1
59361762031,0,1,0,-6,0,-2,-5,-1
59361763647,-1,0,2,2,-3,-10,-3,0
59361763647,2,2,4,2,4,16,1,3
59361768158,7,12,5,2,1,3,-2,2
59361768158,-4,-4,-2,-8,-3,1,-1,0
59361777141,-1,2,0,-2,-2,-5,-3,-2
59361777141,-2,-4,-5,4,-4,-5,-2,0
59361791989,-6,0,-6,6,0,-2,2,-3
59361791989,-3,-2,-4,-5,-1,-2,-2,-4
59361793650,-3,-4,-5,3,0,0,1,1
59361793650,-4,-6,-3,2,-2,-3,1,-4
59361814504,-12,-1,-4,-2,3,-1,3,-2
59361814504,-7,-3,-3,-5,-4,-6,-3,-2
59361816116,-4,-1,-5,0,-2,0,1,-1
59361816116,-2,0,-4,-2,-2,-4,1,-2
59361828176,0,-5,-5,-1,-2,-4,-2,-2
59361828176,-5,-1,-2,1,-1,0,-1,-2
59361837122,1,2,2,-2,-1,2,-2,-1
59361837122,1,-1,3,-2,-2,-2,-4,0
59361851987,-1,-4,3,-2,-1,1,0,-1
59361851987,9,9,0,2,0,0,0,-2
59361853564,-1,-1,-3,1,-1,0,-1,1
59361853564,1,1,-2,-1,-3,-4,-2,1
59361874538,0,-6,-2,-1,-1,-2,1,1
59361874538,4,-2,-2,-1,-4,-1,-1,1
59361876132,8,5,-1,2,-1,-3,-1,0
59361876132,-1,-1,-3,-3,-1,-1,1,-1
59361888182,10,2,-1,-1,0,0,0,14
59361888182,-4,-1,2,-2,1,2,1,-17
59361897132,-4,-2,0,2,-2,0,-3,1
59361897132,-1,-2,0,-1,1,0,-1,-1
59361911989,5,8,1,-1,-2,-1,-2,1
59361911989,-3,2,2,0,-2,-3,-2,4
59361913612,-4,-3,-1,1,-1,0,-4,-3
59361913612,4,3,1,-1,1,0,-1,-4
59361934523,-3,-4,-2,-2,-4,-1,-1,-5
59361934523,1,0,0,-4,0,-2,-2,3
59361936167,-2,-1,-2,-1,-1,-2,-1,-4
59361936167,-2,1,-2,-2,0,-2,-2,-2
59361948178,-5,-5,-1,-4,-2,-3,-1,-5
59361948178,1,-3,-3,1,-2,-2,0,1
59361964662,-3,0,1,-1,0,-2,-1,1
59361964662,3,-3,-1,1,-1,-3,0,-2
59361971955,-7,-4,-3,-1,-1,-2,1,-6
59361971955,3,0,-3,0,-1,0,1,-2
59361973582,0,3,-1,-2,-2,-2,0,-2
59361973582,-3,0,-5,0,-1,-3,-1,-1
59361994480,-14,-22,-3,-1,-2,0,-3,-4
59361994480,-2,-2,-2,-7,-3,0,1,4
59361996032,-5,0,0,-3,2,0,-3,0
59361996032,-2,2,2,1,-3,-3,-2,-3
59362008137,3,4,-1,-1,0,0,-1,-3
59362008137,-4,-4,1,2,-1,0,-1,1
59362017153,-1,-8,-3,3,-3,-1,-1,-2
59362017153,-3,-3,-4,-5,-1,-1,-2,-1
59362031960,0,1,-1,-1,-3,1,-1,-1
59362031960,-15,7,-2,-2,1,-1,-2,-3
59362033599,0,-6,0,-2,-2,-1,-2,-1
59362033599,2,2,-2,-1,-2,-1,-3,-3
59362054488,1,2,-2,-2,-1,-1,-2,-2
59362054488,3,3,-3,-2,-1,-3,-1,-2
59362056089,4,1,-1,-1,-2,-2,-1,-2
59362056089,-4,-2,0,-3,-2,0,-2,2
59362068114,0,1,0,-1,0,0,-1,-4
59362068114,0,-8,0,3,0,0,-1,0
59362077142,4,-2,-3,-5,-2,-1,-3,0
59362077142,3,-2,3,-4,-5,0,0,1
59362092000,-1,1,0,8,0,1,-1,-1
59362092000,4,2,-4,-20,-3,0,-1,-2
59362093637,1,5,2,12,0,-2,0,-1
59362093637,-7,0,0,3,-1,-1,0,1
59362114526,-1,1,0,-5,1,-1,-4,2
59362114526,4,-3,2,3,0,1,-2,2
59362116136,-2,2,-1,-4,0,-2,-3,0
59362116136,-3,-3,-1,7,-1,1,-1,-4
59362128114,-1,1,1,0,-1,0,2,1
59362128114,1,-1,-1,0,-2,-2,-2,0
59362137170,-4,-4,-3,-8,-1,-2,0,-2
59362137170,-3,-1,0,0,-2,0,-2,-1
59362152478,-1,-2,-3,-11,-1,-2,1,-2
59362152478,-5,-3,-2,6,-2,-1,-1,-2
59362154065,-3,-3,-2,10,-2,0,-3,2
59362154065,1,-2,-1,-6,1,-1,0,-1
59362174482,1,-2,-2,-4,-2,-1,-1,-1
59362174482,-2,-1,0,-6,-1,-1,1,-1
59362176039,2,4,0,4,0,0,-1,-2
59362176039,0,0,1,-4,0,-1,1,-1
59362188141,5,4,-3,-4,-1,-2,0,1
59362188141,-4,0,3,9,-1,0,-1,-1
59362197140,14,2,-3,-9,-1,0,-2,-2
59362197140,4,5,-1,2,-1,-1,2,0
59362211381,-2,-3,2,-2,-2,-2,-2,-1
59362211381,-4,-4,-3,1,0,-3,-5,0
59362218128,1,1,-2,-3,-2,-1,0,-2
59362218128,-5,-4,-1,-6,-1,1,-2,-5
59362234534,-3,-3,-3,2,1,-1,1,-3
59362234534,4,3,-1,-2,-3,-2,-4,-2
59362236163,-4,5,-1,-6,-1,-3,-1,2
59362236163,-3,-5,-3,-2,0,-1,-2,-2
59362248189,-3,2,-1,3,0,0,-2,-3
59362248189,-4,-5,-2,-2,0,-1,1,-2
59362257153,-4,-2,-2,0,2,0,0,-2
59362257153,-13,-5,0,-3,-1,-4,-5,-1
59362271380,1,-1,-1,3,0,-1,-4,0
59362271380,1,0,0,1,0,-1,-4,0
59362278163,-12,-5,0,-2,-4,-1,-2,0
59362278163,8,2,-1,1,1,0,1,1
59362294517,-2,-2,-2,-2,-2,-1,-2,0
59362294517,-2,4,2,-4,0,1,-1,-2
59362296174,-6,-6,-4,-4,0,-2,-1,-4
59362296174,-2,-5,-1,1,-2,-4,-3,0
59362308145,2,1,0,-1,-1,-1,0,-2
59362308145,1,-4,-2,-1,-1,-1,4,1
59362317215,7,8,0,-2,-2,0,1,-1
59362317215,-4,0,0,-1,-2,1,-1,-2
59362331381,5,1,0,-2,-1,0,-1,-3
59362331381,7,-2,-1,-1,-3,-3,-1,-1
59362338170,7,4,3,-3,3,-1,1,1
59362338170,8,6,-2,5,-2,-1,0,2
59362354529,-4,5,-1,-7,0,0,1,0
59362354529,8,3,0,1,0,-2,-3,-4
59362356120,-3,-8,-2,-5,-4,-2,-1,1
59362356120,2,-2,-1,-4,1,-2,-2,-1
59362368156,-9,-6,-1,17,-3,-2,-3,-1
59362368156,-2,1,0,-11,-2,-3,1,-1
59362377144,-12,-22,-5,0,0,-2,-2,-1
59362377144,-1,-2,-2,-2,-1,1,1,0
59362391377,-4,-3,0,0,-3,-3,0,-1
59362391377,-5,-6,-3,0,-1,0,0,-1
59362398124,-6,-5,0,-4,-2,-1,-2,-3
59362398124,-5,-2,-1,-1,-1,0,0,-2
59362414483,1,-2,-1,-6,1,0,-1,-3
59362414483,-5,-2,-4,1,-1,-1,-2,1
59362416115,-1,0,-2,2,-2,0,-1,1
59362416115,-4,-1,-2,0,-1,-1,-2,-1
59362428148,8,-1,-1,-5,0,-1,-1,-2
59362428148,-1,-2,0,2,-1,1,1,1
59362437136,2,1,-3,0,-2,-1,-1,-3
59362437136,-1,-3,0,-3,-2,-1,0,-1
59362451371,-4,-2,-1,-3,-1,-1,-3,1
59362451371,-7,-5,-3,0,1,2,0,-3
59362458176,0,2,1,0,0,-1,1,-1
59362458176,-4,-1,-5,-5,-1,0,-1,-2
59362474566,-4,6,2,0,1,0,1,-2
59362474566,-6,-20,-1,-2,-2,-1,-3,-1
59362476144,-1,2,1,-1,1,1,-2,-2
59362476144,12,9,-2,-2,1,-2,2,0
59362497024,-6,-2,0,-1,-3,-3,-1,0
59362497024,-9,0,-5,-1,0,-1,-1,-1
59362498660,-6,-7,2,-1,-2,1,-1,-1
59362498660,-3,-8,0,1,-1,0,-1,0
59362512004,-1,-2,-1,-12,-2,0,0,1
59362512004,1,2,-1,-4,0,-3,-2,0
59362513628,0,1,-1,3,-1,1,0,-2
59362513628,2,5,1,2,-1,-1,0,0
59362534504,-1,2,-1,-1,-1,0,-3,-2
59362534504,8,-2,-5,-1,-2,-2,-2,-2
59362536135,3,4,0,-4,1,0,-1,0
59362536135,-4,-4,0,2,1,-1,-2,-2
59362557011,5,-1,-1,1,-1,-2,1,-3
59362557011,8,8,-2,-10,-2,0,-1,1
59362558604,-1,1,-3,2,-1,-2,0,-1
59362558604,-5,-2,-3,0,-3,0,-3,-3
59362571989,5,-6,-3,0,2,-1,-2,2
59362571989,-6,1,5,2,-1,1,-1,0
59362573618,-1,-2,-2,-2,-2,0,-3,-1
59362573618,4,5,3,-3,0,-3,-1,2
59362594507,-7,-3,-3,1,-1,-1,-2,-1
59362594507,-2,2,3,2,0,0,-1,-1
59362596125,-2,-1,0,-1,-2,-1,-1,-1
59362596125,1,1,-3,-2,-1,-2,-1,-2
59362616971,0,-2,-1,-2,-1,-1,-2,-2
59362616971,0,-1,0,2,0,0,0,-2
59362618600,-3,-3,-1,-2,0,0,0,0
59362618600,2,3,0,0,-2,-1,-1,-1
59362631381,-2,-2,0,-3,-2,0,-3,-2
59362631381,10,15,4,1,-1,-2,4,-1
59362638131,-1,-4,-2,-1,0,-1,-4,-1
59362638131,-2,-3,-3,1,0,-1,-1,0
59362654519,-1,-1,1,-2,-2,-2,1,1
59362654519,-1,-3,-3,0,1,-3,-3,-2
59362656138,3,6,0,-2,0,-3,-2,1
59362656138,-3,-1,-1,-3,-4,-3,-1,-1
59362677053,-3,-3,-4,0,-2,-2,-3,-3
59362677053,-7,-6,-3,0,-3,-1,-1,-2
59362678594,4,0,-2,-2,-2,-2,-1,-3
59362678594,7,3,1,-1,-1,1,-2,2
59362691379,-10,-12,0,-4,-2,0,1,-2
59362691379,-3,0,-1,-1,-1,-2,0,-1
59362698167,0,-3,-3,2,-1,0,-1,1
59362698167,2,0,0,-3,-1,-1,0,-1
59362714559,10,3,-6,0,-2,0,-1,1
59362714559,-10,0,3,-2,-3,-2,-3,-1
59362716139,-5,-5,-3,-3,0,-3,-1,-4
59362716139,-6,-8,-2,-1,-1,-3,0,-2
59362737005,0,3,-1,-2,0,0,1,-2
59362737005,-5,-6,-3,-1,-1,-3,-2,2
59362738610,-2,-1,-2,1,0,-1,-2,-2
59362738610,-5,-3,-1,-1,1,0,-2,-3
59362751386,-2,-2,-3,-1,-1,0,0,-1
59362751386,2,-1,-2,-1,-1,0,-2,2
59362758126,6,0,0,-2,1,-2,2,0
59362758126,-3,-3,-2,0,1,-1,-1,-2
59362774484,-4,0,-2,-2,-2,-2,-2,0
59362774484,4,8,1,1,1,1,0,-2
59362776122,1,4,1,-1,-3,-2,1,1
59362776122,-3,-3,-3,-1,0,-1,-2,0
59362797032,1,2,4,-1,-2,0,-1,-2
59362797032,2,0,-2,-2,-2,-2,-1,-1
59362798646,-1,-1,-1,-3,0,-2,0,-2
59362798646,-4,-2,-4,-3,-2,-1,-1,-3
59362811417,-3,2,0,2,0,-2,0,-3
59362811417,-6,-6,-2,-2,-3,-1,-3,-3
59362818155,-4,-3,2,-1,0,0,0,-2
59362818155,-5,-5,-4,-1,-1,-1,0,-3
59362834473,0,-3,-3,-3,0,0,-1,0
59362834473,-3,-4,-3,0,-1,0,-2,-2
59362836116,-1,-1,-2,-3,-1,-1,-2,-1
59362836116,2,6,-1,-2,-2,-2,-1,-2
59362856968,3,1,-1,0,0,-3,0,-1
59362856968,-1,-2,0,0,-1,1,0,-1
59362858566,-4,-2,-1,0,0,-1,0,0
59362858566,-5,-19,-2,-3,-1,-1,2,1
59362871424,0,3,1,1,0,-2,-1,-1
59362871424,2,0,1,0,0,-2,0,-1
59362878110,1,1,-1,-2,-3,-2,-2,0
59362878110,-2,-1,-2,1,-1,-1,-1,-2
59362894520,-3,-4,-1,-1,-1,1,-1,0
59362894520,0,-1,-1,-2,3,-1,0,0
59362896129,-2,-3,-4,-1,-2,-1,-2,-6
59362896129,4,-1,-3,-1,-2,-2,-3,-2
59362916964,-2,0,2,-2,-1,0,-2,2
59362916964,-2,3,1,-2,-2,0,-3,-1
59362918583,-3,-3,-2,-2,-1,0,0,2
59362918583,0,0,0,-3,0,1,0,-2
59362931379,-1,-3,-1,-1,-2,0,-1,-3
59362931379,-1,-1,-3,-2,-1,-3,-2,-1
59362938174,-9,-17,-3,1,-3,-1,-4,-2
59362938174,-4,-1,0,-1,-1,1,-3,-2
59362954535,0,0,-2,-2,-2,-1,-2,-3
59362954535,0,-1,1,-1,-1,-1,2,0
59362956136,-2,2,0,-1,-1,0,-2,-2
59362956136,7,5,-2,1,0,-2,1,2
59362977655,-3,-3,-1,-2,0,-3,-1,-2
59362977655,-13,-5,-2,1,-2,-2,-2,0
59362979268,-1,0,-4,-2,-3,-1,-1,-2
59362979268,6,3,-1,0,-1,-2,1,0
59362991139,-4,1,2,-2,0,-2,-1,0
59362991139,1,-4,-1,-2,0,-3,-2,-1
59362999618,3,3,1,0,-1,-1,-1,2
59362999618,-3,8,2,-2,-3,-2,-3,-2
59363014497,-9,-4,-5,-1,1,-3,1,-1
59363014497,10,-1,-2,-3,0,0,0,-4
59363016133,0,7,1,-2,1,-1,1,-1
59363016133,-6,-10,1,-2,-2,-1,-2,-1
59363037041,1,0,0,2,-1,-1,-2,0
59363037041,0,0,-2,-1,-4,-1,-2,-1
59363038672,3,2,2,-1,-2,-1,-1,-1
59363038672,-3,-2,-1,-2,-1,-2,-3,0
59363050645,3,-1,-1,-3,-2,-1,-1,-2
59363050645,-2,-1,-2,-1,-1,-2,0,-1
59363059699,-1,-4,-2,-1,-2,-1,0,-3
59363059699,-5,-3,-2,1,1,-1,-1,-1
59363074529,3,-3,-1,1,-4,0,0,-3
59363074529,-4,1,0,0,-1,-3,1,0
59363076138,2,-1,0,-2,-1,0,-1,-1
59363076138,-4,-2,-4,-2,0,0,0,-2
59363097008,1,-1,-2,0,-2,-2,-2,-1
59363097008,-1,-4,-1,0,-4,-1,-2,-2
59363098607,1,1,-1,-1,-1,-3,0,-1
59363098607,3,2,1,-1,-1,-2,-5,-2
59363110649,3,6,-1,-3,1,-1,0,0
59363110649,0,5,1,1,0,-2,1,-1
59363119691,-2,-2,-4,2,0,-1,0,0
59363119691,-2,-3,1,-2,-2,-2,-1,1
59363134532,2,-2,0,1,0,-1,-2,0
59363134532,0,-1,-1,-1,-1,-1,-3,-1
59363136137,-5,-1,-3,-1,-1,1,-2,2
59363136137,10,9,0,1,0,-1,-1,-2
59363156997,-3,-2,-4,-2,-3,-2,-1,-1
59363156997,-1,-3,-1,-1,-1,-2,-1,1
59363158715,-2,-3,0,-4,-3,-2,-3,-2
59363158715,-4,-2,-1,-3,-1,1,1,-3
59363170772,0,-6,-2,1,0,-1,0,-3
59363170772,3,1,-1,0,-1,0,-1,-4
59363179680,2,3,0,-1,-2,-1,1,0
59363179680,-3,-3,-3,-1,-2,-3,-1,1
59363194545,-3,1,1,-2,0,0,-4,0
59363194545,-4,-3,-2,-2,0,-1,0,0
59363196091,0,0,0,0,0,-2,-2,-2
59363196091,-1,2,1,-1,-3,0,-3,-2
59363217053,0,-1,-4,0,2,2,-1,1
59363217053,-1,-5,-1,-3,-2,0,-2,1
59363218691,-2,-1,0,-1,0,0,0,-4
59363218691,0,-7,-6,-1,-1,-2,1,-1
59363230742,3,9,1,-1,0,-3,0,-1
59363230742,1,1,0,-2,1,0,1,-3
59363239703,-5,-4,-2,-3,-1,1,0,-1
59363239703,-4,-2,0,0,-2,-1,0,0
59363254767,-4,-3,1,-1,-3,-3,0,0
59363254767,1,-1,-2,-2,-2,-3,-1,-1
59363256176,1,1,-2,0,1,-1,-5,-1
59363256176,-2,2,0,-1,1,1,-1,0
59363277652,-2,-4,-1,0,-1,-2,0,-3
59363277652,-3,-1,-1,0,0,0,-4,1
59363279164,-1,-3,-3,-1,-3,-1,0,-2
59363279164,-2,4,0,-2,-3,0,-2,1
59363290684,-8,-18,1,-2,-1,0,-4,-2
59363290684,8,6,-2,0,-1,-2,0,-2
59363299695,-3,1,-1,1,-2,-2,-2,2
59363299695,-2,-2,-1,0,0,-2,-1,-2
59363314572,0,3,2,-2,-4,-2,0,-1
59363314572,-1,-3,0,-3,-1,0,1,-1
59363316119,-3,-5,1,0,0,0,-2,1
59363316119,-4,0,0,0,-2,-3,-2,-4
59363337069,-1,1,0,-1,0,0,-1,0
59363337069,-4,-4,-2,1,0,0,-2,-4
59363338601,-1,1,0,0,-1,-3,0,-1
59363338601,-1,-3,-1,-2,1,-1,0,0
59363350818,-1,-1,-2,0,-4,1,-1,-1
59363350818,-3,4,-1,0,1,-1,-2,-2
59363359728,-10,-16,-2,-1,0,-3,-3,-1
59363359728,-3,0,2,-3,-2,0,-1,-2
59363374791,0,2,-2,-2,-1,-2,-3,-1
59363374791,-2,-3,1,-1,-1,1,-2,-2
59363376176,1,3,1,-2,-2,1,-1,1
59363376176,-1,-2,-4,-3,0,0,0,1
59363404637,-2,-2,-2,-1,0,-1,0,-1
59363404637,-6,-2,0,0,0,-2,-2,-2
59363406167,1,0,-3,-2,0,-1,0,0
59363406167,1,-2,0,0,-2,0,0,1
59363419548,0,2,-2,-2,-1,-1,-3,-1
59363419548,-2,-3,-2,-1,-3,-3,-1,-2
59363421115,1,2,-3,-1,-3,-2,-2,0
59363421115,0,-2,2,1,1,0,-1,-3
59363434677,-8,0,-1,-2,-2,-1,0,-2
59363434677,-11,-3,-3,-1,-1,-1,-3,-1
59363436110,-7,-2,1,-2,0,0,-2,-2
59363436110,-4,-14,-4,-1,-2,-1,0,2
59363457084,-1,-1,-2,1,-1,1,-1,-1
59363457084,3,-1,-1,0,-1,-2,1,3
59363458684,0,3,0,-1,0,0,0,-3
59363458684,-2,-2,-3,0,0,-2,-1,-2
59363479727,2,-2,-3,0,-1,-2,2,-1
59363479727,-1,-2,1,-2,-3,-2,0,1
59363481171,1,2,-1,2,-2,-1,-1,-3
59363481171,-2,-1,-2,-1,-1,0,0,-3
59363494067,3,0,0,-3,-1,-2,-2,-1
59363494067,-1,0,-1,-2,-2,-2,1,-3
59363500856,0,-1,1,0,0,-2,0,-1
59363500856,-1,0,0,0,-2,-1,0,0
59363517059,-3,-1,-5,-2,0,-2,-4,0
59363517059,1,-2,-1,1,-2,0,0,1
59363518628,-1,-2,-2,-2,-2,0,-1,-2
59363518628,0,2,-2,-2,0,0,1,0
59363539815,1,1,-1,-1,0,0,0,1
59363539815,6,9,-3,-1,1,0,0,-2
59363541201,3,3,-1,0,0,-1,1,2
59363541201,9,2,1,-1,-1,-2,-1,0
59363554766,2,1,-1,-1,1,0,2,-1
59363554766,-1,-3,-4,-3,0,-2,-3,-2
59363556141,-2,-4,2,-3,-3,-1,0,-1
59363556141,2,1,-5,-1,-2,-1,-2,-1
59363577226,2,4,1,-2,0,-1,0,-1
59363577226,-2,-5,0,-2,-1,-1,-3,-3
59363578663,2,-2,-2,-1,-1,0,-2,0
59363578663,-6,-3,-1,-3,-2,0,-1,-1
59363607187,-1,-5,-2,-1,-3,-1,-2,0
59363607187,-2,-2,-3,0,-1,1,0,-1
59363608637,-2,-2,-3,0,-1,-1,0,0
59363608637,5,13,0,-2,1,-1,-3,-1
59363613840,-3,-2,1,-1,0,0,-1,-1
59363613840,3,-2,1,-1,0,0,-3,-3
59363620910,1,1,-1,-3,-1,-2,-1,-1
59363620910,-4,-1,0,-1,-4,-2,-1,-2
59363637278,-2,-1,-1,1,-2,0,-1,-1
59363637278,-15,-9,-2,0,-2,-2,-3,-1
59363638663,6,10,1,2,0,-1,1,-1
59363638663,-3,-7,1,-1,-1,-2,-2,-2
59363659771,-3,-3,-1,-1,-2,0,0,-3
59363659771,0,-3,2,0,-4,0,-2,-1
59363661259,-2,-2,-4,-1,0,-1,-1,-1
59363661259,-3,-2,-1,1,0,-2,-1,0
59363674070,2,0,-1,-1,0,-1,-2,-1
59363674070,-1,0,0,-4,1,-2,0,-1
59363680756,-4,-1,0,1,-1,0,-3,0
59363680756,-1,-4,-2,0,-1,-2,-2,-1
59363704486,3,2,-3,0,-1,-1,-1,1
59363704486,0,1,-1,-1,1,3,0,-1
59363706046,-1,-4,-5,-3,-1,0,-2,-3
59363706046,-5,-3,2,1,1,-1,-1,-2
59363719596,7,6,0,2,-1,-1,-1,-1
59363719596,-5,-13,0,-2,-2,-2,-1,0
59363721070,-1,-3,-2,-1,-2,-2,0,1
59363721070,-1,0,0,-2,0,0,0,-2
59363733965,7,-1,-1,-2,-2,-2,-1,-1
59363733965,7,9,1,1,1,-2,2,1
59363740809,-1,-4,-1,-1,-2,-2,-2,-2
59363740809,-5,-3,-3,-1,-3,-2,0,-2
59363757109,-9,-4,2,-4,0,-2,-2,-1
59363757109,0,3,1,1,-2,-1,-1,1
59363758656,-2,-2,-1,-1,-1,-2,-2,-2
59363758656,3,3,-3,0,-2,1,0,-1
59363779540,-4,-2,-2,1,-1,0,-2,-2
59363779540,-2,0,-2,-3,-3,0,-1,-1
59363781069,0,10,2,1,0,0,-1,0
59363781069,-5,-2,0,1,-2,-1,-4,-1
59363793987,4,1,0,0,1,0,2,0
59363793987,-1,-2,-3,-2,-3,-2,-1,-1
59363800691,0,-4,0,-1,1,-1,-2,-1
59363800691,-6,-5,-3,-2,-1,-1,1,0
59363817135,-4,4,-2,-1,-2,-1,-3,1
59363817135,1,3,-6,-3,0,-2,-2,-2
59363818750,1,-1,0,-1,0,-1,-1,0
59363818750,0,-1,-1,0,-1,1,1,1
59363839653,-3,-4,0,0,-2,-2,0,-3
59363839653,0,-2,-1,1,-1,0,-1,0
59363841145,-2,-3,-2,-2,-2,-1,-3,-1
59363841145,-2,-6,-3,-3,-3,-1,-1,-5
59363853883,1,-1,-2,0,0,0,-1,-1
59363853883,-2,-2,1,1,0,-1,0,-1
59363860900,2,2,1,-1,0,0,0,0
59363860900,-3,-14,-2,-1,-2,-1,-2,-1
59363877039,-4,-2,-4,-2,-1,-3,0,-1
59363877039,1,0,0,-2,-3,1,-4,0
59363878615,-2,-3,-4,-1,0,-1,1,0
59363878615,3,3,-2,-3,-1,-3,-3,0
59363898621,-2,-4,-2,0,1,0,-1,-1
59363898621,-4,0,0,0,1,0,-1,-1
59363907195,-1,-4,-2,-2,-2,-3,-2,-2
59363907195,1,4,2,-1,-3,-3,0,-3
59363913219,-3,-3,-3,-4,-1,-1,-2,1
59363913219,-4,0,-5,-3,-3,-3,-3,-2
59363922171,-2,-1,-1,-1,-1,0,1,-3
59363922171,1,2,-1,-1,0,-1,-1,-1
59363937092,-1,4,1,0,-2,-1,-1,-2
59363937092,-4,-12,-1,-1,-2,0,0,1
59363938641,-2,0,-3,-2,0,1,-2,0
59363938641,2,0,-1,0,0,-1,-1,0
59363959494,0,0,1,-3,-4,-2,1,0
59363959494,3,2,-2,2,-1,-2,-1,1
59363961057,-4,-3,0,-4,-2,-3,-1,-2
59363961057,3,5,0,-1,-2,-1,0,-1
59363973180,-5,-7,-1,-1,0,-2,-1,0
59363973180,0,2,-2,-3,-2,-1,-2,-3
59363982135,-2,-3,-2,-1,-2,-1,1,0
59363982135,-2,0,-3,-1,-2,0,-1,0
59363997133,-2,-2,0,-2,-1,-1,-4,-2
59363997133,-2,1,1,-2,-2,-2,-1,-1
59363998742,-3,1,1,0,-2,0,-2,-5
59363998742,-2,-1,-1,-4,1,-1,-2,1
59364019509,-4,-3,-3,1,-4,1,0,-1
59364019509,3,0,2,1,1,-1,-1,0
59364021115,-5,-3,-1,-1,-1,-2,-4,-3
59364021115,-3,-2,-3,-3,-1,0,-1,-1
59364033129,-7,-12,1,-1,0,-1,-1,1
59364033129,-7,-1,0,-1,-1,0,2,-1
59364042205,9,4,0,0,0,0,0,0
59364042205,3,-2,0,1,3,0,-1,-3
59364057051,1,2,-3,-2,-1,0,1,0
59364057051,-1,-2,-1,-1,-1,-2,-1,0
59364058658,-3,-2,-2,-3,-1,-1,-1,0
59364058658,-3,2,-3,0,-1,0,-1,-2
59364079712,4,0,-2,-1,0,0,-2,-2
59364079712,3,0,1,-1,-3,0,-2,1
59364081143,-1,-2,-1,0,0,-2,-2,-1
59364081143,0,0,-2,1,-2,-1,-1,-1
59364093339,-2,-1,-3,0,-2,-2,-2,0
59364093339,0,-1,-2,-2,-1,1,-1,-2
59364108409,0,0,-1,-2,-1,0,-1,2
59364108409,-1,-3,0,-2,-2,-1,-2,-2
59364117082,0,0,-2,0,1,0,1,0
59364117082,-5,-11,-2,-3,-1,-3,-1,0
59364118605,9,1,-2,0,-2,-1,0,-1
59364118605,0,5,1,1,0,0,0,-1
59364139624,-5,-4,-2,-3,-2,-2,-1,2
59364139624,1,6,1,0,1,0,-1,-1
59364141124,-8,-3,-1,-3,-1,-2,-1,-2
59364141124,-4,-5,1,0,-2,-2,-2,0
59364153188,2,2,0,1,0,0,0,-2
59364153188,0,3,-2,-1,-2,0,-3,0
59364162206,-2,-3,-1,0,-2,1,-1,-3
59364162206,-1,0,-1,-2,-3,-3,-2,-1
59364177255,-2,0,-1,0,0,-4,0,-4
59364177255,1,-1,-2,-2,-1,-3,0,-2
59364178666,-2,1,0,-2,1,-1,-1,-2
59364178666,-2,0,0,-1,-2,-2,0,1
59364199558,-1,-3,1,-2,0,-1,-2,-1
59364199558,2,-1,-1,0,-1,0,-2,-2
59364201145,4,10,1,0,0,-1,-1,-2
59364201145,0,-3,-4,-1,-2,1,0,0
59364213332,-3,-1,0,0,-2,-1,-3,-4
59364213332,-1,-1,-2,-1,-3,0,0,-1
59364222254,0,0,-1,-1,-1,-1,0,1
59364222254,0,-3,-2,-2,1,-2,-2,1
59364237238,0,0,-3,-1,-2,-1,0,0
59364237238,-4,-5,-4,-2,-2,-2,-3,-3
59364238616,2,-1,2,0,-2,0,1,0
59364238616,-4,3,1,2,-3,-1,0,0
59364259514,-1,-3,-3,-3,-1,-1,0,0
59364259514,-3,-1,-2,-1,1,0,-1,1
59364261100,-2,-2,-2,0,-1,0,-1,1
59364261100,-6,-2,-1,0,-1,-2,1,-3
59364273136,2,1,1,-2,2,-1,-1,-1
59364273136,0,-1,-1,0,-2,-2,1,-1
59364282169,-3,-4,-2,0,-3,-2,-2,-2
59364282169,0,0,-2,-2,-3,0,-1,-1
59364296984,0,3,0,-3,-4,-2,-3,-1
59364296984,-1,0,-3,-2,-1,-2,-1,-1
59364298650,-3,-2,-1,-2,-1,0,-2,0
59364298650,-1,-3,-3,1,-1,0,0,-2
59364327044,-3,-1,-3,-1,0,-1,-3,-3
59364327044,4,4,1,0,-1,0,-2,-1
59364328612,0,-2,-1,0,-1,-1,0,-1
59364328612,-2,-3,-3,-2,0,0,-1,-2
59364333441,-2,0,-1,0,-1,-1,0,0
59364333441,0,-1,0,-2,-1,1,1,-2
59364348262,0,-2,-4,-1,-2,0,-1,-3
59364348262,-1,-4,0,-4,2,-2,0,-1
59364357082,-2,-2,-2,-2,-2,-2,-4,-4
59364357082,-4,-2,2,1,0,-3,-2,0
59364358580,-3,-5,-2,-1,-2,0,-3,-1
59364358580,2,1,-2,-1,-1,-1,1,0
59364379761,0,-3,-3,-1,1,-1,2,-2
59364379761,-13,-9,0,-3,0,0,-2,0
59364381276,-6,-2,1,-1,-1,-2,1,-1
59364381276,1,0,1,-1,-3,1,-3,-1
59364402122,1,-2,1,0,0,1,0,2
59364402122,4,2,-2,-2,-2,-3,-1,-1
59364403681,-6,-4,-2,0,0,-1,-2,-1
59364403681,0,0,0,-3,-2,-2,-3,-2
59364417223,-1,0,1,0,1,-3,0,1
59364417223,3,3,0,-1,-1,1,-2,0
59364418675,1,0,-1,0,0,-3,0,0
59364418675,0,-1,2,-1,0,-1,-3,-1
59364439756,-2,0,0,-1,-2,0,2,2
59364439756,2,1,-2,0,0,0,0,0
59364441198,2,0,0,-4,-1,-1,0,-1
59364441198,-1,-2,-2,1,-2,-1,0,-2
59364462096,-3,-1,0,-1,-2,-2,-2,-4
59364462096,1,0,0,-3,-2,-2,-4,-1
59364463609,0,1,-3,-2,1,-1,-2,-1
59364463609,-3,-11,-1,-3,0,-3,-1,0
59364476605,1,2,-1,-2,-2,-3,-3,-1
59364476605,-1,1,0,0,-2,-1,1,-4
59364483215,0,-3,-1,0,-1,-2,-2,-2
59364483215,0,2,-2,1,0,0,-2,1
59364499807,-2,-3,-1,-2,1,-1,-1,-1
59364499807,1,-6,-4,-1,1,-2,0,1
59364501184,-2,8,1,1,-2,0,0,2
59364501184,-4,-3,0,-2,-1,-2,-1,-2
59364529546,0,-2,-3,-1,-2,-1,-1,-1
59364529546,1,1,-1,-1,-3,0,-2,1
59364531198,-2,-5,-3,-2,0,-1,-4,-3
59364531198,1,4,0,0,-2,0,1,-2
59364536437,0,0,-1,-1,-2,0,-4,0
59364536437,-5,-3,2,-1,-1,0,-4,-4
59364543485,-1,-1,-1,-2,-1,-2,-1,0
59364543485,5,2,-1,-4,-1,-2,-4,0
59364559721,-12,-20,-1,-2,-2,-2,0,1
59364559721,2,1,1,-1,0,-1,2,0
59364561064,0,0,0,0,0,-1,0,0
59364561064,-1,1,-2,-1,-1,-1,-3,2
59364582243,-3,2,0,0,-1,0,1,-3
59364582243,1,-2,-2,-1,-3,-2,-3,-2
59364583671,-2,-6,-4,0,-2,-2,-2,0
59364583671,-1,-3,0,0,-3,-1,1,-1
59364596517,4,2,0,-1,-1,-1,-1,-1
59364596517,-3,-1,-1,0,-2,-2,0,0
59364603311,2,0,1,-2,0,0,-1,-2
59364603311,-5,-3,-1,-2,-3,-2,-3,0
59364619598,1,1,-1,-1,1,-1,-1,0
59364619598,-3,-1,-3,-1,1,-1,0,-1
59364621113,1,-2,-2,-3,-2,-1,-2,-1
59364621113,-1,0,-2,-2,-1,-2,0,0
59364642106,2,-3,-4,0,-2,-2,-2,-4
59364642106,-2,2,1,-1,1,-2,-1,-1
59364643720,-1,-19,-1,-2,-1,0,-1,-2
59364643720,-2,0,-4,-1,1,-1,-1,-2
59364656474,0,4,-2,-1,-2,-2,1,1
59364656474,0,0,-4,-3,-2,-1,-1,0
59364663205,-2,1,1,-2,-3,-2,-2,-1
59364663205,-1,-2,-4,-1,1,-1,0,-3
59364679630,2,-4,-3,-1,-2,0,0,0
59364679630,2,3,1,2,0,-2,0,1
59364681175,-2,3,2,0,-1,0,2,-2
59364681175,-1,-3,0,-3,-3,-2,-2,-1
59364702063,-1,3,-1,-1,0,0,-1,1
59364702063,-3,-3,0,-1,-3,0,0,-1
59364703650,2,1,-1,0,0,0,-1,-1
59364703650,-1,-1,-3,-1,-1,0,2,-1
59364716600,0,-1,-2,0,-1,-1,-1,-3
59364716600,-2,-2,-4,-2,1,-1,-2,-2
59364730685,0,2,1,-1,-2,-3,-3,1
59364730685,7,6,-1,-1,0,-1,-1,-3
59364739569,-4,2,1,-1,0,-1,1,-1
59364739569,-3,-2,-1,-2,-5,-1,-2,-1
59364741213,-3,-1,-2,0,-1,0,-2,-1
59364741213,-2,1,-2,1,-1,0,-2,0
59364762021,-3,-2,0,-2,-1,-3,-1,0
59364762021,2,-2,1,0,0,-2,1,-1
59364763624,3,5,-1,-3,-1,-3,0,0
59364763624,-2,-4,0,-1,-2,-1,-2,0
59364776629,-2,-2,0,0,1,0,-1,0
59364776629,0,-4,-2,0,0,1,-1,-1
59364783381,-2,-1,-1,-3,-4,-2,-2,0
59364783381,-2,-2,2,-1,-1,0,0,2
59364799694,1,-3,-1,2,-1,-2,-2,1
59364799694,-1,0,-2,-2,1,-1,-1,-1
59364801182,0,-12,-4,-1,-1,-2,-2,-1
59364801182,5,7,2,-1,-1,1,1,1
59364822253,1,1,1,-1,1,1,-2,-3
59364822253,-4,-3,-2,-1,0,1,-2,-1
59364823663,-3,3,-1,-1,-2,-1,-3,-1
59364823663,-10,-9,-4,-3,-3,-3,-3,-4
59364836463,-1,-2,0,0,-1,-2,-2,-2
59364836463,1,0,0,-1,-3,-1,1,2
59364843207,-4,0,-3,1,-1,-1,-2,-1
59364843207,-3,-3,-1,-1,0,-1,-2,0
