timestamp,emg1,emg2,emg3,emg4,emg5,emg6,emg7,emg8
81769506384,-1,2,-3,-2,-3,-4,-2,-1
81769506384,-3,-4,-2,-3,-1,-1,-2,-2
81769507948,-2,-5,-1,-3,-3,0,-2,-1
81769507948,-1,-1,0,2,0,-1,-1,0
81769528816,1,-1,0,1,0,-1,-1,0
81769528816,-3,-4,-1,-2,-3,-2,-2,0
81769530413,0,-5,0,-3,1,-3,-1,-1
81769530413,-2,-1,-2,-2,-2,-2,-1,-1
81769551322,-1,-2,0,8,-1,-1,-1,-2
81769551322,-2,0,-2,-9,-4,-1,-1,1
81769552898,-1,3,-1,5,0,2,-1,-2
81769552898,-2,-22,-4,-4,-2,-1,0,-2
81769565701,-5,-2,-3,-11,1,-1,0,-2
81769565701,16,4,2,21,3,1,-1,1
81769572401,0,-1,0,6,1,-1,-2,1
81769572401,-4,-1,-6,2,-8,-6,-4,-3
81769588805,1,0,0,-9,-1,-1,-1,-1
81769588805,4,-7,-3,5,-2,-1,-1,-1
81769590402,-6,8,0,5,4,-1,-1,0
81769590402,-1,3,1,0,2,0,-1,-3
81769611358,1,-3,-2,-7,-4,-2,0,-1
81769611358,-4,0,-1,1,2,-1,1,-1
81769612976,3,-2,-3,-4,-6,-1,-1,-5
81769612976,-5,0,0,-5,-1,0,-2,0
81769625787,-3,-1,0,-2,-2,-2,-4,-3
81769625787,-4,-1,-2,-4,-1,-1,-3,-1
81769632616,2,-2,-3,-4,-2,0,0,0
81769632616,-3,-2,-1,-6,-2,0,-1,-1
81769649030,2,0,0,14,1,0,-1,-2
81769649030,-4,-2,-2,-5,-2,-1,-1,-2
81769650383,-4,-4,-3,-6,-4,-3,-2,0
81769650383,2,4,0,6,2,1,0,0
81769671541,-2,-2,-1,1,1,-1,-1,0
81769671541,-5,-2,-1,-7,-2,-2,-1,-1
81769673023,-3,11,-3,-11,-5,-1,-1,-2
81769673023,0,1,0,1,-1,-2,-1,-2
81769685766,3,0,1,-1,-2,0,0,1
81769685766,-6,-3,0,-5,-2,0,0,-2
81769692481,1,-1,0,12,2,0,-2,-1
81769692481,-1,2,0,4,3,0,1,-1
81769709088,-1,-2,-4,3,-4,-2,-2,-3
81769709088,-2,3,0,-4,1,1,-3,0
81769710428,0,-5,0,11,3,-3,0,-1
81769710428,-2,-2,-2,-26,-3,-1,-2,0
81769731541,-3,-4,-1,9,1,-1,0,1
81769731541,-1,-1,-4,3,-3,-2,-1,0
81769732952,2,-3,-2,-8,-4,-1,-1,-2
81769732952,3,4,-2,4,0,-2,-2,-2
81769745688,-8,-4,-3,-4,-1,-2,-2,-3
81769745688,-4,-3,-2,-7,-2,-2,-2,-1
81769752514,-1,-3,-1,4,1,-1,-2,-1
81769752514,1,1,0,5,-1,0,-2,-1
81769768874,9,-6,-3,-12,-2,0,0,0
81769768874,-1,6,1,3,-1,-2,1,1
81769770481,-3,-3,-3,20,0,-4,-4,-4
81769770481,-5,-7,-3,-16,-5,-1,0,-2
81769791336,2,2,0,3,-3,-2,0,1
81769791336,2,-4,-1,17,5,1,0,-2
81769792966,-2,-1,-6,-54,-11,-4,-2,-3
81769792966,-1,3,-1,3,1,-1,0,-1
81769805655,-5,-1,0,1,1,1,-1,-1
81769805655,-1,-1,-3,2,-4,-2,0,-1
81769812468,-4,-1,-2,-14,-5,1,-1,1
81769812468,2,-1,1,10,1,1,-1,0
81769828759,-6,-2,-2,-10,-2,-2,-2,-1
81769828759,-5,-15,-3,5,1,-2,-2,-1
81769830424,2,0,0,4,1,0,1,0
81769830424,-5,-3,0,-4,0,0,-1,0
81769851324,16,4,3,7,1,-1,-1,-1
81769851324,-1,5,-1,-8,-3,0,-3,0
81769852937,-1,-1,1,3,0,0,-1,-1
81769852937,-1,-2,1,5,-1,-1,0,-2
81769865697,-9,0,-3,-3,-1,0,-1,-3
81769865697,3,1,-2,2,0,-4,0,-2
81769872455,2,-1,0,-5,-1,1,-1,-2
81769872455,-2,-5,-3,-6,-1,-1,0,-1
81769889064,-1,3,-1,-5,-2,0,-2,-1
81769889064,-2,-3,-1,-14,-4,-1,0,-2
81769890522,-4,-5,-2,12,2,-1,-1,0
81769890522,-1,2,-2,17,1,-1,-2,-2
81769911402,-4,-3,-1,-10,-3,-1,0,-1
81769911402,-3,-20,-3,3,-2,-2,1,-2
81769913033,0,3,-1,5,0,-3,-1,-1
81769913033,-3,-1,-2,-2,-2,-1,-2,0
81769925178,-4,-5,-1,-6,0,-3,0,3
81769925178,-2,5,1,-5,-1,1,-2,-1
81769934036,-1,-2,0,12,-1,-2,-1,-2
81769934036,-1,-3,-4,-22,-9,-3,-2,-2
81769948830,-3,0,0,2,0,0,-1,-2
81769948830,0,4,0,-5,1,0,-1,0
81769950409,-2,-3,1,8,2,0,0,0
81769950409,0,1,-1,-2,0,1,0,-1
81769979085,11,3,0,5,-1,-2,0,-1
81769979085,2,0,-4,-9,-3,-3,-2,-3
81769980506,-15,1,0,-5,1,0,0,1
81769980506,-3,-1,-1,13,1,-1,-1,-1
81769985089,-2,-1,-3,-16,-2,0,-2,-1
81769985089,-1,2,1,3,0,1,-1,0
81770001493,4,-16,-3,-15,-3,0,0,-1
81770001493,-3,1,-2,1,-2,-1,0,-2
81770008831,-6,0,-1,-1,-1,0,0,0
81770008831,-2,-5,-2,2,-2,-2,0,-1
81770010458,2,7,-1,5,1,-1,-2,-3
81770010458,0,-3,1,-3,0,0,-1,-1
81770031262,-2,-5,-2,4,-2,0,-1,-1
81770031262,-2,3,-2,-9,-4,-1,-2,0
81770034734,2,-1,0,1,-2,-2,-1,0
81770034734,1,-1,0,-7,0,-1,0,0
81770044993,-2,2,1,-3,1,-1,-1,-2
81770044993,-1,2,-1,9,-2,-1,-2,-2
81770053996,-1,0,-3,1,1,-1,0,0
81770053996,0,1,-1,13,3,-2,-1,-1
81770068926,-4,-3,0,-7,-3,-2,-2,0
81770068926,-5,-1,-3,-11,-2,-1,-1,-2
81770070490,2,-22,-1,2,-1,0,-2,-1
81770070490,-1,1,1,4,2,0,-1,-1
81770091497,-4,-2,-3,-22,-4,-3,-1,-1
81770091497,-5,-4,-1,4,0,-2,-2,-3
81770093012,-3,5,0,-7,0,-3,-2,-2
81770093012,-3,-3,-1,-7,-4,-3,-3,-1
81770105242,0,-2,0,13,0,0,-1,-2
81770105242,1,1,0,3,-2,0,-1,0
81770114020,-2,2,-3,-14,-2,0,0,-3
81770114020,1,-1,-1,6,-1,1,1,-1
81770129071,-1,-2,-2,-3,1,-1,-1,-2
81770129071,-16,5,1,0,0,0,1,0
81770130551,-1,3,1,12,1,-1,0,1
81770130551,-1,-3,-1,-31,-4,-1,-3,1
81770151587,-1,-3,0,39,5,0,-2,-2
81770151587,4,-1,-1,-23,-6,0,-1,0
81770153003,0,2,-2,-13,-3,-2,0,-2
81770153003,-6,-20,-4,-3,3,-1,0,-2
81770165224,-1,0,0,4,0,0,1,1
81770165224,1,-1,2,2,-1,-1,1,0
81770174088,-4,0,-3,-8,2,-2,-2,-2
81770174088,2,5,-1,-2,-17,-3,-3,-2
81770188407,0,0,-1,-9,-1,1,1,0
81770188407,2,-2,0,14,4,-1,0,-1
81770195138,0,0,-1,1,0,1,-1,1
81770195138,1,6,-2,-9,1,-2,-2,-2
81770211501,-7,-3,-2,14,-3,-1,-1,1
81770211501,12,8,2,-5,3,0,-1,0
81770212969,-1,-1,1,1,7,-4,-3,-1
81770212969,4,10,-2,-3,-8,-4,1,-1
81770225206,-7,9,1,5,3,7,-1,1
81770225206,-3,-4,-3,-5,-6,-10,-6,0
81770234106,-1,-2,-2,7,-5,1,2,-2
81770234106,4,1,3,6,6,-6,0,3
81770248260,3,-2,-3,-2,0,1,0,-2
81770248260,3,-1,-3,-12,-6,10,2,-3
81770255018,-2,3,2,-5,-4,-6,-2,-1
81770255018,-5,0,3,37,7,2,-1,-4
81770271590,-4,-10,-10,-26,-2,-9,-5,-7
81770271590,-4,-6,-3,-12,14,4,1,-6
81770273020,-3,-1,-5,-15,-49,-7,-5,-8
81770273020,-3,-1,-4,-3,-2,-7,-3,-5
81770285040,-1,-22,1,8,-4,-5,-12,-1
81770285040,4,3,2,2,12,7,17,-1
81770293983,-2,1,-1,-35,8,19,0,3
81770293983,1,0,0,-4,4,3,5,1
81770308165,2,1,1,20,-5,3,-4,-4
81770308165,-2,1,-4,-4,-11,-12,-6,0
81770314990,-5,-9,-1,23,13,-9,-7,0
81770314990,4,3,0,-13,-8,0,0,1
81770331339,-6,-1,-4,-11,-11,-12,-6,-4
81770331339,-1,15,1,8,2,2,1,-1
81770332935,1,1,0,2,8,13,6,7
81770332935,7,3,-2,7,10,-5,-10,3
81770361485,-1,6,-1,-13,-1,2,18,-38
81770361485,9,1,0,-1,-12,-20,-7,40
81770362981,1,1,0,7,7,15,7,3
81770362981,-3,-6,-1,-8,-4,-29,-4,1
81770368245,5,6,3,34,-4,2,-4,-4
81770368245,-10,-9,-4,-17,2,8,-4,-16
81770374985,-4,-4,-6,-28,0,-9,-23,-10
81770374985,-5,-8,-2,8,7,48,20,-1
81770391497,0,4,-1,-20,-8,-4,15,9
81770391497,2,-7,1,41,12,-3,7,2
81770393005,5,4,-2,-22,-23,-23,-14,0
81770393005,-4,1,-1,-8,1,-20,-9,-12
81770414184,4,4,0,5,-6,5,-9,8
81770414184,-3,-6,0,5,4,-5,8,-9
81770415608,3,3,4,23,9,-11,-6,2
81770415608,-5,-3,0,-1,-24,33,7,0
81770428438,5,-5,0,2,30,25,12,12
81770428438,-21,5,-1,-22,-22,-6,-20,-14
81770435111,-5,-3,-2,30,-2,-15,-13,-18
81770435111,9,-1,-4,-14,9,-33,0,33
81770451434,-7,-3,0,-2,-9,12,11,-18
81770451434,14,15,-1,23,-7,6,-15,1
81770453002,-4,-6,-3,-11,-4,-3,22,6
81770453002,2,2,-1,-1,0,1,-6,14
81770474061,-5,2,-1,16,6,-3,-14,-5
81770474061,-1,1,5,-36,11,9,-10,-6
81770475489,0,0,2,62,-1,2,-4,-1
81770475489,-6,-3,-7,-43,-11,5,3,-27
81770487665,-2,0,-1,16,-2,-33,8,9
81770487665,-2,-13,-10,-64,-16,10,-4,1
81770496519,-1,-1,2,-4,10,10,-1,-19
81770496519,-1,-2,0,-11,7,5,-19,-2
81770511385,-1,-3,-1,11,-9,-22,23,20
81770511385,-1,-9,-6,14,-1,-3,2,-3
81770512963,-2,-1,-1,-24,-11,-3,5,1
81770512963,-7,1,3,21,-6,-1,-5,-12
81770533849,5,2,0,-4,-1,0,-13,23
81770533849,1,1,12,25,26,37,16,-7
81770535452,-1,-1,-7,-16,3,-1,2,-1
81770535452,-7,7,-12,6,7,-12,-14,-33
81770547566,7,-2,5,18,-19,-9,-5,73
81770547566,-4,-3,-11,-14,-6,-18,0,-22
81770556462,-5,-2,3,-3,-17,19,8,49
81770556462,7,1,4,3,12,-5,11,13
81770571295,-5,-3,-2,-22,5,22,-8,-37
81770571295,-4,-6,-1,67,-4,-52,-16,-3
81770572919,9,7,3,-28,5,4,0,12
81770572919,-6,-7,-4,9,-3,10,4,-16
81770593867,-1,1,0,-33,2,8,-4,-8
81770593867,4,7,0,-14,-11,9,-2,5
81770595447,-8,-10,-6,17,12,-6,7,-35
81770595447,-1,-5,-9,-59,-13,-17,-5,3
81770607516,-2,0,-4,3,-4,1,-14,-22
81770607516,0,-1,-4,16,15,7,10,4
81770622449,2,3,1,-26,-42,-23,-8,0
81770622449,-1,-1,-1,-40,10,11,0,14
81770631295,-6,-7,-6,-3,-30,-8,-5,-14
81770631295,0,-1,-6,10,17,-1,5,-6
81770632968,3,6,2,25,10,3,-5,-6
81770632968,17,-1,8,0,-13,-3,19,106
81770653817,-5,-3,-2,14,13,-4,-7,-25
81770653817,3,2,0,0,2,5,3,-5
81770655547,1,11,1,-19,5,-4,-1,-11
81770655547,-6,-8,1,45,11,11,-11,-57
81770668783,1,-8,3,-14,10,-13,-6,-23
81770668783,19,3,2,-1,-1,4,8,26
81770682458,-7,-6,0,17,13,10,4,6
81770682458,-1,4,-6,11,-21,0,-9,-29
81770691319,-6,0,-8,-39,-6,-9,-1,-8
81770691319,-15,-14,-11,-7,-26,-18,-6,-17
81770692918,-1,0,3,-11,-5,5,-5,-21
81770692918,11,11,7,37,18,-2,8,8
81770713858,2,-10,-5,45,-9,16,1,1
81770713858,-11,-1,2,5,14,-30,-15,-9
81770715426,4,-9,-6,-17,-11,12,1,14
81770715426,-5,-1,7,8,14,25,4,4
81770727484,1,8,1,-5,19,7,3,7
81770727484,-8,-17,1,-4,-10,0,-6,0
81770736511,-8,-4,-6,14,-13,-19,-14,-35
81770736511,0,-5,-8,-25,-5,-21,3,61
81770751361,6,8,8,-2,13,12,5,12
81770751361,7,-1,1,-19,-12,7,4,-4
81770753015,-1,-8,2,37,19,3,1,2
81770753015,-24,-9,-3,-9,-10,-13,-4,-3
81770774045,-1,3,4,6,0,-1,-2,2
81770774045,-1,0,0,-47,-7,1,-4,20
81770775467,0,5,-1,-34,13,6,4,-4
81770775467,-1,1,5,-1,-3,2,-3,-25
81770788939,-11,-12,-2,67,8,-18,-16,-9
81770788939,-1,2,-7,-67,-33,4,-7,-10
81770796583,5,-2,-3,30,4,-5,3,18
81770796583,-6,-3,4,17,0,2,-2,-18
81770811351,7,10,0,-47,-8,9,2,1
81770811351,-1,-4,-1,25,6,9,0,-5
81770812911,-3,-3,-3,-4,-11,-20,-9,-5
81770812911,1,1,-3,-2,0,1,6,2
81770833847,-4,-1,1,0,2,-12,-4,-3
81770833847,0,4,4,14,9,11,3,7
81770835557,3,10,-3,0,3,-1,4,18
81770835557,6,-8,-5,6,-8,2,-6,-15
81770847597,6,6,3,-10,1,-3,-6,-9
81770847597,-1,0,0,12,3,-10,1,0
81770856505,3,4,-1,-11,-13,8,4,5
81770856505,-1,1,2,-2,4,-8,-7,-11
81770871532,-3,-5,-10,-5,-20,-4,-2,0
81770871532,-5,-4,-2,17,20,5,3,3
81770872961,4,-4,-1,-15,-21,-1,-4,-7
81770872961,0,1,4,-12,-2,-4,7,-3
81770893899,1,-1,-2,-12,1,-2,-10,6
81770893899,-4,3,6,-21,1,0,-1,-3
81770895440,-5,-6,-7,40,11,9,8,-3
81770895440,0,8,-5,-67,-11,-10,-5,-8
81770907714,-4,-6,-3,-7,-4,8,5,7
81770907714,4,1,0,27,21,-2,0,2
81770916561,-4,-5,-2,-4,-3,-6,-2,4
81770916561,-7,0,-1,52,-12,3,-6,-18
81770931532,0,3,-3,-23,-2,-8,-4,-3
81770931532,-1,-3,0,22,5,-1,0,3
81770933027,-3,-2,0,-17,0,-5,-2,-3
81770933027,-2,-3,-5,15,-9,-9,-3,-7
81770953847,-3,-2,-1,9,10,6,2,0
81770953847,1,-1,-1,10,-7,10,2,-1
81770961555,-3,1,3,-19,16,-8,-2,-4
81770961555,-3,-2,-1,-22,-6,1,-3,-1
81770967554,-1,-5,-15,21,6,-7,-2,10
81770967554,-1,-1,2,-16,-7,3,6,2
81770982640,-2,-1,1,-4,-2,1,-2,-2
81770982640,0,-5,0,10,11,-1,-2,1
81770991405,-5,5,0,-18,-16,-1,4,-3
81770991405,-6,-3,-7,8,-13,-11,-9,-10
81770992981,1,-1,-2,-17,3,7,2,5
81770992981,-13,-24,-4,22,10,0,-2,-5
81771013788,3,6,2,-13,-2,-4,-2,-4
81771013788,-3,-4,4,14,-7,-1,1,1
81771015423,-11,-5,-9,-12,-9,-8,-6,-8
81771015423,7,13,5,13,-2,-1,-2,-7
81771027501,0,-3,-5,-4,-4,1,5,6
81771027501,-3,-6,-9,0,2,3,-7,-33
81771036435,-19,-8,-3,-4,15,6,-1,-84
81771036435,33,7,15,12,-6,5,17,92
81771051369,-2,-4,-7,-52,-15,-9,-5,-6
81771051369,-23,6,8,-29,-4,-8,-3,3
81771053911,10,10,-4,40,13,10,8,-2
81771053911,-29,-15,-17,26,10,3,-11,-63
81771077039,-16,-18,-3,-13,3,-7,6,92
81771077039,25,26,4,28,-9,-11,-20,-45
81771080039,22,-12,0,-10,-1,8,12,35
81771080039,-5,4,28,74,21,6,6,-73
81771087449,4,-11,-2,-62,-11,-6,-17,-64
81771087449,24,12,-11,23,9,7,23,32
81771096482,-11,21,37,46,-18,-18,-16,0
81771096482,-31,-28,-24,-31,-10,-8,-24,-53
81771110757,-7,-17,10,78,6,-18,6,-1
81771110757,-11,-3,-3,-59,-19,9,6,105
81771117462,-30,7,3,-3,14,-11,-22,-89
81771117462,53,2,20,-40,-12,12,48,118
81771133856,15,18,-9,-4,3,21,11,-28
81771133856,8,-12,-6,13,-4,-43,-17,-44
81771135605,22,-6,-6,47,8,5,-2,76
81771135605,-26,-5,-17,-107,-36,-49,-19,-11
81771147493,-6,-3,-10,34,16,34,-9,-7
81771147493,-17,-2,5,54,18,41,33,10
81771156457,-11,-10,-13,-7,3,17,-5,-16
81771156457,10,12,-21,-12,-11,-23,6,-3
81771170676,3,10,16,-13,12,-7,-14,-11
81771170676,-4,0,5,-23,21,7,-18,-36
81771178963,-24,-4,6,-36,-27,-16,-3,15
81771178963,7,7,5,16,15,44,1,-6
81771193795,-1,-1,-11,29,-11,11,14,-4
81771193795,-6,-6,7,-5,-12,-69,-9,3
81771195428,8,-10,0,-26,5,5,6,18
81771195428,-11,-2,-4,23,-4,-14,-10,-8
81771207712,-1,1,1,-2,4,14,-3,-13
81771207712,2,-9,3,-36,-1,15,-2,-9
81771216514,5,0,-5,-1,-24,-17,-2,-4
81771216514,5,19,-8,11,7,11,-6,-15
81771230742,6,7,11,0,-2,-9,1,2
81771230742,-1,-14,-6,16,-6,3,-2,-6
81771237698,3,-6,-13,-15,-2,-5,7,8
81771237698,1,5,5,18,10,11,-4,5
81771254269,2,4,5,23,5,-9,3,1
81771254269,-2,-1,-15,-50,-28,-7,-2,-5
81771255919,4,3,-2,10,14,10,0,2
81771255919,-6,-10,-1,6,-9,-3,-4,-4
81771267526,-24,-4,-3,-5,-1,-16,-4,-8
81771267526,-4,-2,-6,5,2,12,-1,-8
81771284007,-1,-2,-3,8,6,1,2,4
81771284007,-2,2,-3,-1,-4,-8,-3,-4
81771290714,1,-2,-2,-15,-6,-7,2,0
81771290714,1,2,2,1,7,13,0,2
81771297582,-8,-13,-8,18,-5,-8,-4,-2
81771297582,7,0,2,2,3,-3,-3,-1
81771313783,4,2,6,-5,5,1,2,-3
81771313783,0,0,-3,7,16,-1,-1,-2
81771315410,6,5,7,-17,-12,15,3,2
81771315410,-10,-10,-11,7,4,-17,-7,-6
81771336424,3,2,9,16,26,10,2,2
81771336424,-1,2,-7,-13,-37,-13,-3,-4
81771338032,-1,0,0,0,1,-2,-2,1
81771338032,3,2,4,3,-2,6,2,4
81771350728,5,1,0,8,6,-10,-3,10
81771350728,-2,0,-1,-7,2,7,-1,-3
81771357492,0,0,-4,-70,-30,4,6,1
81771357492,-4,-4,3,14,5,3,0,-4
81771373795,2,-2,-3,10,10,-19,-3,-3
81771373795,0,0,4,-8,-16,18,3,-1
81771375429,-2,-4,-11,26,6,-17,-10,-1
81771375429,-3,2,0,-17,-8,-2,-1,-4
81771396387,3,-1,-2,14,1,8,4,0
81771396387,1,1,6,21,19,-6,-8,-1
81771397995,8,14,5,-25,4,1,-1,-3
81771397995,-16,-3,-4,-11,-5,3,7,17
81771409951,-5,-1,-5,9,-17,-6,-7,-11
81771409951,0,-4,-3,-41,-15,3,2,2
81771419062,2,-3,-2,79,26,-5,1,-3
81771419062,0,-2,3,-14,-10,-5,-2,-7
81771433792,-6,-3,-1,-6,-12,3,0,-3
81771433792,7,6,-10,9,7,-4,-3,0
81771435362,-3,-2,-1,-45,0,0,2,1
81771435362,0,-3,-2,13,-7,3,-3,-6
81771456527,2,7,-4,-12,-7,-1,0,-3
81771456527,-1,-6,0,-7,1,-5,-3,-6
81771458024,0,0,2,-9,0,0,0,1
81771458024,2,1,0,42,24,6,0,1
81771469970,5,3,-4,-63,-30,-4,-3,-1
81771469970,3,-4,0,29,7,-1,1,-1
81771478943,-1,6,3,-2,2,0,-1,1
81771478943,-3,-2,-5,-30,-6,-1,-1,1
81771493969,-2,-6,-9,18,5,-3,0,1
81771493969,-5,-10,5,-5,0,0,-1,-3
81771495508,-19,-30,-7,6,5,-2,-2,-5
81771495508,2,3,-6,13,-14,-1,-1,-3
81771516314,0,-3,-3,-20,6,0,-1,0
81771516314,-2,3,-2,-9,-7,-2,-3,-1
81771517913,6,10,-2,-6,-8,-3,-3,-2
81771517913,4,-2,2,4,5,-1,-4,-6
81771530198,-9,-8,-1,-4,-8,0,-1,-3
81771530198,-5,1,1,12,0,-3,-6,-2
81771538976,-6,21,-2,11,-2,-3,2,-2
81771538976,-2,-19,-9,-57,-2,-3,-3,1
81771553812,6,4,3,9,-1,3,3,0
81771553812,-9,-2,1,4,3,3,1,-1
81771555386,5,3,-2,-2,-3,2,4,1
81771555386,-7,1,-2,5,-1,0,-3,-2
81771576578,-4,-5,1,7,-4,-12,-9,-4
81771576578,5,3,-1,2,2,-1,0,0
81771578011,-5,-10,-4,3,2,4,1,0
81771578011,1,4,2,-3,0,0,0,-2
81771590082,-1,-5,-5,-10,-3,11,1,0
81771590082,-3,3,-2,22,5,-6,-2,-1
81771598956,7,-3,1,-4,-3,-13,-4,5
81771598956,-2,-1,1,19,7,-2,-4,-4
81771621379,-1,2,1,2,-3,3,3,-1
81771621379,-6,-3,-1,0,-4,0,-3,-5
81771622965,-1,-5,-4,-16,-6,-4,-5,-2
81771622965,4,1,1,0,4,4,10,3
81771636464,-1,0,2,4,2,-1,-7,2
81771636464,1,1,1,0,4,4,4,1
81771638048,2,-1,1,11,-6,-5,-4,-3
81771638048,-1,0,-1,3,7,-7,1,0
81771649983,2,11,1,-31,0,7,7,1
81771649983,-3,-8,-2,8,3,3,-1,-1
81771658986,-1,-1,0,-4,-2,-5,1,-2
81771658986,-1,-2,-2,-1,1,7,-7,-3
81771673889,-1,0,1,12,1,0,6,1
81771673889,4,2,3,10,-7,-16,-10,0
81771675509,-11,-5,-3,-11,-2,9,2,-2
81771675509,1,1,-4,-15,-1,-11,-5,-6
81771696367,-2,-5,-2,10,3,0,0,-3
81771696367,-3,2,3,9,2,5,4,0
81771697932,0,-7,-13,14,-7,-12,-8,-3
81771697932,-3,-2,-1,-6,-7,7,2,-1
81771710196,3,1,-3,-4,5,6,4,2
81771710196,1,-6,-11,-13,-2,-4,1,5
81771719043,-3,10,4,13,3,1,2,-5
81771719043,1,-2,0,-31,-4,-7,-4,6
81771733807,0,-2,-1,-2,-5,-9,-7,-2
81771733807,-2,-1,-1,-7,-2,-3,2,-4
81771735375,-2,-1,0,0,1,10,-4,-3
81771735375,-7,-13,1,20,2,1,-3,0
81771756377,-4,-5,1,1,-2,3,4,1
81771756377,-3,2,-6,-4,-3,-8,-2,1
81771757914,0,-2,4,0,5,16,7,-6
81771757914,1,1,-5,7,-6,-14,-4,-4
81771769971,-2,-4,-3,-4,-1,3,-5,0
81771769971,-27,-5,-3,-7,-14,-19,-6,-10
81771779001,3,5,0,1,1,1,-4,3
81771779001,2,-8,0,5,8,17,6,0
81771793854,-5,-1,0,2,0,0,-3,-3
81771793854,-1,2,0,-7,-9,-4,-3,1
81771795462,6,1,-3,8,-5,-15,-10,-11
81771795462,3,5,3,12,7,-1,3,18
81771816553,-1,-3,-4,-47,-3,9,6,-1
81771816553,5,1,5,11,9,14,8,4
81771818022,-3,-7,0,-2,-6,-13,-7,1
81771818022,2,2,0,-2,-4,4,-3,-12
81771830091,0,1,-1,28,4,-17,-5,1
81771830091,6,0,0,6,2,4,2,2
81771838945,-2,-2,-1,-3,4,9,0,2
81771838945,-3,2,-1,5,-7,-5,-3,-3
81771853936,-3,2,1,3,-6,0,-1,-4
81771853936,0,0,-3,-14,3,1,-6,-3
81771855454,4,-1,-1,1,2,2,3,5
81771855454,-2,1,-2,1,-2,-7,0,-5
81771876412,0,-2,-2,2,-6,-3,-1,0
81771876412,1,-2,-1,-2,-2,-7,-4,-2
81771878024,2,8,1,-6,2,20,4,2
81771878024,-1,3,-1,-5,0,-10,-2,-1
81771890061,-1,0,-2,1,-2,-2,0,-3
81771890061,2,-2,-3,-4,-1,2,1,0
81771898950,-1,1,0,-7,0,-11,-3,0
81771898950,-2,1,0,4,-1,8,-4,-4
81771913784,0,-3,-1,5,-2,-2,1,-2
81771913784,1,0,-1,-8,4,4,-3,-1
81771915415,-3,-5,-3,-12,-8,-8,2,0
81771915415,-2,-1,-1,23,0,-4,-3,-1
81771936354,-1,-3,0,-9,-3,-2,-3,0
81771936354,2,-2,0,-4,3,10,3,-1
81771937928,-1,-5,0,1,-2,-9,-1,0
81771937928,-3,-2,-1,-7,-1,5,-1,-4
81771949942,2,5,-1,4,-4,-16,-6,-3
81771949942,0,-1,-1,1,0,2,-1,-1
81771958948,0,-2,0,4,2,-10,1,0
81771958948,-1,0,-2,-7,-4,7,0,-3
81771973193,-4,-4,-5,5,-1,-3,-4,-3
81771973193,0,1,-1,-1,-4,0,-3,-1
81771979983,0,-4,-3,-1,-3,1,0,2
81771979983,1,-2,-2,-6,-7,-10,-2,-1
81771996316,-1,0,2,-6,2,4,2,-1
81771996316,-1,-2,-4,2,-1,0,-2,-2
81771997944,-2,-2,0,-6,-7,-6,-7,-5
81771997944,0,1,-2,-6,4,6,7,3
81772009984,-1,-1,1,3,3,1,-5,0
81772009984,-1,1,0,-4,-10,-2,0,3
81772018959,-1,11,-1,8,3,0,-2,-12
81772018959,-2,-2,-6,-23,-5,-6,-5,-2
81772033137,-1,-1,-2,2,-4,-8,-1,2
81772033137,-1,-1,4,14,6,-1,6,10
81772040241,-9,-2,-4,-4,3,10,0,-15
81772040241,7,-1,0,-1,-2,-5,-1,26
81772056304,-3,1,-2,-4,-4,-3,-2,-12
81772056304,-23,-1,-8,-8,-2,-4,-8,17
81772057906,-2,-5,-3,-1,-7,-5,1,10
81772057906,-4,0,1,5,3,3,3,-3
81772069942,-1,-2,2,-4,1,3,-3,-2
81772069942,2,-4,-1,14,-6,-4,-4,-9
81772078934,0,-4,-1,-3,1,-1,-2,-1
81772078934,-5,1,-1,-4,-1,-4,-1,-4
81772093202,1,-1,-3,-1,0,4,-3,2
81772093202,5,14,1,-7,-3,-2,-3,-15
81772100120,-1,-11,0,-4,1,2,4,6
81772100120,3,1,-2,-8,-1,-4,-2,-8
81772116610,0,-1,-1,0,-2,-4,-1,-1
81772116610,3,1,-3,-1,-1,1,1,-2
81772117994,1,1,-1,-5,0,2,1,8
81772117994,-3,-2,0,8,1,-2,-2,-6
81772130000,-3,-3,-1,-3,-1,-2,1,-2
81772130000,0,-5,-3,-11,-1,-1,2,1
81772138989,1,1,0,0,0,-2,-3,-3
81772138989,-3,-3,-2,4,0,1,-2,-8
81772153179,-1,-1,-1,1,-2,0,-1,3
81772153179,3,-4,0,3,0,-1,-4,-5
81772160088,-2,-2,0,0,-3,-1,-1,0
81772160088,-4,-2,0,2,0,2,0,-3
81772176410,-3,-1,-3,0,-3,-5,-3,-1
81772176410,1,-5,-2,-4,-2,-2,1,-2
81772178079,2,1,-1,2,1,0,0,1
81772178079,-2,-3,0,2,-1,-1,-2,-1
81772190123,-3,-4,0,-1,0,-2,-1,-2
81772190123,-3,-5,-2,-3,-1,-2,0,-1
81772198999,-1,-1,-1,1,-1,0,-2,3
81772198999,2,9,1,3,-1,-2,-1,-2
81772213233,-12,-18,-4,-5,-2,-1,-3,-2
81772213233,2,0,0,0,0,1,0,-1
81772220193,0,0,0,-2,1,0,-1,0
81772220193,-4,2,-2,-3,-3,-1,-3,-2
81772236362,3,3,-1,-1,-1,-1,-1,1
81772236362,1,-3,1,0,-1,1,-1,-2
81772238026,-6,-8,-4,1,-4,-2,-1,-1
81772238026,9,-2,1,-11,-1,-1,1,-2
81772258858,3,3,-1,3,0,0,-1,0
81772258858,-4,-3,-1,6,-1,-2,0,0
81772260451,3,0,1,-5,0,-1,-2,-4
81772260451,-4,-5,-5,-9,-4,-2,-3,-1
81772273375,3,4,0,-1,0,-1,0,-1
81772273375,-2,0,-1,-3,-1,0,2,-1
81772280166,-1,-3,-2,2,0,-2,-2,1
81772280166,1,-1,-1,4,-4,0,-1,-1
81772296495,3,19,0,-3,-3,-1,-3,3
81772296495,-3,-7,-1,0,-2,0,-3,-1
81772298046,0,1,0,-1,-2,1,0,0
81772298046,-3,-3,0,2,-2,-1,-1,-1
81772318921,0,3,3,1,0,-2,-2,-1
81772318921,0,0,-2,-2,0,-2,-3,-1
81772320487,11,2,1,-2,-1,-2,0,-1
81772320487,-2,3,0,0,-1,-2,-1,0
81772332604,-2,-6,-1,1,0,-2,1,-1
81772332604,0,0,0,-2,-3,-1,-1,-3
81772341602,7,-10,-4,-3,-2,-3,-2,0
81772341602,0,0,-1,3,-1,0,1,1
81772356454,10,11,-1,-3,0,-2,0,-1
81772356454,-6,-13,-3,-3,-3,0,-2,-4
81772357990,-3,5,-3,-1,-1,0,0,1
81772357990,-4,-4,-1,1,-1,0,-1,-1
81772378833,-7,-5,-2,-2,-4,-2,-1,-2
81772378833,6,5,0,-1,-1,0,-2,-1
81772380355,1,-2,-1,0,-1,0,0,-2
81772380355,-2,-3,-1,0,0,0,-2,-2
81772392557,-5,-5,-3,-3,-3,-2,0,-1
81772392557,-3,-3,-6,-4,-3,-4,-5,-13
81772401541,-6,6,1,-1,-2,-2,2,8
81772401541,3,1,-1,-1,1,-1,0,-1
81772416403,0,-1,0,1,0,2,0,1
81772416403,-3,-5,-2,-1,0,-1,-1,-1
81772418008,-14,-18,-5,-4,-2,-3,-2,-4
81772418008,-1,-1,-2,-2,-2,-3,-1,-3
81772438819,0,-8,-1,-1,1,0,1,0
81772438819,-7,-1,-1,0,1,-1,0,3
81772440435,1,4,1,0,-7,-1,-2,-3
81772440435,7,4,4,1,9,4,1,1
81772452771,-6,-7,-4,-3,-1,-2,-4,-4
81772452771,-2,-1,0,2,0,0,-2,10
81772461493,8,-19,-1,-1,-3,-4,0,15
81772461493,9,-35,-6,-4,0,2,0,-9
81772476359,-1,9,3,2,2,0,1,-12
81772476359,4,3,3,-3,-2,-1,2,12
81772477965,-42,-10,-6,-4,-3,-4,-11,-38
81772477965,15,24,6,5,-1,1,4,19
81772499064,-15,-33,-6,-5,-3,-4,-2,-9
81772499064,-8,-10,-1,2,0,-1,1,-9
81772500471,-1,-1,-5,-2,2,1,-2,-7
81772500471,-15,0,-2,-1,-2,-2,-4,-4
81772512511,-1,5,0,-2,-2,-2,-1,1
81772512511,3,9,0,0,-3,-1,0,0
81772521484,3,2,1,-1,-1,2,0,5
81772521484,-3,-5,-3,-1,-2,-3,-2,-4
81772536370,12,0,-1,0,-1,-1,-1,5
81772536370,4,-2,-2,-2,-3,-1,0,7
81772537910,11,9,3,0,2,0,2,3
81772537910,-7,1,-2,-2,-6,-3,-2,-4
81772558790,0,2,-1,0,0,0,-1,-1
81772558790,2,1,-3,-2,-2,-1,0,-3
81772560404,2,3,-1,1,2,1,1,2
81772560404,-11,22,2,1,-2,-2,-2,-2
81772573185,-3,-3,0,0,-1,-1,-2,0
81772573185,0,-6,-1,0,-4,-1,-1,-6
81772579990,-1,10,2,2,6,3,2,6
81772579990,-8,-5,-3,-3,-4,-3,-1,-7
81772603859,-1,0,-2,0,1,-1,-2,-2
81772603859,4,5,-1,-1,-2,0,0,2
81772605468,1,4,1,-2,-3,-2,-2,-6
81772605468,-1,-6,-2,-2,-1,0,-1,2
81772618811,-8,1,0,-1,-1,-1,-2,-1
81772618811,-3,0,-2,1,1,-1,-1,-3
81772620399,17,1,-3,-1,-1,-2,-2,3
81772620399,-6,-16,-2,-2,-1,0,0,3
81772632498,15,13,1,1,-3,-2,2,7
81772632498,-13,-29,-1,0,0,-1,-3,-8
81772641456,5,3,-2,-4,-1,-2,0,1
81772641456,-1,0,-4,-1,-2,-1,-2,-6
81772656624,4,0,0,-2,-3,-1,-1,6
81772656624,1,3,-4,-3,-2,-1,-4,-3
81772658059,-5,2,1,1,-2,-2,-2,-2
81772658059,5,-10,-2,-1,0,-1,-1,3
81772678918,8,8,4,0,1,0,1,-2
81772678918,1,4,-2,-2,0,-2,-1,-1
81772680473,-4,-5,-1,-2,-2,-3,1,-1
81772680473,2,8,1,0,-1,-1,-3,-2
81772692735,1,-7,-4,-1,-2,0,0,-2
81772692735,-1,5,-1,-2,-1,-1,-1,1
81772701555,2,-2,1,-1,-1,-1,-1,-1
81772701555,-1,1,-5,-3,0,-1,-1,-1
81772716473,-9,-6,-2,-2,-2,0,-1,-1
81772716473,2,3,0,1,-2,0,-1,-2
81772717937,-14,4,-1,0,-2,-2,-2,-5
81772717937,5,1,0,-4,-4,-3,-2,-2
81772738824,2,11,-1,-3,-2,-2,-3,-6
81772738824,2,8,1,-2,-1,0,2,14
81772740375,-4,0,0,-1,-1,-1,-1,-7
81772740375,1,-4,-3,-2,-1,-1,0,3
81772752482,0,-1,0,-1,-3,-3,-2,-3
81772752482,0,5,0,0,0,0,-2,-5
81772761434,-2,-5,0,0,0,-3,-3,1
81772761434,-5,-2,-2,-2,-1,-2,-1,-1
81772776562,-4,-5,-3,0,-1,0,-1,1
81772776562,0,0,-1,0,-2,-1,-1,-5
81772777957,1,-7,-2,-3,0,-1,0,3
81772777957,3,-8,-3,-2,-3,-4,-2,-3
81772798971,-1,-4,-2,-2,-1,-2,1,1
81772798971,3,7,2,-3,-1,-1,0,-3
81772800454,6,16,1,0,0,0,0,0
81772800454,-5,-14,1,0,-1,-1,1,-1
81772812710,-5,-5,1,2,1,2,-2,-3
81772812710,-6,-12,-3,-3,-2,-4,-1,-4
81772821489,4,-1,-1,-1,-2,-1,-1,3
81772821489,-1,7,-2,0,-1,0,-1,-3
81772836436,-5,1,0,-2,-1,-2,-2,1
81772836436,-2,-4,-1,0,1,-1,-1,-3
81772837951,-7,-15,-2,-4,-2,0,0,0
81772837951,18,16,5,2,2,-1,1,1
81772858929,-6,-10,-1,-3,-2,0,-2,-1
81772858929,-1,-1,-2,-1,0,-1,-1,0
81772860450,0,3,-2,-3,0,-1,-1,-1
81772860450,-3,2,-1,-1,0,-4,-2,0
81772872540,-1,-4,-4,-3,-1,-1,-1,-1
81772872540,2,2,0,-3,0,0,1,0
81772881470,10,-1,-1,1,-1,-1,-2,-3
81772881470,-10,11,1,-1,-2,0,-2,2
81772896464,-3,-6,-1,-1,-2,-2,-2,-1
81772896464,-3,-3,-4,-2,-2,-2,-3,0
81772898021,-3,-2,0,-1,-1,-2,-1,-2
81772898021,-5,-1,-1,-2,-2,0,-2,-7
81772926528,3,1,1,0,-2,0,0,5
81772926528,-1,2,-1,-3,0,0,-1,-2
81772928004,-11,-5,-5,0,-2,-2,-3,-2
81772928004,2,-5,1,-1,0,-1,-2,-3
81772932510,-11,-1,0,-1,0,-1,0,0
81772932510,11,2,1,0,-2,-1,-1,-2
81772941415,-6,3,-1,-1,-2,0,1,1
81772941415,-9,-1,-1,0,-1,-1,-1,-3
81772956462,1,-1,-1,-1,-3,-2,-1,-4
81772956462,3,6,0,1,-2,-1,-1,1
81772957951,4,4,-2,-1,0,1,-1,-2
81772957951,3,-2,0,0,-3,-2,-1,0
81772978907,0,-9,-3,-2,0,0,-1,-1
81772978907,-7,0,1,0,0,-2,-1,-1
81772980484,-3,-2,-1,-2,-1,-2,-1,-1
81772980484,12,9,1,-1,-1,2,-1,-2
81772992706,-5,-13,-3,-3,-1,-1,-1,-3
81772992706,-3,-5,-1,-1,-1,-1,-2,-2
81773001512,-2,-4,-2,-1,-2,-3,-1,0
81773001512,-4,-8,-3,-2,-1,-3,-1,1
81773016377,-7,5,-2,-2,-2,-1,-2,-9
81773016377,4,6,-1,-1,-3,0,0,3
81773017929,-1,-1,1,1,-1,-1,0,-1
81773017929,-10,-5,-3,0,-2,0,-1,-1
81773038813,4,6,-1,-2,-2,-1,-2,-1
81773038813,-5,-2,-5,-2,-2,-2,-2,-3
81773040474,3,15,2,-3,-2,-1,-1,-2
81773040474,-21,-1,-3,-1,-1,-2,-2,2
81773052550,1,1,0,1,0,0,-2,-1
81773052550,-3,-9,-1,-2,-2,-2,-2,-1
81773061431,-2,-2,-2,-3,-1,-1,-3,-1
81773061431,0,-6,-2,-3,-2,-1,1,-3
81773076284,0,0,1,0,0,-1,0,-1
81773076284,7,-1,0,-2,0,0,1,0
81773077932,-6,-4,-2,0,-1,1,0,-1
81773077932,0,-4,-1,-2,0,0,0,-2
81773098867,1,-2,-2,1,-3,-2,-1,3
81773098867,4,1,-2,0,0,-1,-1,-3
81773100513,0,-8,-1,0,0,-2,-1,0
81773100513,5,12,-1,0,-3,1,-2,-1
81773112474,0,-1,1,-1,1,-1,-1,2
81773112474,-6,-3,-1,-3,-2,0,-1,-1
81773121458,1,-4,-1,-1,0,1,-1,-1
81773121458,3,5,-1,0,-1,-2,0,-1
81773136375,0,1,-3,-3,-1,-3,-2,-2
81773136375,-6,-1,0,-1,-2,-1,0,-3
81773137998,0,-7,-2,0,1,-1,-1,-2
81773137998,1,6,-1,0,0,-1,0,-1
81773158919,6,2,-1,-1,-2,1,-1,-1
81773158919,-3,14,0,0,0,-2,-1,0
81773160414,1,-17,-3,-1,-1,-2,-1,-4
81773160414,-5,-4,-1,-1,0,0,1,-1
81773181429,-2,-2,-2,-1,-1,-2,0,-2
81773181429,2,5,-1,0,0,0,0,-1
81773183063,-2,3,1,0,-2,-1,-1,-4
81773183063,2,-9,-3,-1,-1,-1,0,-2
81773196623,-2,-6,-1,0,-2,-2,-2,-3
81773196623,2,-10,-2,-1,-1,-2,-2,-1
81773197972,0,4,0,-2,-2,0,-1,1
81773197972,-4,-11,-2,-2,-2,-2,0,-1
81773218851,0,3,0,0,0,-1,-1,-1
81773218851,-2,-1,0,1,0,-1,-1,-1
81773220439,-4,-10,-2,-1,0,0,-2,2
81773220439,-1,11,-3,-2,-1,-2,-4,-1
81773241309,22,6,1,2,1,1,2,3
81773241309,-4,4,-1,-1,-1,1,-1,0
81773242915,2,-5,-1,-1,-1,-2,0,-1
81773242915,7,8,2,1,-1,0,-1,1
81773255756,-4,-6,-1,-1,0,-2,-1,0
81773255756,-11,-7,-3,-3,-1,0,-1,-2
81773262495,4,9,1,0,1,-2,1,-1
81773262495,-6,-8,-1,-2,-1,0,0,-2
81773278828,-8,-2,-2,-3,-1,-2,-2,-3
81773278828,-2,-2,0,0,-2,-1,-2,-4
81773280504,-4,-1,-2,-3,-2,-1,-2,1
81773280504,-1,-7,-2,1,0,0,-4,-2
81773301294,-8,-5,-2,-3,-2,-1,-1,-2
81773301294,3,-2,-1,-1,-1,-1,-1,-2
81773302958,0,5,-3,-2,-2,-3,0,-1
81773302958,-3,-8,-2,-1,0,-2,-2,-1
81773316559,0,3,-1,-2,-2,0,-2,-3
81773316559,-3,-5,-1,1,-1,-2,-1,-1
81773317963,-3,1,-2,0,-1,0,0,0
81773317963,-2,-5,-1,-2,0,-1,0,0
81773339010,10,5,0,1,1,-2,-1,0
81773339010,-2,-5,-3,-2,-3,-1,0,-2
81773340456,-3,-3,-1,-1,-2,-1,-1,0
81773340456,-3,-6,-2,-1,0,-1,0,-2
81773361364,-6,3,-1,0,-2,-2,-2,-1
81773361364,2,3,0,0,-1,0,-2,-3
81773362975,3,-12,-2,-1,0,-1,-3,4
81773362975,0,1,-3,-1,-2,-2,-2,-6
81773375704,-16,-27,-2,-1,-1,-2,0,0
81773375704,-8,-13,-3,-2,-1,-2,0,-1
81773382483,5,8,1,-2,-1,1,-1,-3
81773382483,0,-1,0,-1,-3,-4,0,-2
81773398838,3,4,-2,-1,-2,0,-1,0
81773398838,-5,2,-1,-2,-1,-2,-2,0
81773400513,-7,-15,-3,-1,-2,0,-2,-3
81773400513,-2,-2,-2,-2,0,-2,-3,-1
81773421326,1,5,-1,0,-2,-2,-1,0
81773421326,3,-5,-1,-1,-2,0,0,1
81773422952,0,5,-1,-3,0,-1,-1,-3
81773422952,0,1,1,-2,-1,1,0,0
81773435968,-9,-1,-2,-2,0,0,-2,-4
81773435968,2,1,0,-1,-1,-2,-2,1
81773442651,1,2,0,-1,-1,1,0,0
81773442651,-3,0,0,0,-1,0,-1,-1
81773459038,5,6,0,-2,0,-1,-1,4
81773459038,-4,-8,1,-1,-1,-1,1,-1
81773460486,-11,0,-2,0,-2,-2,0,3
81773460486,1,-4,-1,-2,-3,-2,-1,-1
81773481277,1,5,-1,-1,-3,0,0,-2
81773481277,-2,-26,-5,-2,-1,-1,-1,2
81773482895,-4,-1,-3,-1,-1,0,-1,0
81773482895,8,5,2,1,0,-2,-1,0
81773495764,3,8,-2,-3,-3,-2,-1,-3
81773495764,-4,23,0,-2,-1,-3,-2,-2
81773502547,-3,-6,-1,-1,-1,-1,-1,-4
81773502547,-1,-7,-2,-1,-2,0,1,0
81773518887,-11,-2,0,0,-2,-1,0,-1
81773518887,18,1,-2,-2,0,0,-1,1
81773520368,8,8,0,-2,-1,-1,-2,2
81773520368,-2,1,-1,0,0,-2,-1,-1
81773541354,-13,-13,-4,-1,-1,-2,-2,-2
81773541354,-1,-2,-1,-1,-1,-2,-1,-1
81773542943,-4,-4,0,-1,-1,-1,-1,-3
81773542943,0,-6,-2,0,-2,-1,-1,0
81773555705,0,-3,2,1,-2,-1,0,-1
81773555705,-2,2,0,-2,0,-2,-2,-2
81773562578,2,1,-1,-2,0,-1,-1,-2
81773562578,-3,18,-2,-1,1,0,1,0
81773579086,11,-2,1,0,1,-2,-2,-3
81773579086,-6,5,-1,0,-1,0,-2,0
81773580528,1,0,0,-2,-1,-1,0,-1
81773580528,-1,-1,-1,0,-2,0,-2,-1
81773601332,-4,-3,-4,0,-1,0,-2,-1
81773601332,-1,1,0,1,-1,-2,0,1
81773602955,-14,-9,-2,-3,-2,-2,-1,2
81773602955,-7,-8,-2,-3,-2,-1,-1,-4
81773615694,4,3,0,-1,-2,-2,-1,-2
81773615694,-2,-1,-1,-2,-1,1,-1,1
81773622735,25,25,0,2,-3,0,-1,-2
81773622735,-11,-2,0,-1,-1,0,-1,1
81773639058,11,-5,-3,-2,-1,-3,-1,-2
81773639058,-6,-2,-1,0,0,0,-3,-4
81773640437,1,3,-1,-2,0,-1,-2,-2
81773640437,-6,-8,-2,-2,-2,0,-1,-1
81773661314,5,1,0,-1,0,-1,0,0
81773661314,1,15,0,0,-3,-1,-1,0
81773662929,-1,-22,-3,-1,-2,-2,-1,-2
81773662929,7,-1,1,0,-1,-2,1,0
81773675015,-14,-4,-2,0,-2,-2,-2,1
81773675015,2,0,-1,0,-1,-2,2,-2
81773684696,-5,2,-1,2,0,-1,-1,0
81773684696,2,-1,-1,-2,-1,0,0,-2
81773698162,4,-10,-1,-1,-1,0,-2,-8
81773698162,-9,-8,-2,-3,0,-1,0,7
81773698947,-2,-1,-1,-1,-2,-1,-1,-1
81773698947,4,3,0,-2,-1,0,-1,-3
81773720718,-4,1,-2,-1,-1,0,0,-1
81773720718,4,-3,-1,-1,-1,0,0,-2
81773721435,-9,-8,-2,-1,1,0,0,-2
81773721435,-1,1,0,0,0,-2,-2,2
81773743882,-2,3,0,-1,0,-1,-1,2
81773743882,-9,-5,-2,-3,0,-1,0,-3
81773744618,10,8,1,0,0,0,1,1
81773744618,-10,2,-3,-2,-1,-1,-3,-3
81773758267,-2,3,0,-1,0,0,-1,0
81773758267,-1,-3,-1,0,-2,-2,-2,-1
81773759000,0,-1,-2,-1,-1,-2,-1,-5
81773759000,0,-3,-2,-1,-1,-1,-1,-1
81773780630,-5,-1,0,0,0,-1,0,-1
81773780630,2,-1,0,0,-1,0,-1,3
81773781409,-17,-1,-1,-1,-1,-3,-3,1
81773781409,4,-4,-1,-1,-1,-1,-1,-2
81773803832,-4,0,-2,-2,-2,-1,-1,0
81773803832,0,-3,-1,-1,0,-2,-1,-4
81773804676,2,-3,-1,0,0,-1,-1,-4
81773804676,-1,-4,-1,-1,1,-1,-1,0
81773818200,-2,-1,-2,-1,-2,-2,-2,0
81773818200,2,-1,0,-1,-1,-1,-1,-3
81773818974,-1,-3,-1,0,-2,-1,-1,0
81773818974,0,-1,0,-1,-1,-1,-1,-2
81773840860,1,19,1,0,-1,-1,-1,0
81773840860,-8,-7,-3,-2,-2,-2,-3,-2
81773841445,0,1,-1,-1,1,-2,0,-1
81773841445,-3,-4,-4,-1,-3,-2,-2,-3
81773864041,1,8,-1,-2,-1,-1,-1,-2
81773864041,-3,-27,-1,-2,-2,-1,-1,-2
81773864666,0,-3,-2,-2,-2,0,-1,-3
81773864666,-4,-4,-2,0,-1,-1,-2,0
81773878396,-3,-5,0,-1,0,-2,0,-1
81773878396,4,8,-1,1,0,-1,-1,0
81773879011,-1,-2,-1,0,-2,-1,-2,-2
81773879011,13,3,-2,-1,-1,0,-1,-1
81773900860,-7,-2,-2,1,1,1,-2,0
81773900860,4,0,-1,-2,1,-1,-1,-1
81773901481,8,-4,-1,-1,-1,-1,0,1
81773901481,5,5,1,-3,0,-2,0,0
81773923802,-3,10,2,0,0,-1,0,0
81773923802,1,10,1,-1,-1,-1,-1,-1
81773924633,1,3,-1,0,-1,-1,-2,-1
81773924633,-6,-10,-1,-1,-1,0,1,-1
81773938139,1,-5,-3,-1,-2,-2,-1,-2
81773938139,-5,-2,-1,1,0,-1,-1,-3
81773938937,-2,-2,-1,-2,-1,-2,-1,-1
81773938937,-4,3,-1,-1,-1,2,-2,1
81773960712,-3,-9,0,-1,-1,-1,-2,-2
81773960712,3,3,-4,-1,-3,0,0,-1
81773961496,-5,-3,-2,-1,1,-1,-1,-1
81773961496,-3,-1,-2,-2,0,-3,0,0
81773983821,1,-5,-2,-3,0,-2,-2,-2
81773983821,-2,-1,-3,-1,0,0,-1,-2
81773984599,-2,0,-2,-1,-1,-1,0,-3
81773984599,-2,-4,-1,-1,-1,-1,-1,-3
81773998428,-1,-5,0,0,-1,1,-3,-1
81773998428,-1,2,0,-1,-2,-1,-1,-1
81773998982,-4,-1,0,-3,-1,-1,-2,-2
81773998982,-1,2,-1,-3,-2,0,0,-2
81774020641,-1,-8,-2,-2,-2,-2,0,-2
81774020641,-7,3,1,1,0,-1,0,-1
81774021482,-12,-12,-3,-1,-1,0,-2,0
81774021482,-2,-3,0,-1,-3,-3,-2,-1
81774043828,0,-2,-2,-1,-1,-1,-2,-1
81774043828,4,20,-1,-1,-2,-1,-1,-1
81774044630,0,-2,-1,-2,-1,-1,0,-2
81774044630,1,5,-3,1,-1,-1,-2,-1
81774058170,-23,-12,-1,-1,-2,-2,-1,-2
81774058170,-1,-3,-2,0,1,-1,-1,-1
81774058963,4,11,1,-2,1,-2,-1,-2
81774058963,-2,-6,-1,-2,-2,0,-2,-2
81774080837,6,3,0,-2,-2,-1,0,-1
81774080837,2,-6,-3,0,0,-2,-1,-1
81774081441,-7,-5,-3,0,-2,0,-2,-3
81774081441,-1,-5,-1,0,-1,-1,-2,-1
81774103828,6,6,0,-2,-2,0,-2,-2
81774103828,-6,-11,0,-1,-3,-1,0,-2
81774104593,4,0,-2,0,-4,-2,-1,0
81774104593,-3,3,-2,-1,-1,-2,-1,-2
81774118366,3,1,-1,-1,-2,0,0,-1
81774118366,1,-1,-1,0,0,-1,0,0
81774118979,0,-1,1,-2,0,-1,-2,-2
81774118979,1,0,-1,0,1,-1,-2,1
81774140930,-5,-4,-2,-1,-2,-1,-1,0
81774140930,2,-3,1,1,-1,-1,-2,-1
81774141584,-3,-4,-1,-1,-1,-1,-3,-1
81774141584,-1,1,1,-2,-1,-1,-1,-2
81774163795,6,0,-1,-2,1,-1,-1,-1
81774163795,-7,-26,-3,-1,-3,0,-1,-2
81774164572,-2,-3,-3,-1,-2,-1,-1,-1
81774164572,-2,-3,1,-1,-1,0,0,0
81774178324,-6,-3,-3,-2,0,-1,-2,2
81774178324,8,1,0,-1,0,0,-3,-2
81774178970,-4,-2,1,-2,-2,-3,-1,-1
81774178970,-7,-14,-3,-2,-2,-2,-2,-1
81774200849,-2,-27,-2,-1,-2,-1,-2,0
81774200849,-1,3,-2,-2,-1,-1,-1,-1
81774201485,-1,1,-2,-2,-2,-2,-2,-1
81774201485,5,5,-1,0,-1,-1,-2,0
81774223899,2,7,0,0,0,0,-1,-1
81774223899,-3,2,0,-1,-1,-1,-1,-1
81774224702,2,0,-1,-1,1,0,-1,1
81774224702,-4,3,-1,-1,-2,0,-1,-2
81774246411,-2,1,0,-1,-2,0,-2,-2
81774246411,-2,1,-1,0,-1,-1,-1,-1
81774247090,0,5,0,-2,-2,0,-2,0
81774247090,-1,-2,-1,-1,-1,-2,-1,-1
81774260660,-1,1,-2,-1,-1,-1,-1,-2
81774260660,1,2,-2,-1,0,-2,1,-1
81774261408,-1,-1,-2,-1,-1,-2,0,-2
81774261408,0,-1,-3,-1,0,0,0,-3
81774283129,4,2,0,0,0,-1,1,0
81774283129,-3,2,-1,-2,1,0,-1,1
81774283886,3,0,1,0,-1,1,-2,0
81774283886,-6,-3,-2,-2,-2,-1,1,0
81774298391,3,21,1,-1,-1,0,0,-2
81774298391,-24,-41,-5,-3,-2,-4,-2,-5
81774298946,0,6,-1,0,-1,0,0,0
81774298946,-1,1,0,-1,-1,-1,-3,-2
81774320747,-1,0,1,-1,-1,-1,-1,-1
81774320747,2,11,-1,-2,-1,-2,-2,2
81774321489,-2,-5,-2,-1,0,-1,-2,-1
81774321489,-1,-6,0,0,-1,-1,-2,-2
81774343835,-2,-1,-2,-1,-1,-1,-2,-1
81774343835,4,6,0,-1,0,0,-1,-1
81774344597,-1,-7,-2,0,0,-2,0,-2
81774344597,3,8,-2,-1,0,-2,-1,0
81774358367,-3,-5,-2,0,0,-2,-1,0
81774358367,2,6,-1,0,-1,0,-2,0
81774358943,2,2,-3,1,-2,1,-1,-1
81774358943,-3,-4,-2,-1,-2,-1,-1,-3
81774380685,-2,-3,-1,-1,-1,-3,-3,-1
81774380685,0,-1,0,-1,-2,-1,2,-1
81774381469,9,3,-2,-2,0,0,-2,0
81774381469,-1,-2,-1,-2,0,-2,-3,0
81774403832,0,-3,0,0,-1,-1,-2,0
81774403832,5,10,0,0,0,-2,1,0
81774404594,-5,-5,-1,-1,-2,-3,-2,-2
81774404594,0,1,-1,0,-1,-1,-3,-5
81774418150,-7,-4,-3,-1,-3,-3,-1,1
81774418150,0,1,0,1,0,-2,-2,-2
81774418949,1,6,-1,-2,-1,-1,0,0
81774418949,-9,-33,-3,-2,-1,-1,-2,0
81774440910,0,-1,-1,-3,-2,-1,-1,-2
81774440910,1,1,-1,0,-2,-2,-2,-3
81774441455,-4,-4,-1,-1,-1,-2,0,-2
81774441455,4,9,0,-1,-1,0,-1,1
81774463824,-1,9,0,2,0,0,-1,-2
81774463824,-1,-5,-1,-2,-1,0,-2,-1
81774464560,-1,1,0,0,-1,-2,-1,-2
81774464560,-2,1,-2,0,-1,-2,-1,0
81774478214,-2,-4,-1,0,-2,0,-2,-1
81774478214,-1,6,-1,-2,-1,-3,-1,-2
81774478942,-6,-8,-3,-2,-1,-1,0,-2
81774478942,7,14,2,-2,0,1,2,1
81774500689,0,-4,-2,0,1,-1,0,-3
81774500689,0,-4,-2,-2,-1,1,0,0
81774501408,-2,-5,-1,0,0,0,-1,-1
81774501408,-3,-1,-1,0,-4,-2,-3,-6
81774523799,-2,-4,-2,-1,0,0,-1,-1
81774523799,-2,-4,-1,-3,0,0,0,-1
81774524597,-4,1,0,0,0,-2,-2,0
81774524597,8,2,0,0,-2,0,-1,-4
81774538134,0,-1,-1,-2,-1,-1,-1,-3
81774538134,-1,2,0,-1,-2,-1,-1,0
81774538886,-7,-1,-2,-2,-2,-1,-2,-2
81774538886,-4,0,-3,-2,0,-1,0,1
81774560647,-1,-2,0,-2,-1,-5,-3,0
81774560647,1,1,0,-1,-2,0,-1,-1
81774561502,1,0,-1,0,0,-1,0,-1
81774561502,-3,-1,-2,0,-1,0,-1,0
81774583892,-2,-8,-1,0,0,0,0,-1
81774583892,-3,0,-1,-1,-2,0,-1,-1
81774584645,-1,-24,-2,-1,-1,-1,0,-2
81774584645,-5,16,0,0,-1,-1,-1,-1
81774598344,3,0,0,-1,1,0,-2,-1
81774598344,1,2,-2,-2,-2,-2,-1,1
81774598956,-5,1,-2,-2,-2,0,-1,1
81774598956,17,6,4,-1,1,-2,-2,1
81774620723,-5,-8,-2,-2,-1,1,1,0
81774620723,-2,3,0,-2,-1,-1,1,-2
81774621392,2,4,-1,0,1,0,-2,-1
81774621392,-7,-9,-2,-1,-1,-1,0,-1
81774643797,-1,4,0,0,-2,-2,0,0
81774643797,0,-3,-1,-1,-1,0,0,-1
81774644555,0,2,-2,-1,-2,-1,-1,-2
81774644555,-3,-5,-1,-1,0,-1,-2,-1
81774658215,-1,-3,-1,-2,0,-1,-1,-1
81774658215,-2,2,-1,-2,1,-2,-2,0
81774658943,0,0,0,-1,0,-2,-2,-1
81774658943,-5,-8,-2,-1,0,-2,-2,0
81774680658,1,5,-3,-3,-1,1,-1,2
81774680658,3,5,-1,-1,-1,-1,-1,-1
81774681437,6,23,1,0,-1,-1,-1,0
81774681437,-5,-10,-1,-1,0,-1,2,0
81774703758,-2,3,-3,-3,-3,1,-2,-1
81774703758,0,-1,-1,0,0,-1,-2,-1
81774704565,-1,1,0,0,1,0,0,-1
81774704565,-2,0,-2,-1,0,-2,-1,-2
81774717470,0,-3,-1,1,-1,-2,-1,-2
81774717470,-3,-4,-1,-1,-2,-1,-2,-2
81774725789,-3,-6,-2,-1,-1,-1,-1,-1
81774725789,-3,-3,-1,-1,-1,-1,-1,-1
81774740725,-2,-5,-1,-1,-1,-1,-1,0
81774740725,-1,-2,0,-2,-2,-1,-1,1
81774741423,-2,-6,0,-2,-1,-1,0,1
81774741423,-4,0,-1,-1,0,-1,-2,0
81774764017,1,3,2,0,-1,-1,0,-1
81774764017,-4,0,-1,-1,-2,0,-2,-1
81774764624,0,-4,-2,-3,-2,-1,-1,-1
81774764624,-3,-2,-2,-2,-2,-1,-1,0
81774777550,-4,-1,-1,-1,-2,-1,-1,-3
81774777550,-2,-4,-4,-3,-1,-2,-1,0
81774785712,-5,-3,-3,-1,0,1,-3,-2
81774785712,-1,0,0,0,-2,0,-3,-1
81774800701,-1,-2,-1,-1,-1,0,0,-1
81774800701,-17,-19,-3,0,-2,-4,0,-3
81774801438,-2,3,0,-1,-1,-1,0,-2
81774801438,1,0,-1,-1,1,0,1,-1
81774823811,-1,-2,0,-2,0,-2,-1,0
81774823811,-1,0,-4,-1,1,1,-2,-1
81774824573,6,4,2,0,1,-1,0,-1
81774824573,-4,-6,-2,-1,-2,-2,-2,-3
81774837452,3,7,0,0,-1,-1,-1,-2
81774837452,-1,1,-2,-2,-1,0,-2,-2
81774845705,-5,-3,-3,0,-2,-2,-2,-2
81774845705,1,0,-2,0,-1,-1,0,0
81774860695,1,-3,-1,0,-2,-1,0,-2
81774860695,4,2,0,-2,-3,-2,0,0
81774861483,-3,-5,0,-2,-1,-1,-1,1
81774861483,0,1,-1,0,-2,-1,0,0
81774883882,-3,-3,-1,0,0,0,-1,1
81774883882,0,-2,1,0,0,-2,-2,-1
81774884653,0,-1,0,0,0,0,-1,-3
81774884653,-2,0,-2,-2,-2,0,-1,-2
81774897571,3,3,0,-2,-2,-2,-2,-1
81774897571,-2,0,1,1,0,-2,-3,-1
81774905908,0,-2,-2,-1,0,-1,-2,-2
81774905908,-12,-12,-4,-4,-3,-2,-3,-1
81774920737,-5,-5,-1,-1,-2,-1,-1,-2
81774920737,4,-1,-1,-1,-1,-1,0,-1
81774921481,-5,-3,-1,0,-1,-1,-2,-1
81774921481,0,1,-2,-1,-1,-1,0,0
81774944004,-1,0,-1,-1,-1,-1,-2,1
81774944004,4,7,-2,-1,0,-1,0,1
81774944650,-8,-3,-1,-1,-1,-1,0,0
81774944650,2,1,1,0,-1,-1,0,-1
81774957551,-1,-7,-2,-1,-1,-3,-1,-2
81774957551,3,1,-1,0,0,0,-1,-1
81774965591,2,-5,-2,0,-2,-1,-2,-2
81774965591,0,4,1,-1,0,-1,-2,0
81774980604,0,5,0,0,0,0,0,0
81774980604,-4,-3,-2,0,-2,0,0,-1
81774981380,2,1,-1,-3,-1,-2,0,1
81774981380,-2,-1,0,-1,-2,-1,-1,-5
81775003769,-3,-3,-2,0,-1,-1,0,4
81775003769,-2,-2,1,0,-1,-1,0,-1
81775004571,-1,-3,-2,-1,-2,0,-1,-1
81775004571,3,1,-2,0,-1,-1,-1,0
81775017488,-1,-2,-2,-1,-1,-1,-1,-4
81775017488,-1,-2,0,-1,-2,0,-1,-1
81775025625,-1,3,-1,-1,-2,-3,-2,0
81775025625,-1,-2,0,-3,0,-1,-1,-1
81775040597,0,2,0,-2,-1,0,0,-2
81775040597,-2,-3,-1,0,-1,-2,0,-1
81775041460,1,-1,-1,-1,0,-2,-1,-2
81775041460,0,-1,-2,0,0,0,0,0
